# 01004 ENAS Ny-Alesund Ii Observations at 12Z 28 Sep 2019
Frequency [GHz],TB
175.31,241.464334719
175.322,241.528270429
175.337,241.608219485
175.352,241.688199963
175.367,241.768210492
175.382,241.848249673
175.397,241.928316103
175.412,242.008408356
175.427,242.088524994
175.442,242.168664569
175.457,242.248825602
175.472,242.329006619
175.487,242.409206113
175.502,242.489422565
175.517,242.569654442
175.532,242.649900201
175.547,242.73015827
175.562,242.810427071
175.577,242.890705005
175.592,242.970990456
175.607,243.051281796
175.622,243.131577371
175.637,243.211875522
175.652,243.292174565
175.667,243.372472796
175.682,243.452768509
175.697,243.533059966
175.712,243.613345413
175.727,243.693623091
175.742,243.773891214
175.757,243.854147973
175.772,243.934391551
175.787,244.014620115
175.802,244.094831806
175.817,244.17502475
175.832,244.255197053
175.847,244.335346816
175.862,244.415472113
175.877,244.495570979
175.892,244.575641478
175.907,244.655681605
175.922,244.735689377
175.937,244.815662763
175.952,244.89559974
175.967,244.975498245
175.982,245.055356203
175.997,245.135171523
176.012,245.214942093
176.027,245.294665792
176.042,245.374340458
176.057,245.453963931
176.072,245.533534025
176.087,245.61304853
176.102,245.69250522
176.117,245.771901863
176.132,245.851236179
176.147,245.9305059
176.162,246.009708719
176.177,246.088842317
176.192,246.167904351
176.207,246.246892459
176.222,246.325804272
176.237,246.404637383
176.252,246.483389375
176.267,246.562057811
176.282,246.640640241
176.297,246.719134177
176.31,246.787088754
176.312,246.797537133
176.327,246.875846588
176.342,246.954060007
176.357,247.032174834
176.372,247.1101885
176.387,247.188098405
176.402,247.265901935
176.417,247.343596464
176.432,247.421179322
176.447,247.498647855
176.46,247.565692684
176.462,247.575999359
176.477,247.653231125
176.492,247.730340421
176.507,247.807324491
176.522,247.884180566
176.537,247.960905861
176.552,248.03749756
176.567,248.113952834
176.582,248.190268828
176.597,248.266442687
176.612,248.342471505
176.627,248.418352388
176.642,248.494082405
176.657,248.569658607
176.672,248.645078027
176.687,248.720337685
176.702,248.795434575
176.717,248.870365673
176.732,248.945127941
176.747,249.019718314
176.762,249.094133712
176.777,249.168371043
176.792,249.242427182
176.807,249.316299001
176.822,249.389983339
176.837,249.463477028
176.852,249.536776877
176.867,249.609879676
176.882,249.682782203
176.897,249.755481212
176.912,249.827973438
176.927,249.900255605
176.942,249.972324417
176.957,250.044176554
176.972,250.115808691
176.987,250.187217477
177.002,250.258399551
177.017,250.329351525
177.032,250.400070007
177.047,250.470551576
177.062,250.540792814
177.077,250.610790259
177.092,250.680540461
177.107,250.750039942
177.122,250.819285203
177.137,250.888272741
177.152,250.956999031
177.167,251.025460545
177.182,251.093653724
177.197,251.161575006
177.21,251.220217412
177.212,251.229220809
177.227,251.296587544
177.242,251.363671607
177.257,251.430469373
177.272,251.496977217
177.287,251.563191494
177.302,251.629108547
177.31,251.664141515
177.317,251.694724715
177.332,251.760036305
177.347,251.825039639
177.362,251.889731015
177.377,251.954106719
177.392,252.018163032
177.407,252.081896218
177.422,252.145302542
177.437,252.208378252
177.452,252.271119589
177.467,252.333522785
177.482,252.39558407
177.497,252.457299667
177.512,252.518665771
177.527,252.579678601
177.542,252.640334345
177.557,252.7006292
177.572,252.760559357
177.587,252.820120988
177.602,252.879310282
177.617,252.938123408
177.632,252.996556532
177.647,253.054605825
177.66,253.104601772
177.662,253.112267454
177.677,253.169537574
177.692,253.226412361
177.707,253.282887956
177.722,253.338960531
177.737,253.394626246
177.752,253.449881253
177.767,253.504721725
177.782,253.559143815
177.797,253.613143694
177.812,253.666717529
177.827,253.719861494
177.842,253.772571768
177.857,253.82484452
177.872,253.876675946
177.887,253.928062241
177.902,253.978999593
177.917,254.029484212
177.932,254.079512316
177.947,254.12908012
177.96,254.171663646
177.962,254.178183862
177.977,254.226819777
177.992,254.274984128
178.007,254.32267316
178.022,254.369883159
178.037,254.416610411
178.052,254.462851216
178.067,254.508601886
178.082,254.553858751
178.097,254.598618155
178.112,254.642876466
178.127,254.686630052
178.142,254.729875315
178.157,254.772608662
178.172,254.814826534
178.187,254.856525376
178.202,254.897701669
178.217,254.938351907
178.232,254.978472598
178.247,255.018060296
178.262,255.057111563
178.277,255.09562298
178.292,255.133591165
178.307,255.171012767
178.322,255.207884449
178.337,255.2442029
178.352,255.279964855
178.367,255.315167066
178.382,255.349806319
178.397,255.383879429
178.41,255.412949068
178.412,255.41738324
178.427,255.450314637
178.442,255.482670545
178.457,255.514447898
178.472,255.545643687
178.487,255.576254937
178.502,255.606278704
178.517,255.635712086
178.532,255.664552215
178.547,255.692796273
178.562,255.720441472
178.577,255.74748507
178.592,255.773924364
178.607,255.799756697
178.622,255.824979462
178.637,255.849590086
178.652,255.873586043
178.667,255.896964855
178.682,255.919724096
178.697,255.941861387
178.712,255.963374391
178.727,255.984260826
178.742,256.004518462
178.757,256.024145112
178.772,256.04313865
178.787,256.061496997
178.802,256.079218129
178.817,256.096300082
178.832,256.112740936
178.847,256.12853884
178.862,256.143691982
178.877,256.158198629
178.892,256.172057091
178.907,256.185265735
178.922,256.197823
178.937,256.209727369
178.952,256.220977403
178.967,256.231571709
178.982,256.241508965
178.997,256.250787909
179.012,256.259407342
179.027,256.267366124
179.042,256.274663192
179.057,256.28129753
179.072,256.287268203
179.087,256.292574329
179.102,256.297215109
179.117,256.301189792
179.132,256.304497702
179.147,256.307138237
179.16,256.308886447
179.162,256.309110859
179.177,256.310415079
179.192,256.311050509
179.207,256.311016815
179.222,256.310313726
179.237,256.30894105
179.252,256.306898652
179.267,256.304186489
179.282,256.30080457
179.297,256.296752975
179.312,256.292031869
179.327,256.286641471
179.342,256.280582077
179.357,256.273854052
179.372,256.266457841
179.387,256.258393945
179.402,256.249662944
179.417,256.240265492
179.432,256.230202301
179.447,256.219474168
179.462,256.208081947
179.477,256.19602658
179.492,256.183309047
179.507,256.169930432
179.522,256.155891872
179.537,256.141194562
179.552,256.125839794
179.567,256.109828897
179.582,256.09316329
179.597,256.075844445
179.612,256.05787391
179.627,256.039253288
179.642,256.019984266
179.657,256.000068574
179.672,255.979508016
179.687,255.958304467
179.702,255.936459847
179.717,255.913976155
179.732,255.890855438
179.747,255.867099814
179.762,255.842711451
179.777,255.817692587
179.792,255.792045502
179.807,255.765772546
179.822,255.738876116
179.837,255.711358673
179.852,255.683222717
179.867,255.654470818
179.882,255.62510558
179.897,255.595129668
179.91,255.568658679
179.912,255.5645458
179.927,255.533356725
179.942,255.501565254
179.957,255.469174238
179.972,255.436186572
179.987,255.402605184
180.002,255.368433065
180.017,255.333673232
180.032,255.298328736
180.047,255.262402675
180.062,255.22589818
180.077,255.188818409
180.092,255.151166569
180.107,255.112945884
180.122,255.074159613
180.137,255.034811044
180.152,254.994903483
180.167,254.95444028
180.182,254.913424796
180.197,254.871860414
180.212,254.829750539
180.227,254.7870986
180.242,254.743908044
180.257,254.700182318
180.272,254.655924911
180.287,254.611139305
180.302,254.565828991
180.317,254.519997488
180.332,254.473648315
180.347,254.426784989
180.362,254.37941105
180.377,254.331530025
180.392,254.283145456
180.407,254.234260881
180.422,254.184879839
180.437,254.135005864
180.452,254.084642498
180.467,254.033793263
180.482,253.982461692
180.497,253.930651296
180.512,253.87836559
180.527,253.82560808
180.542,253.772382248
180.557,253.718691576
180.56,253.707897966
180.572,253.664539537
180.587,253.609929581
180.602,253.554865148
180.617,253.499349664
180.632,253.443386537
180.647,253.386979158
180.66,253.337736022
180.662,253.330130904
180.677,253.272845126
180.692,253.215125161
180.707,253.156974325
180.722,253.098395921
180.737,253.039393221
180.752,252.979969475
180.767,252.920127929
180.782,252.859871786
180.797,252.799204244
180.812,252.738128469
180.827,252.676647606
180.842,252.61476479
180.857,252.552483118
180.872,252.489805678
180.887,252.426735533
180.902,252.363275724
180.917,252.299429273
180.932,252.235199188
180.947,252.170588451
180.962,252.105600027
180.977,252.04023687
180.992,251.974501909
181.007,251.908398067
181.022,251.841928249
181.037,251.775095343
181.052,251.707902231
181.067,251.640351787
181.082,251.572446872
181.097,251.504190343
181.112,251.435585043
181.127,251.36663383
181.142,251.297339549
181.157,251.227705038
181.172,251.157733151
181.187,251.087426747
181.202,251.016788682
181.217,250.945821834
181.232,250.87452908
181.247,250.802913325
181.262,250.730977475
181.277,250.658724477
181.292,250.586157296
181.307,250.513278902
181.31,250.498666144
181.322,250.440092324
181.337,250.366600608
181.352,250.292806836
181.367,250.218714137
181.382,250.144325673
181.397,250.069644661
181.412,249.994674369
181.427,249.919418109
181.442,249.84387927
181.457,249.768061277
181.472,249.691967643
181.487,249.615601945
181.502,249.538967831
181.517,249.462069036
181.532,249.384909372
181.547,249.307492748
181.562,249.229823151
181.577,249.151904685
181.592,249.073741544
181.607,248.995338032
181.622,248.91669858
181.637,248.837827716
181.652,248.758730107
181.667,248.679410548
181.682,248.599873967
181.697,248.520125432
181.712,248.440170162
181.727,248.360013521
181.742,248.279661045
181.757,248.199118424
181.772,248.118391523
181.787,248.037486386
181.802,247.956409242
181.817,247.875166511
181.832,247.793764805
181.847,247.712210953
181.862,247.630511989
181.877,247.548675168
181.892,247.466707971
181.907,247.384618113
181.922,247.30241356
181.937,247.220102516
181.952,247.137693454
181.967,247.0551951
181.982,246.972616473
181.997,246.889966862
182.012,246.807255852
182.027,246.724493332
182.042,246.641689503
182.057,246.558854878
182.06,246.542285207
182.072,246.476000308
182.087,246.39313697
182.102,246.310276409
182.117,246.227430514
182.132,246.144611544
182.147,246.061832144
182.162,245.979105347
182.177,245.896444585
182.192,245.813863705
182.207,245.731376971
182.222,245.648999086
182.237,245.566745206
182.252,245.484630926
182.267,245.402672329
182.282,245.320885968
182.297,245.239288889
182.312,245.157898653
182.327,245.076733334
182.342,244.99581153
182.357,244.915152372
182.372,244.83477557
182.387,244.754701377
182.402,244.674950637
182.417,244.59554477
182.432,244.516505804
182.447,244.437856375
182.462,244.359619741
182.477,244.281819797
182.492,244.204481056
182.507,244.127628719
182.522,244.051288618
182.537,243.975487247
182.552,243.900251787
182.567,243.82561009
182.582,243.751590688
182.597,243.678222787
182.612,243.605536297
182.627,243.533561792
182.642,243.462330533
182.657,243.391874461
182.672,243.322226173
182.687,243.25341894
182.702,243.185486665
182.717,243.118463893
182.732,243.052385771
182.747,242.987288046
182.762,242.923207025
182.777,242.860179549
182.792,242.79824296
182.807,242.73743507
182.822,242.677794114
182.837,242.619358691
182.852,242.562167733
182.867,242.506260435
182.882,242.451676196
182.897,242.398454549
182.912,242.346635091
182.927,242.296257414
182.942,242.247360995
182.957,242.199985135
182.972,242.154168844
182.987,242.109950765
183.002,242.067369041
183.017,242.026461237
183.032,241.987264198
183.047,241.94981396
183.062,241.914145626
183.077,241.880293223
183.092,241.848289619
183.107,241.818166366
183.122,241.789953594
183.137,241.763679906
183.152,241.739372223
183.167,241.717055704
183.182,241.696753618
183.197,241.678487248
183.212,241.662275795
183.227,241.648136276
183.242,241.636083454
183.257,241.626129764
183.367,241.617859282
183.382,241.625553384
183.397,241.635343767
183.412,241.647217401
183.427,241.661158964
183.442,241.677150879
183.457,241.695173424
183.472,241.715204796
183.487,241.737221248
183.502,241.761197161
183.517,241.787105162
183.532,241.814916259
183.547,241.844599933
183.562,241.876124272
183.577,241.9094561
183.592,241.944561081
183.607,241.981403851
183.622,242.019948136
183.637,242.060156871
183.652,242.101992314
183.667,242.145416159
183.682,242.19038964
183.697,242.236873631
183.712,242.284828752
183.727,242.334215459
183.742,242.384994131
183.757,242.437125148
183.772,242.490568979
183.787,242.545286249
183.802,242.601237796
183.817,242.658384751
183.832,242.716688577
183.847,242.776111129
183.862,242.836614699
183.877,242.898162048
183.892,242.960716467
183.907,243.024241773
183.922,243.088702381
183.937,243.154063283
183.952,243.220290111
183.967,243.287349123
183.982,243.355207234
183.997,243.42383203
184.012,243.493191768
184.027,243.563255376
184.042,243.633992495
184.057,243.705373421
184.072,243.777369155
184.087,243.849951381
184.102,243.923092479
184.117,243.99676549
184.132,244.07094414
184.147,244.145602824
184.162,244.220716591
184.177,244.296261151
184.192,244.372212843
184.207,244.448548654
184.222,244.525246185
184.237,244.602283652
184.252,244.679639874
184.267,244.757294252
184.282,244.835226776
184.297,244.913417988
184.312,244.991849
184.327,245.070501452
184.342,245.149357521
184.357,245.228399901
184.372,245.307611787
184.387,245.386976877
184.402,245.466479341
184.417,245.546103821
184.432,245.625835417
184.447,245.70565968
184.462,245.785562589
184.477,245.865530547
184.492,245.94555037
184.507,246.02560929
184.522,246.105694897
184.537,246.185795194
184.552,246.265898539
184.56,246.308617659
184.567,246.345993647
184.582,246.426069587
184.597,246.506115772
184.612,246.586121937
184.627,246.666078148
184.642,246.74597477
184.657,246.825802484
184.672,246.905552257
184.687,246.985215347
184.702,247.064783287
184.717,247.144247871
184.732,247.223601176
184.747,247.30283551
184.762,247.381943437
184.777,247.460917761
184.792,247.539751509
184.807,247.618437941
184.822,247.696970529
184.837,247.775342952
184.852,247.853549098
184.867,247.931583053
184.882,248.009439084
184.897,248.08711165
184.912,248.164595388
184.927,248.241885103
184.942,248.318975769
184.957,248.395862515
184.972,248.472540633
184.987,248.54900556
185.002,248.625252873
185.017,248.701278298
185.032,248.777077679
185.047,248.852647004
185.062,248.927982367
185.077,249.003080001
185.092,249.077936234
185.107,249.152547518
185.122,249.226910399
185.137,249.301021526
185.152,249.374877647
185.167,249.448475597
185.182,249.521812299
185.197,249.594884766
185.212,249.667690079
185.227,249.740225401
185.242,249.812487972
185.257,249.88447509
185.272,249.95618412
185.287,250.027612492
185.302,250.098757687
185.31,250.136585156
185.317,250.169617252
185.332,250.240188769
185.347,250.310469882
185.362,250.380458272
185.377,250.450151662
185.392,250.519547817
185.407,250.588644533
185.422,250.657439648
185.437,250.725931021
185.452,250.794116548
185.467,250.861994137
185.482,250.929561741
185.497,250.996817311
185.512,251.063758835
185.527,251.130384309
185.542,251.196691738
185.557,251.262679156
185.572,251.328344586
185.587,251.393686081
185.602,251.458701693
185.617,251.52338947
185.632,251.587747481
185.647,251.651773784
185.662,251.715466448
185.677,251.778823527
185.692,251.8418431
185.707,251.904523214
185.722,251.966861928
185.737,252.028857291
185.752,252.090507347
185.767,252.151810142
185.782,252.212763701
185.797,252.273366046
185.812,252.333615193
185.827,252.393509142
185.842,252.45304589
185.857,252.512223416
185.872,252.571039698
185.887,252.62949269
185.902,252.687580343
185.917,252.745300594
185.932,252.802651367
185.947,252.859630575
185.96,252.908710373
185.962,252.916236114
185.977,252.972465875
185.992,253.028317729
186.007,253.083789544
186.022,253.138879166
186.037,253.193584436
186.052,253.247903177
186.06,253.276714374
186.067,253.301833211
186.082,253.355372339
186.097,253.408518358
186.112,253.461269046
186.127,253.513622184
186.142,253.565575535
186.157,253.617126851
186.172,253.668273886
186.187,253.719014376
186.202,253.76934606
186.217,253.819266658
186.232,253.868773903
186.247,253.917865509
186.262,253.966539183
186.277,254.014792643
186.292,254.062623597
186.307,254.110029755
186.322,254.157008809
186.337,254.203558484
186.352,254.249676478
186.367,254.295360502
186.382,254.340608274
186.397,254.385417502
186.412,254.429785918
186.427,254.473711247
186.442,254.517191218
186.457,254.560223581
186.472,254.602806084
186.487,254.644936493
186.502,254.686612578
186.517,254.727832121
186.532,254.768592923
186.547,254.808892795
186.562,254.848729561
186.577,254.888101066
186.592,254.92700517
186.607,254.965439744
186.622,255.003402691
186.637,255.040891921
186.652,255.077905381
186.667,255.114441025
186.682,255.15049683
186.697,255.186070809
186.71,255.216510319
186.712,255.221160984
186.727,255.255765424
186.742,255.289882202
186.757,255.323509431
186.772,255.356645252
186.787,255.389287833
186.802,255.421435368
186.817,255.453086093
186.832,255.48423827
186.847,255.514890192
186.862,255.545040181
186.877,255.574686608
186.892,255.603827868
186.907,255.632462393
186.922,255.66058865
186.937,255.688205152
186.952,255.715310444
186.967,255.741903104
186.982,255.767981763
186.997,255.793545075
187.012,255.818591745
187.027,255.843120524
187.042,255.867130197
187.057,255.890619586
187.072,255.913587571
187.087,255.936033058
187.102,255.957955007
187.117,255.979352421
187.132,256.000224348
187.147,256.020569876
187.162,256.040388147
187.177,256.059678339
187.192,256.07843968
187.207,256.096671446
187.222,256.11437296
187.237,256.131543586
187.252,256.148182746
187.267,256.164289895
187.282,256.179864548
187.297,256.194906262
187.312,256.20941464
187.327,256.22338934
187.342,256.23683006
187.357,256.249736553
187.372,256.262108612
187.387,256.273946093
187.402,256.285248878
187.417,256.296016919
187.432,256.306250209
187.447,256.315948781
187.46,256.323921755
187.462,256.325112731
187.477,256.333742188
187.492,256.341837336
187.507,256.349398414
187.522,256.3564257
187.537,256.36291952
187.552,256.36888025
187.567,256.374308312
187.582,256.379204181
187.597,256.383568368
187.612,256.387401439
187.627,256.39070401
187.642,256.393476731
187.657,256.395720308
187.672,256.397435483
187.687,256.398623058
187.702,256.399283872
187.717,256.399418804
187.732,256.399028785
187.747,256.398114787
187.762,256.39667782
187.777,256.394718954
187.792,256.392239287
187.807,256.389239965
187.822,256.385722172
187.837,256.381687137
187.852,256.377136138
187.867,256.372070474
187.882,256.366491505
187.897,256.36040062
187.912,256.353799253
187.927,256.346688868
187.942,256.339070981
187.957,256.330947132
187.972,256.322318914
187.987,256.313187941
188.002,256.303555873
188.017,256.293424403
188.032,256.282795263
188.047,256.27167022
188.062,256.26005107
188.077,256.247939647
188.092,256.235337817
188.107,256.222247484
188.122,256.208670572
188.137,256.194609056
188.152,256.180064918
188.167,256.165040193
188.182,256.149536935
188.197,256.13355723
188.21,256.119324398
188.212,256.117103194
188.227,256.100176968
188.242,256.082780724
188.257,256.064916656
188.272,256.046586999
188.287,256.027793996
188.302,256.008539926
188.317,255.988827095
188.332,255.968657827
188.347,255.948034474
188.362,255.926959409
188.377,255.905435033
188.392,255.883463758
188.407,255.861048041
188.422,255.838190322
188.437,255.814893097
188.452,255.791158875
188.467,255.766990164
188.482,255.742389519
188.497,255.717359493
188.512,255.691902663
188.527,255.666021629
188.542,255.639719002
188.557,255.612997404
188.572,255.585859493
188.587,255.558307914
188.602,255.530345348
188.617,255.501974481
188.632,255.473198021
188.647,255.444018675
188.66,255.418406132
188.662,255.414439172
188.677,255.384462258
188.692,255.354090677
188.707,255.323327195
188.722,255.292174581
188.737,255.260635623
