# 10410 EDZE Essen Observations at 12Z 17 Aug 2020
Frequency [GHz],TB
175.31,272.626219234
175.322,272.604810183
175.337,272.577972779
175.352,272.55105078
175.367,272.524044109
175.382,272.496952675
175.397,272.469776387
175.412,272.442515191
175.427,272.415168972
175.442,272.387737662
175.457,272.360221157
175.472,272.332619388
175.487,272.304932254
175.502,272.277159667
175.517,272.249301544
175.532,272.221357778
175.547,272.193328279
175.562,272.165212956
175.577,272.137011701
175.592,272.108724428
175.607,272.080351038
175.622,272.051891422
175.637,272.023345479
175.652,271.994713098
175.667,271.965994185
175.682,271.937188617
175.697,271.908296319
175.712,271.879317138
175.727,271.850250985
175.742,271.821097751
175.757,271.791857294
175.772,271.762529512
175.787,271.733114302
175.802,271.703611524
175.817,271.674021049
175.832,271.644342774
175.847,271.614576543
175.862,271.584722264
175.877,271.554779773
175.892,271.524748953
175.907,271.494629663
175.922,271.46442177
175.937,271.434125142
175.952,271.403739619
175.967,271.373265077
175.982,271.342701354
175.997,271.312048306
176.012,271.281305792
176.027,271.250473646
176.042,271.219551729
176.057,271.188539868
176.072,271.157437908
176.087,271.126245693
176.102,271.094963044
176.117,271.063589811
176.132,271.032125808
176.147,271.000570877
176.162,270.968924829
176.177,270.937187496
176.192,270.905358686
176.207,270.873438223
176.222,270.841425931
176.237,270.809321584
176.252,270.777125024
176.267,270.744836056
176.282,270.712454475
176.297,270.679980055
176.31,270.65176034
176.312,270.647412635
176.327,270.61475197
176.342,270.58199788
176.357,270.549150122
176.372,270.516208511
176.387,270.483172796
176.402,270.450042777
176.417,270.416818209
176.432,270.383498872
176.447,270.350084534
176.46,270.32104841
176.462,270.316574953
176.477,270.282969898
176.492,270.249269109
176.507,270.215472345
176.522,270.18157936
176.537,270.147589892
176.552,270.113503695
176.567,270.079320493
176.582,270.045040025
176.597,270.01066203
176.612,269.976186217
176.627,269.941612328
176.642,269.906940048
176.657,269.872169138
176.672,269.837299278
176.687,269.802330187
176.702,269.767261537
176.717,269.73209307
176.732,269.696824461
176.747,269.661455392
176.762,269.625985562
176.777,269.590414652
176.792,269.554742324
176.807,269.518968255
176.822,269.48309212
176.837,269.447113577
176.852,269.41103229
176.867,269.374847906
176.882,269.338560089
176.897,269.302168482
176.912,269.265672691
176.927,269.229072395
176.942,269.192367205
176.957,269.15555675
176.972,269.118640644
176.987,269.08161851
177.002,269.044489957
177.017,269.007254597
177.032,268.969912014
177.047,268.932461837
177.062,268.894903614
177.077,268.857236956
177.092,268.819461439
177.107,268.781576634
177.122,268.743582121
177.137,268.705477445
177.152,268.66726217
177.167,268.628935865
177.182,268.590498065
177.197,268.551948298
177.21,268.518447595
177.212,268.513286132
177.227,268.47451106
177.242,268.43562265
177.257,268.396620373
177.272,268.357503774
177.287,268.318272346
177.302,268.278925605
177.31,268.257893347
177.317,268.239463036
177.332,268.199884121
177.347,268.160188339
177.362,268.120375191
177.377,268.080444128
177.392,268.040394612
177.407,268.000226116
177.422,267.959938081
177.437,267.919529946
177.452,267.87900117
177.467,267.838351156
177.482,267.797579345
177.497,267.756685159
177.512,267.715668003
177.527,267.674527282
177.542,267.633262396
177.557,267.591872741
177.572,267.550357687
177.587,267.508716625
177.602,267.466948923
177.617,267.425053935
177.632,267.383031035
177.647,267.340879543
177.66,267.304243747
177.662,267.298598822
177.677,267.256188211
177.692,267.213647012
177.707,267.170974575
177.722,267.12817019
177.737,267.085233171
177.752,267.042162792
177.767,266.998958377
177.782,266.955619186
177.797,266.912144493
177.812,266.868533564
177.827,266.824785657
177.842,266.780900029
177.857,266.736875911
177.872,266.69271254
177.887,266.648409127
177.902,266.603964916
177.917,266.559379088
177.932,266.514650867
177.947,266.469779428
177.96,266.43077437
177.962,266.424763963
177.977,266.379603635
177.992,266.334297617
178.007,266.288845052
178.022,266.243245114
178.037,266.197496931
178.052,266.151599624
178.067,266.105552323
178.082,266.059354142
178.097,266.013004174
178.112,265.966501526
178.127,265.919845261
178.142,265.873034482
178.157,265.82606824
178.172,265.778945576
178.187,265.731665576
178.202,265.684227255
178.217,265.636629624
178.232,265.588871738
178.247,265.540952572
178.262,265.492871138
178.277,265.444626421
178.292,265.396217407
178.307,265.347643056
178.322,265.298902335
178.337,265.249994179
178.352,265.200917532
178.367,265.151671325
178.382,265.102254476
178.397,265.052665877
178.41,265.009549324
178.412,265.002904446
178.427,264.952969038
178.442,264.902858574
178.457,264.852571872
178.472,264.802107803
178.487,264.751465205
178.502,264.700642925
178.517,264.649639764
178.532,264.598454542
178.547,264.547086047
178.562,264.495533082
178.577,264.443794401
178.592,264.391868789
178.607,264.339754991
178.622,264.287451743
178.637,264.234957775
178.652,264.18227183
178.667,264.12939257
178.682,264.076318719
178.697,264.02304896
178.712,263.969581959
178.727,263.915916378
178.742,263.862050865
178.757,263.807984056
178.772,263.753714568
178.787,263.699241018
178.802,263.644562012
178.817,263.589676131
178.832,263.534581948
178.847,263.479278029
178.862,263.423762921
178.877,263.36803516
178.892,263.312093287
178.907,263.255935814
178.922,263.199561228
178.937,263.142968027
178.952,263.08615468
178.967,263.029119664
178.982,262.971861427
178.997,262.914378397
179.012,262.856669014
179.027,262.798731679
179.042,262.740564805
179.057,262.682166757
179.072,262.623535943
179.087,262.564670722
179.102,262.505569418
179.117,262.446230387
179.132,262.386651956
179.147,262.32683244
179.16,262.274792517
179.162,262.266770116
179.177,262.206463302
179.192,262.145910259
179.207,262.085109241
179.222,262.024058509
179.237,261.962756302
179.252,261.901200831
179.267,261.839390321
179.282,261.777322966
179.297,261.714996964
179.312,261.652410475
179.327,261.589561672
179.342,261.5264487
179.357,261.463069702
179.372,261.399422815
179.387,261.335506121
179.402,261.271317754
179.417,261.206855808
179.432,261.142118334
179.447,261.077103428
179.462,261.011809126
179.477,260.94623349
179.492,260.880374533
179.507,260.814230317
179.522,260.747798806
179.537,260.68107804
179.552,260.614065995
179.567,260.546760643
179.582,260.479159965
179.597,260.411261922
179.612,260.343064473
179.627,260.274565535
179.642,260.205763054
179.657,260.136654955
179.672,260.067239147
179.687,259.997513531
179.702,259.927476018
179.717,259.857124474
179.732,259.786456776
179.747,259.715470831
179.762,259.644164466
179.777,259.572535565
179.792,259.500581965
179.807,259.428301516
179.822,259.355692045
179.837,259.282751399
179.852,259.209477396
179.867,259.135867862
179.882,259.061920628
179.897,258.987633482
179.91,258.922974647
179.912,258.913004241
179.927,258.838030712
179.942,258.7627107
179.957,258.687042024
179.972,258.611022449
179.987,258.534649799
180.002,258.457921847
180.017,258.38083641
180.032,258.303391265
180.047,258.225584223
180.062,258.14741307
180.077,258.068875628
180.092,257.989969669
180.107,257.910693007
180.122,257.831043459
180.137,257.751018826
180.152,257.670616931
180.167,257.589835588
180.182,257.508672637
180.197,257.427125903
180.212,257.345193235
180.227,257.26287248
180.242,257.180161493
180.257,257.097058155
180.272,257.013560341
180.287,256.92966594
180.302,256.845372859
180.317,256.760679016
180.332,256.675582332
180.347,256.59008077
180.362,256.50417228
180.377,256.417854847
180.392,256.331126443
180.407,256.2439851
180.422,256.156428861
180.437,256.068455762
180.452,255.980063876
180.467,255.891251308
180.482,255.802016173
180.497,255.712356608
180.512,255.622270788
180.527,255.531756908
180.542,255.440813178
180.557,255.349437865
180.56,255.331110852
180.572,255.257629231
180.587,255.165385599
180.602,255.072705297
180.617,254.979586711
180.632,254.88602823
180.647,254.7920283
180.66,254.71020343
180.662,254.697585401
180.677,254.602698054
180.692,254.507364786
180.707,254.41158421
180.722,254.315354943
180.737,254.218675663
180.752,254.121545057
180.767,254.023961919
180.782,253.925925024
180.797,253.827433225
180.812,253.728485413
180.827,253.629080509
180.842,253.529217528
180.857,253.428895485
180.872,253.32811348
180.887,253.226870637
180.902,253.12516616
180.917,253.022999279
180.932,252.920369297
180.947,252.817275568
180.962,252.713717497
180.977,252.609694543
180.992,252.505206241
181.007,252.400252154
181.022,252.294831934
181.037,252.188945266
181.052,252.082591922
181.067,251.975771718
181.082,251.868484525
181.097,251.760730291
181.112,251.652509016
181.127,251.543820771
181.142,251.434665688
181.157,251.325043956
181.172,251.21495583
181.187,251.10440164
181.202,250.99338176
181.217,250.881896651
181.232,250.769946822
181.247,250.657532828
181.262,250.544655346
181.277,250.431315066
181.292,250.317512758
181.307,250.203249239
181.31,250.180341271
181.322,250.088525419
181.337,249.973342269
181.352,249.857700801
181.367,249.741602083
181.382,249.625047283
181.397,249.508037594
181.412,249.390574295
181.427,249.272658706
181.442,249.154292216
181.457,249.03547626
181.472,248.916212364
181.487,248.796502067
181.502,248.676347013
181.517,248.555748855
181.532,248.434709336
181.547,248.313230241
181.562,248.191313408
181.577,248.068960749
181.592,247.946174188
181.607,247.822955736
181.622,247.699307447
181.637,247.575231439
181.652,247.450729867
181.667,247.325804967
181.682,247.200458975
181.697,247.074694232
181.712,246.948513129
181.727,246.821918079
181.742,246.694911594
181.757,246.567496221
181.772,246.439674556
181.787,246.31144931
181.802,246.1828232
181.817,246.053799045
181.832,245.924379732
181.847,245.794568222
181.862,245.664367554
181.877,245.533780881
181.892,245.402811383
181.907,245.271462433
181.922,245.139737417
181.937,245.007639918
181.952,244.875173572
181.967,244.74234218
181.982,244.609149701
181.997,244.475600218
182.012,244.341697991
182.027,244.207447477
182.042,244.072853308
182.057,243.93792033
182.06,243.910893523
182.072,243.802653621
182.087,243.667058515
182.102,243.531140588
182.117,243.394905707
182.132,243.258360061
182.147,243.121510182
182.162,242.984362902
182.177,242.846925513
182.192,242.709205645
182.207,242.571211419
182.222,242.432951421
182.237,242.294434735
182.252,242.155670969
182.267,242.016670341
182.282,241.877443665
182.297,241.738002395
182.312,241.598358717
182.327,241.458525533
182.342,241.318516505
182.357,241.178346179
182.372,241.038029913
182.387,240.897584032
182.402,240.757025804
182.417,240.616373519
182.432,240.475646563
182.447,240.334865414
182.462,240.194051705
182.477,240.053228312
182.492,239.912419349
182.507,239.771650258
182.522,239.630947807
182.537,239.490340165
182.552,239.349856883
182.567,239.209529021
182.582,239.069389003
182.597,238.929470813
182.612,238.789809847
182.627,238.650442984
182.642,238.5114085
182.657,238.372746059
182.672,238.234496603
182.687,238.096702263
182.702,237.959406263
182.717,237.822652666
182.732,237.686486272
182.747,237.550952236
182.762,237.416095826
182.777,237.281962023
182.792,237.148594937
182.807,237.016037384
182.822,236.88433007
182.837,236.753510841
182.852,236.623613598
182.867,236.494667184
182.882,236.36669396
182.897,236.239708047
182.912,236.113713411
182.927,235.988701318
182.942,235.864647546
182.957,235.741508783
182.972,235.619218521
182.987,235.497681896
183.002,235.376769496
183.017,235.256309936
183.032,235.136080625
183.047,235.015796592
183.062,234.895096806
183.077,234.773527537
183.092,234.650522228
183.107,234.525377543
183.122,234.397225781
183.137,234.265005192
183.152,234.12743247
183.167,233.982988482
183.182,233.829941648
183.197,233.66646225
183.212,233.490938738
183.227,233.302719089
183.242,233.103688536
183.257,232.901269429
183.367,232.941844366
183.382,233.141309076
183.397,233.33471781
183.412,233.516466309
183.427,233.685543659
183.442,233.842956195
183.457,233.990418765
183.472,234.129753761
183.487,234.262642639
183.502,234.390542635
183.517,234.514676697
183.532,234.636052774
183.547,234.755492507
183.562,234.873660706
183.577,234.991092027
183.592,235.108213871
183.607,235.225365583
183.622,235.342814307
183.637,235.460767916
183.652,235.579385661
183.667,235.698786854
183.682,235.819058066
183.697,235.940258853
183.712,236.062426769
183.727,236.185581267
183.742,236.309727061
183.757,236.434856866
183.772,236.560953773
183.787,236.687993127
183.802,236.815944172
183.817,236.944771364
183.832,237.074435575
183.847,237.204894982
183.862,237.336105879
183.877,237.468023371
183.892,237.600601906
183.907,237.733795694
183.922,237.867559159
183.937,238.00184722
183.952,238.136615505
183.967,238.271820615
183.982,238.407420226
183.997,238.543373283
184.012,238.679640037
184.027,238.816182141
184.042,238.952962658
184.057,239.089946165
184.072,239.227098691
184.087,239.364387761
184.102,239.501782372
184.117,239.639252959
184.132,239.776771416
184.147,239.914310966
184.162,240.05184626
184.177,240.189353214
184.192,240.326809015
184.207,240.464192107
184.222,240.601482051
184.237,240.738659589
184.252,240.875706503
184.267,241.012605624
184.282,241.149340763
184.297,241.285896632
184.312,241.422258864
184.327,241.558413909
184.342,241.694349012
184.357,241.830052169
184.372,241.965512102
184.387,242.100718153
184.402,242.235660334
184.417,242.370329232
184.432,242.504715983
184.447,242.63881224
184.462,242.772610159
184.477,242.906102305
184.492,243.039281736
184.507,243.172141855
184.522,243.304676444
184.537,243.436879626
184.552,243.568745871
184.56,243.638934938
184.567,243.700269931
184.582,243.831446805
184.597,243.962271803
184.612,244.092740433
184.627,244.22284844
184.642,244.352591777
184.657,244.481966574
184.672,244.610969152
184.687,244.73959599
184.702,244.86784372
184.717,244.995709087
184.732,245.123189032
184.747,245.250280548
184.762,245.376980776
184.777,245.503286948
184.792,245.629196398
184.807,245.754706551
184.822,245.879814928
184.837,246.004519112
184.852,246.128816762
184.867,246.252705615
184.882,246.376183487
184.897,246.499248241
184.912,246.621897779
184.927,246.744130114
184.942,246.865943279
184.957,246.987335368
184.972,247.108304527
184.987,247.228848956
185.002,247.348966901
185.017,247.468656669
185.032,247.5879166
185.047,247.706745089
185.062,247.825140576
185.077,247.943101548
185.092,248.060626545
185.107,248.177714155
185.122,248.294362999
185.137,248.410571773
185.152,248.526339184
185.167,248.641664009
185.182,248.756545079
185.197,248.87098127
185.212,248.984971484
185.227,249.098514713
185.242,249.211609967
185.257,249.324256309
185.272,249.436452872
185.287,249.548198822
185.302,249.659493394
185.31,249.718665678
185.317,249.770335853
185.332,249.880725537
185.347,249.990661821
185.362,250.100144125
185.377,250.209171977
185.392,250.317744868
185.407,250.425862448
185.422,250.533524316
185.437,250.640730193
185.452,250.747479833
185.467,250.853773053
185.482,250.959609698
185.497,251.064989693
185.512,251.169913017
185.527,251.274379682
185.542,251.378389768
185.557,251.481943407
185.572,251.585040787
185.587,251.687682127
185.602,251.789867725
185.617,251.891597907
185.632,251.992873067
185.647,252.093693659
185.662,252.194060147
185.677,252.29397308
185.692,252.393433056
185.707,252.492440695
185.722,252.590996684
185.737,252.689101766
185.752,252.786756714
185.767,252.883962339
185.782,252.980719509
185.797,253.077029142
185.812,253.172892197
185.827,253.268309657
185.842,253.363282575
185.857,253.457812023
185.872,253.551899116
185.887,253.645545031
185.902,253.73875094
185.917,253.831518105
185.932,253.92384778
185.947,254.015741274
185.96,254.095030511
185.962,254.107199928
185.977,254.198225118
185.992,254.288818257
186.007,254.378980788
186.022,254.468714176
186.037,254.558019933
186.052,254.646899577
186.06,254.694128355
186.067,254.735354676
186.082,254.823386822
186.097,254.910997622
186.112,254.998188715
186.127,255.084961778
186.142,255.171318504
186.157,255.257260591
186.172,255.342789769
186.187,255.427907813
186.202,255.512616506
186.217,255.596917611
186.232,255.680812966
186.247,255.764304416
186.262,255.847393805
186.277,255.930082978
186.292,256.012373852
186.307,256.094268309
186.322,256.175768256
186.337,256.256875637
186.352,256.33759238
186.367,256.417920429
186.382,256.497861767
186.397,256.577418352
186.412,256.656592169
186.427,256.735385211
186.442,256.813799472
186.457,256.891836977
186.472,256.969499721
186.487,257.046789744
186.502,257.123709056
186.517,257.200259694
186.532,257.276443704
186.547,257.352263131
186.562,257.427720019
186.577,257.502816403
186.592,257.577554351
186.607,257.651935895
186.622,257.725963111
186.637,257.799638045
186.652,257.872962765
186.667,257.945939304
186.682,258.018569737
186.697,258.090856121
186.71,258.153227592
186.712,258.162800492
186.727,258.234404906
186.742,258.30567143
186.757,258.376602092
186.772,258.447198953
186.787,258.517464039
186.802,258.587399388
186.817,258.657007055
186.832,258.726289029
186.847,258.79524737
186.862,258.863884081
186.877,258.932201176
186.892,259.000200672
186.907,259.067884568
186.922,259.135254851
186.937,259.20231352
186.952,259.269062546
186.967,259.335503924
186.982,259.40163961
186.997,259.467471567
187.012,259.533001749
187.027,259.598232096
187.042,259.663164564
187.057,259.727801059
187.072,259.792143503
187.087,259.856193832
187.102,259.919953936
187.117,259.983425689
187.132,260.046611022
187.147,260.109511761
187.162,260.172129797
187.177,260.23446699
187.192,260.296525183
187.207,260.358306197
187.222,260.41981189
187.237,260.481044056
187.252,260.542004506
187.267,260.60269504
187.282,260.66311745
187.297,260.723273502
187.312,260.783164963
187.327,260.84279359
187.342,260.902161122
187.357,260.961269305
187.372,261.020119852
187.387,261.078714471
187.402,261.137054868
187.417,261.195142734
187.432,261.252979739
187.447,261.310567566
187.46,261.360276729
187.462,261.367907865
187.477,261.425002269
187.492,261.481852426
187.507,261.538459957
187.522,261.59482647
187.537,261.650953575
187.552,261.706842857
187.567,261.762495887
187.582,261.817914236
187.597,261.873099472
187.612,261.928053123
187.627,261.982776736
187.642,262.037271819
187.657,262.09153989
187.672,262.145582467
187.687,262.199401005
187.702,262.252997012
187.717,262.306371936
187.732,262.359527233
187.747,262.412464359
187.762,262.465184738
187.777,262.517689799
187.792,262.569980942
187.807,262.622059586
187.822,262.673927103
187.837,262.725584877
187.852,262.777034279
187.867,262.828276664
187.882,262.879313382
187.897,262.930145755
187.912,262.98077513
187.927,263.031202794
187.942,263.081430075
187.957,263.131458248
187.972,263.181288605
187.987,263.230922418
188.002,263.280360938
188.017,263.329605431
188.032,263.378657124
188.047,263.427517259
188.062,263.476187051
188.077,263.524667718
188.092,263.572960441
188.107,263.621066423
188.122,263.668986855
188.137,263.71672289
188.152,263.764275694
188.167,263.811646412
188.182,263.85883619
188.197,263.905846156
188.21,263.946443554
188.212,263.952677441
188.227,263.99933115
188.242,264.045808379
188.257,264.092110242
188.272,264.138237792
188.287,264.184192124
188.302,264.229974302
188.317,264.275585376
188.332,264.321026391
188.347,264.366298393
188.362,264.411402405
188.377,264.456339433
188.392,264.501110519
188.407,264.545716652
188.422,264.590158803
188.437,264.634437983
188.452,264.678555161
188.467,264.722511299
188.482,264.766307366
188.497,264.809944304
188.512,264.85342305
188.527,264.89674455
188.542,264.939909724
188.557,264.982919485
188.572,265.025774752
188.587,265.068476415
188.602,265.11102537
188.617,265.153422512
188.632,265.195668711
188.647,265.237764829
188.66,265.274127405
188.662,265.279711738
188.677,265.32151028
188.692,265.36316133
188.707,265.40466569
188.722,265.446024212
188.737,265.487237727
