# 78954 TBPB Grantley Adams Observations at 12Z 06 Jan 2019
Frequency [GHz],TB
175.31,286.058395189
175.322,286.049673883
175.337,286.038730375
175.352,286.027740431
175.367,286.016704148
175.382,286.005621625
175.397,285.994492961
175.412,285.983318256
175.427,285.972097607
175.442,285.960831115
175.457,285.94951888
175.472,285.938161001
175.487,285.926757578
175.502,285.915308711
175.517,285.9038145
175.532,285.892275047
175.547,285.88069045
175.562,285.869060811
175.577,285.85738623
175.592,285.845666806
175.607,285.833902641
175.622,285.822093834
175.637,285.810240486
175.652,285.798342696
175.667,285.786400565
175.682,285.774414192
175.697,285.762383676
175.712,285.750309116
175.727,285.738190613
175.742,285.726028263
175.757,285.713822166
175.772,285.701572419
175.787,285.68927912
175.802,285.676942367
175.817,285.664562255
175.832,285.652138882
175.847,285.639672344
175.862,285.627162735
175.877,285.61461015
175.892,285.602014684
175.907,285.589376431
175.922,285.576695482
175.937,285.563971932
175.952,285.55120587
175.967,285.538397389
175.982,285.525546578
175.997,285.512653526
176.012,285.499718323
176.027,285.486741056
176.042,285.473721811
176.057,285.460660676
176.072,285.447557733
176.087,285.434413069
176.102,285.421226765
176.117,285.407998904
176.132,285.394729567
176.147,285.381418832
176.162,285.36806678
176.177,285.354673487
176.192,285.34123903
176.207,285.327763484
176.222,285.314246922
176.237,285.300689417
176.252,285.28709104
176.267,285.27345186
176.282,285.259771947
176.297,285.246051367
176.31,285.234127353
176.312,285.232290185
176.327,285.218488465
176.342,285.20464627
176.357,285.190763661
176.372,285.176840696
176.387,285.162877432
176.402,285.148873927
176.417,285.134830234
176.432,285.120746404
176.447,285.10662249
176.46,285.094349377
176.462,285.092458538
176.477,285.078254597
176.492,285.064010711
176.507,285.049726923
176.522,285.035403274
176.537,285.021039804
176.552,285.006636548
176.567,284.992193541
176.582,284.977710818
176.597,284.963188407
176.612,284.948626337
176.627,284.934024635
176.642,284.919383324
176.657,284.904702426
176.672,284.88998196
176.687,284.875221942
176.702,284.860422387
176.717,284.845583307
176.732,284.830704711
176.747,284.815786606
176.762,284.800828996
176.777,284.785831883
176.792,284.770795266
176.807,284.75571914
176.822,284.7406035
176.837,284.725448335
176.852,284.710253635
176.867,284.695019384
176.882,284.679745564
176.897,284.664432154
176.912,284.64907913
176.927,284.633686466
176.942,284.618254132
176.957,284.602782095
176.972,284.587270318
176.987,284.571718762
177.002,284.556127386
177.017,284.540496142
177.032,284.524824982
177.047,284.509113853
177.062,284.4933627
177.077,284.477571463
177.092,284.46174008
177.107,284.445868483
177.122,284.429956604
177.137,284.414004368
177.152,284.398011699
177.167,284.381978515
177.182,284.365904733
177.197,284.349790264
177.21,284.335791408
177.212,284.333635015
177.227,284.317438891
177.242,284.301201792
177.257,284.284923613
177.272,284.268604247
177.287,284.252243582
177.302,284.235841501
177.31,284.227076749
177.317,284.219397885
177.332,284.202912609
177.347,284.186385545
177.362,284.169816558
177.377,284.153205513
177.392,284.136552267
177.407,284.119856675
177.422,284.103118585
177.437,284.086337843
177.452,284.069514289
177.467,284.052647758
177.482,284.035738082
177.497,284.018785087
177.512,284.001788594
177.527,283.984748419
177.542,283.967664376
177.557,283.950536269
177.572,283.933363902
177.587,283.916147071
177.602,283.898885568
177.617,283.881579178
177.632,283.864227684
177.647,283.846830861
177.66,283.831716771
177.662,283.82938848
177.677,283.811900306
177.692,283.794366099
177.707,283.776785614
177.722,283.759158599
177.737,283.741484797
177.752,283.723763946
177.767,283.705995777
177.782,283.688180017
177.797,283.670316385
177.812,283.652404595
177.827,283.634444356
177.842,283.616435369
177.857,283.598377331
177.872,283.580269931
177.887,283.562112852
177.902,283.543905771
177.917,283.52564836
177.932,283.507340282
177.947,283.488981195
177.96,283.473028456
177.962,283.47057075
177.977,283.452108591
177.992,283.433594356
178.007,283.415027676
178.022,283.396408173
178.037,283.377735466
178.052,283.359009163
178.067,283.340228867
178.082,283.321394173
178.097,283.30250467
178.112,283.283559937
178.127,283.264559549
178.142,283.245503069
178.157,283.226390057
178.172,283.207220061
178.187,283.187992624
178.202,283.168707281
178.217,283.149363557
178.232,283.129960971
178.247,283.110499032
178.262,283.090977243
178.277,283.071395095
178.292,283.051752073
178.307,283.032047654
178.322,283.012281305
178.337,282.992452484
178.352,282.972560641
178.367,282.952605215
178.382,282.932585639
178.397,282.912501334
178.41,282.895042124
178.412,282.892351712
178.427,282.872136178
178.442,282.851854125
178.457,282.831504935
178.472,282.811087984
178.487,282.790602636
178.502,282.770048243
178.517,282.74942415
178.532,282.728729691
178.547,282.707964188
178.562,282.687126953
178.577,282.666217288
178.592,282.645234483
178.607,282.624177819
178.622,282.603046563
178.637,282.581839973
178.652,282.560557295
178.667,282.539197762
178.682,282.517760598
178.697,282.496245012
178.712,282.474650204
178.727,282.452975359
178.742,282.431219652
178.757,282.409382243
178.772,282.387462283
178.787,282.365458906
178.802,282.343371235
178.817,282.321198381
178.832,282.29893944
178.847,282.276593494
178.862,282.254159613
178.877,282.231636852
178.892,282.209024252
178.907,282.18632084
178.922,282.163525628
178.937,282.140637615
178.952,282.117655783
178.967,282.0945791
178.982,282.07140652
178.997,282.048136978
179.012,282.024769398
179.027,282.001302684
179.042,281.977735726
179.057,281.954067398
179.072,281.930296556
179.087,281.90642204
179.102,281.882442675
179.117,281.858357265
179.132,281.834164599
179.147,281.809863448
179.16,281.788713734
179.162,281.785452565
179.177,281.760930684
179.192,281.736296523
179.207,281.711548778
179.222,281.686686129
179.237,281.661707235
179.252,281.636610736
179.267,281.611395254
179.282,281.586059387
179.297,281.560601718
179.312,281.535020805
179.327,281.509315187
179.342,281.483483382
179.357,281.457523887
179.372,281.431435177
179.387,281.405215704
179.402,281.378863898
179.417,281.352378168
179.432,281.325756899
179.447,281.298998452
179.462,281.272101166
179.477,281.245063355
179.492,281.217883309
179.507,281.190559294
179.522,281.16308955
179.537,281.135472293
179.552,281.107705713
179.567,281.079787974
179.582,281.051717214
179.597,281.023491543
179.612,280.995109046
179.627,280.96656778
179.642,280.937865772
179.657,280.909001024
179.672,280.879971508
179.687,280.850775167
179.702,280.821409915
179.717,280.791873636
179.732,280.762164183
179.747,280.732279381
179.762,280.70221702
179.777,280.671974862
179.792,280.641550637
179.807,280.610942039
179.822,280.580146734
179.837,280.549162351
179.852,280.517986488
179.867,280.486616707
179.882,280.455050536
179.897,280.423285468
179.91,280.395592893
179.912,280.391318961
179.927,280.359148436
179.942,280.326771277
179.957,280.294184832
179.972,280.261386411
179.987,280.228373286
180.002,280.19514269
180.017,280.161691816
180.032,280.12801782
180.047,280.094117815
180.062,280.059988874
180.077,280.02562803
180.092,279.991032271
180.107,279.956198545
180.122,279.921123757
180.137,279.885804766
180.152,279.850238389
180.167,279.814421397
180.182,279.778350515
180.197,279.742022423
180.212,279.705433754
180.227,279.668581092
180.242,279.631460975
180.257,279.594069891
180.272,279.556404278
180.287,279.518460525
180.302,279.480234971
180.317,279.441723901
180.332,279.40292355
180.347,279.363830099
180.362,279.324439674
180.377,279.28474835
180.392,279.244752144
180.407,279.204447017
180.422,279.163828875
180.437,279.122893567
180.452,279.08163688
180.467,279.040054545
180.482,278.998142232
180.497,278.955895552
180.512,278.913310051
180.527,278.870381215
180.542,278.827104466
180.557,278.783475162
180.56,278.774706581
180.572,278.739488594
180.587,278.69513999
180.602,278.650424508
180.617,278.60533724
180.632,278.559873208
180.647,278.514027364
180.66,278.473981501
180.662,278.467794589
180.677,278.421169693
180.692,278.374147411
180.707,278.326722406
180.722,278.278889264
180.737,278.230642496
180.752,278.181976534
180.767,278.132885733
180.782,278.083364367
180.797,278.033406629
180.812,277.98300663
180.827,277.932158397
180.842,277.880855873
180.857,277.829092915
180.872,277.776863292
180.887,277.724160682
180.902,277.670978677
180.917,277.617310773
180.932,277.563150376
180.947,277.508490795
180.962,277.453325243
180.977,277.397646836
180.992,277.341448591
181.007,277.28472342
181.022,277.227464136
181.037,277.169663445
181.052,277.111313948
181.067,277.052408134
181.082,276.992938385
181.097,276.93289697
181.112,276.87227604
181.127,276.811067634
181.142,276.749263668
181.157,276.686855938
181.172,276.623836119
181.187,276.560195755
181.202,276.495926265
181.217,276.431018936
181.232,276.365464922
181.247,276.299255237
181.262,276.232380759
181.277,276.164832224
181.292,276.096600218
181.307,276.027675183
181.31,276.01380616
181.322,275.958047406
181.337,275.88770702
181.352,275.816643999
181.367,275.744848153
181.382,275.672309127
181.397,275.599016394
181.412,275.524959253
181.427,275.450126825
181.442,275.374508045
181.457,275.298091664
181.472,275.220866235
181.487,275.142820118
181.502,275.063941467
181.517,274.984218228
181.532,274.903638133
181.547,274.822188695
181.562,274.739857198
181.577,274.656630697
181.592,274.572496005
181.607,274.48743969
181.622,274.401448066
181.637,274.314507188
181.652,274.22660284
181.667,274.137720529
181.682,274.047845478
181.697,273.956962616
181.712,273.865056566
181.727,273.772111638
181.742,273.67811182
181.757,273.583040765
181.772,273.486881781
181.787,273.389617817
181.802,273.291231456
181.817,273.191704896
181.832,273.091019944
181.847,272.989157995
181.862,272.886100022
181.877,272.781826558
181.892,272.676317683
181.907,272.569553004
181.922,272.461511642
181.937,272.352172206
181.952,272.241512782
181.967,272.129510908
181.982,272.016143551
181.997,271.90138709
182.012,271.785217286
182.027,271.667609262
182.042,271.548537471
182.057,271.427975674
182.06,271.403682154
182.072,271.305896905
182.087,271.182273441
182.102,271.057076771
182.117,270.930277554
182.132,270.801845588
182.147,270.671749764
182.162,270.539958024
182.177,270.406437316
182.192,270.271153539
182.207,270.134071494
182.222,269.995154822
182.237,269.854365941
182.252,269.711665979
182.267,269.567014698
182.282,269.42037041
182.297,269.271689892
182.312,269.120928285
182.327,268.968038988
182.342,268.812973536
182.357,268.655681473
182.372,268.496110203
182.387,268.334204829
182.402,268.169907972
182.417,268.003159567
182.432,267.833896643
182.447,267.662053058
182.462,267.48755922
182.477,267.310341761
182.492,267.130323167
182.507,266.947421365
182.522,266.761549245
182.537,266.572614123
182.552,266.380517119
182.567,266.185152454
182.582,265.986406632
182.597,265.784157509
182.612,265.578273215
182.627,265.368610911
182.642,265.155015347
182.657,264.937317193
182.672,264.715331101
182.687,264.488853444
182.702,264.257659682
182.717,264.021501283
182.732,263.780102108
182.747,263.533154185
182.762,263.280312714
182.777,263.021190203
182.792,262.755349517
182.807,262.48229567
182.822,262.201466065
182.837,261.912218899
182.852,261.61381934
182.867,261.30542301
182.882,260.986056215
182.897,260.654592222
182.912,260.309722744
182.927,259.949923591
182.942,259.573413252
182.957,259.178102862
182.972,258.761535764
182.987,258.320814483
183.002,257.852512652
183.017,257.352569078
183.032,256.816161072
183.047,256.237554366
183.062,255.609928031
183.077,254.925175291
183.092,254.173686547
183.107,253.344131335
183.122,252.423275589
183.137,251.395906029
183.152,250.244996165
183.167,248.952355352
183.182,247.500177601
183.197,245.87417433
183.212,244.069331267
183.227,242.09965533
183.242,240.013117817
183.257,237.911146869
183.367,238.408503443
183.382,240.51209218
183.397,242.568719535
183.412,244.492543974
183.427,246.245924957
183.442,247.820835888
183.457,249.225325808
183.472,250.474936752
183.487,251.587739038
183.502,252.581685964
183.517,253.473345663
183.532,254.277404664
183.547,255.00657954
183.562,255.671728087
183.577,256.28204496
183.592,256.84528101
183.607,257.367956086
183.622,257.855551871
183.637,258.31268015
183.652,258.743226412
183.667,259.150470748
183.682,259.537188791
183.697,259.905735587
183.712,260.258115094
183.727,260.596037717
183.742,260.920967937
183.757,261.234163763
183.772,261.53670946
183.787,261.829542739
183.802,262.113477384
183.817,262.389222131
183.832,262.657396441
183.847,262.918543716
183.862,263.173142393
183.877,263.421615277
183.892,263.664337415
183.907,263.901642747
183.922,264.133829741
183.937,264.361166174
183.952,264.5838932
183.967,264.802228821
183.982,265.016370842
183.997,265.226499413
184.012,265.432779198
184.027,265.635361245
184.042,265.834384595
184.057,266.029977667
184.072,266.222259463
184.087,266.411340602
184.102,266.597324225
184.117,266.78030678
184.132,266.960378704
184.147,267.137625021
184.162,267.312125867
184.177,267.483956945
184.192,267.653189934
184.207,267.819892836
184.222,267.9841303
184.237,268.14596389
184.252,268.305452341
184.267,268.462651771
184.282,268.617615882
184.297,268.770396135
184.312,268.921041903
184.327,269.069600617
184.342,269.216117893
184.357,269.360637644
184.372,269.503202189
184.387,269.643852344
184.402,269.782627514
184.417,269.919565767
184.432,270.054703908
184.447,270.18807755
184.462,270.31972117
184.477,270.44966817
184.492,270.577950926
184.507,270.704600842
184.522,270.829648391
184.537,270.953123159
184.552,271.075053887
184.56,271.139461942
184.567,271.195468503
184.582,271.314394164
184.597,271.43185728
184.612,271.547883555
184.627,271.662498006
184.642,271.775724998
184.657,271.887588267
184.672,271.998110943
184.687,272.107315577
184.702,272.21522416
184.717,272.321858146
184.732,272.42723847
184.747,272.531385568
184.762,272.634319397
184.777,272.736059446
184.792,272.836624762
184.807,272.936033956
184.822,273.034305224
184.837,273.131456359
184.852,273.227504765
184.867,273.322467471
184.882,273.41636114
184.897,273.509202087
184.912,273.601006283
184.927,273.691789373
184.942,273.78156668
184.957,273.870353221
184.972,273.958163711
184.987,274.045012577
185.002,274.130913963
185.017,274.215881742
185.032,274.299929519
185.047,274.383070644
185.062,274.465318218
185.077,274.546685098
185.092,274.627183906
185.107,274.706827034
185.122,274.785626652
185.137,274.863594714
185.152,274.940742961
185.167,275.01708293
185.182,275.092625959
185.197,275.167383188
185.212,275.241365571
185.227,275.314583875
185.242,275.387048687
185.257,275.458770418
185.272,275.529759307
185.287,275.600025425
185.302,275.669578681
185.31,275.706385641
185.317,275.738428823
185.332,275.806585442
185.347,275.874057979
185.362,275.940855724
185.377,276.00698782
185.392,276.07246327
185.407,276.137290935
185.422,276.201479541
185.437,276.265037679
185.452,276.32797381
185.467,276.390296265
185.482,276.452013251
185.497,276.513132851
185.512,276.573663027
185.527,276.633611622
185.542,276.692986365
185.557,276.751794867
185.572,276.810044632
185.587,276.867743049
185.602,276.924897404
185.617,276.981514873
185.632,277.037602532
185.647,277.093167351
185.662,277.148216203
185.677,277.202755859
185.692,277.256792997
185.707,277.310334197
185.722,277.363385945
185.737,277.415954638
185.752,277.468046578
185.767,277.519667982
185.782,277.570824976
185.797,277.621523603
185.812,277.671769819
185.827,277.721569496
185.842,277.770928425
185.857,277.819852317
185.872,277.868346801
185.887,277.916417428
185.902,277.964069674
185.917,278.011308936
185.932,278.058140538
185.947,278.104569728
185.96,278.144486857
185.962,278.150601685
185.977,278.196241512
185.992,278.241494244
186.007,278.286364847
186.022,278.330858217
186.037,278.374979181
186.052,278.418732504
186.06,278.441918908
186.067,278.46212288
186.082,278.505154943
186.097,278.54783326
186.112,278.590162336
186.127,278.632146616
186.142,278.67379048
186.157,278.715098252
186.172,278.756074193
186.187,278.796722509
186.202,278.837047345
186.217,278.877052791
186.232,278.91674288
186.247,278.95612159
186.262,278.995192845
186.277,279.033960514
186.292,279.072428414
186.307,279.110600308
186.322,279.14847991
186.337,279.186070881
186.352,279.223376832
186.367,279.260401325
186.382,279.297147874
186.397,279.333619943
186.412,279.369820948
186.427,279.405754262
186.442,279.441423207
186.457,279.476831063
186.472,279.511981063
186.487,279.546876396
186.502,279.581520208
186.517,279.615915601
186.532,279.650065635
186.547,279.683973327
186.562,279.717641654
186.577,279.751073552
186.592,279.784271915
186.607,279.8172396
186.622,279.849979421
186.637,279.882494157
186.652,279.914786547
186.667,279.946859293
186.682,279.97871506
186.697,280.010356475
186.71,280.037607653
186.712,280.041786131
186.727,280.073006584
186.742,280.104020355
186.757,280.134829931
186.772,280.165437764
186.787,280.195846272
186.802,280.226057842
186.817,280.256074826
186.832,280.285899544
186.847,280.315534285
186.862,280.344981305
186.877,280.374242831
186.892,280.403321057
186.907,280.43221815
186.922,280.460936244
186.937,280.489477445
186.952,280.51784383
186.967,280.546037449
186.982,280.57406032
186.997,280.601914438
187.012,280.629601766
187.027,280.657124243
187.042,280.68448378
187.057,280.711682262
187.072,280.73872155
187.087,280.765603475
187.102,280.792329848
187.117,280.81890245
187.132,280.845323043
187.147,280.871593359
187.162,280.897715111
187.177,280.923689985
187.192,280.949519646
187.207,280.975205736
187.222,281.000749873
187.237,281.026153654
187.252,281.051418653
187.267,281.076546423
187.282,281.101538496
187.297,281.126396383
187.312,281.151121573
187.327,281.175715535
187.342,281.200179719
187.357,281.224515555
187.372,281.24872445
187.387,281.272807796
187.402,281.296766964
187.417,281.320603306
187.432,281.344318156
187.447,281.367912829
187.46,281.388265338
187.462,281.391388622
187.477,281.414746814
187.492,281.437988669
187.507,281.461115429
187.522,281.484128323
187.537,281.507028561
187.552,281.529817337
187.567,281.552495829
187.582,281.575065198
187.597,281.597526589
187.612,281.619881132
187.627,281.642129942
187.642,281.664274116
187.657,281.68631474
187.672,281.708252881
187.687,281.730089594
187.702,281.751825919
187.717,281.773462882
187.732,281.795001492
187.747,281.816442749
187.762,281.837787635
187.777,281.859037121
187.792,281.880192164
187.807,281.901253707
187.822,281.922222682
187.837,281.943100006
187.852,281.963886584
187.867,281.98458331
187.882,282.005191065
187.897,282.025710716
187.912,282.046143121
187.927,282.066489123
187.942,282.086749557
187.957,282.106925244
187.972,282.127016995
187.987,282.147025608
188.002,282.166951872
188.017,282.186796564
188.032,282.206560451
188.047,282.22624429
188.062,282.245848825
188.077,282.265374792
188.092,282.284822916
188.107,282.304193913
188.122,282.323488489
188.137,282.342707337
188.152,282.361851146
188.167,282.38092059
188.182,282.399916338
188.197,282.418839048
188.21,282.43518015
188.212,282.437689367
188.227,282.456467936
188.242,282.475175387
188.257,282.493812341
188.272,282.512379412
188.287,282.530877204
188.302,282.549306316
188.317,282.567667335
188.332,282.585960841
188.347,282.604187407
188.362,282.622347596
188.377,282.640441966
188.392,282.658471065
188.407,282.676435433
188.422,282.694335605
188.437,282.712172105
188.452,282.729945454
188.467,282.747656161
188.482,282.765304731
188.497,282.782891662
188.512,282.800417443
188.527,282.817882557
188.542,282.835287482
188.557,282.852632687
188.572,282.869918634
188.587,282.887145782
188.602,282.904314578
188.617,282.921425469
188.632,282.93847889
188.647,282.955475274
188.66,282.970159665
188.662,282.972415046
188.677,282.989298624
188.692,283.006126422
188.707,283.022898847
188.722,283.039616301
188.737,283.05627918
