# 01004 ENAS Ny-Alesund Ii Observations at 12Z 23 Jan 2019
Frequency [GHz],TB
175.31,199.752831947
175.322,199.818272986
175.337,199.900323421
175.352,199.982651501
175.367,200.065258117
175.382,200.148144155
175.397,200.231310505
175.412,200.314758052
175.427,200.398487683
175.442,200.482500283
175.457,200.566796739
175.472,200.651377932
175.487,200.736244748
175.502,200.821398068
175.517,200.906838773
175.532,200.992567744
175.547,201.078585859
175.562,201.164893995
175.577,201.251493029
175.592,201.338383836
175.607,201.425567288
175.622,201.513044258
175.637,201.600815614
175.652,201.688882224
175.667,201.777244955
175.682,201.865904671
175.697,201.954862234
175.712,202.044118503
175.727,202.133674335
175.742,202.223530586
175.757,202.313688108
175.772,202.404147751
175.787,202.494910362
175.802,202.585976786
175.817,202.677347864
175.832,202.769024435
175.847,202.861007333
175.862,202.953297391
175.877,203.045895437
175.892,203.138802298
175.907,203.232018792
175.922,203.32554574
175.937,203.419383954
175.952,203.513534245
175.967,203.607997419
175.982,203.702774276
175.997,203.797865615
176.012,203.893272228
176.027,203.988994902
176.042,204.085034423
176.057,204.181391565
176.072,204.278067106
176.087,204.375061811
176.102,204.472376444
176.117,204.570011762
176.132,204.667968515
176.147,204.766247451
176.162,204.86484931
176.177,204.963774822
176.192,205.063024718
176.207,205.162599717
176.222,205.262500533
176.237,205.362727876
176.252,205.463282444
176.267,205.564164931
176.282,205.665376023
176.297,205.766916399
176.31,205.855184931
176.312,205.868786729
176.327,205.970987677
176.342,206.073519898
176.357,206.176384038
176.372,206.279580736
176.387,206.383110621
176.402,206.486974315
176.417,206.591172429
176.432,206.695705566
176.447,206.800574319
176.46,206.891732498
176.462,206.905779271
176.477,207.011320997
176.492,207.11720006
176.507,207.223417014
176.522,207.329972401
176.537,207.436866752
176.552,207.544100592
176.567,207.651674428
176.582,207.759588759
176.597,207.867844072
176.612,207.976440841
176.627,208.085379532
176.642,208.194660592
176.657,208.30428446
176.672,208.414251561
176.687,208.524562308
176.702,208.635217097
176.717,208.746216313
176.732,208.857560327
176.747,208.969249496
176.762,209.081284161
176.777,209.19366465
176.792,209.306391274
176.807,209.419464331
176.822,209.5328841
176.837,209.646650847
176.852,209.760764822
176.867,209.875226256
176.882,209.990035364
176.897,210.105192345
176.912,210.22069738
176.927,210.336550631
176.942,210.452752243
176.957,210.569302343
176.972,210.686201039
176.987,210.803448419
177.002,210.921044551
177.017,211.038989486
177.032,211.157283252
177.047,211.275925858
177.062,211.394917292
177.077,211.51425752
177.092,211.633946488
177.107,211.753984118
177.122,211.874370312
177.137,211.995104947
177.152,212.116187877
177.167,212.237618936
177.182,212.359397931
177.197,212.481524644
177.21,212.587648876
177.212,212.603998835
177.227,212.726820239
177.242,212.849988562
177.257,212.973503487
177.272,213.09736467
177.287,213.221571743
177.302,213.346124305
177.31,213.41269346
177.317,213.471021933
177.332,213.596264172
177.347,213.721850541
177.362,213.847780529
177.377,213.974053598
177.392,214.100669175
177.407,214.227626663
177.422,214.354925429
177.437,214.482564813
177.452,214.61054412
177.467,214.738862625
177.482,214.867519569
177.497,214.99651416
177.512,215.125845575
177.527,215.255512952
177.542,215.385515399
177.557,215.515851986
177.572,215.646521749
177.587,215.777523687
177.602,215.908856762
177.617,216.0405199
177.632,216.172511988
177.647,216.304831876
177.66,216.419773346
177.662,216.437478373
177.677,216.570450251
177.692,216.70374624
177.707,216.837365032
177.722,216.971305277
177.737,217.105565581
177.752,217.240144512
177.767,217.375040591
177.782,217.510252299
177.797,217.64577807
177.812,217.781616299
177.827,217.917765328
177.842,218.054223459
177.857,218.190988949
177.872,218.32806
177.887,218.465434776
177.902,218.603111387
177.917,218.741087895
177.932,218.879362316
177.947,219.017932612
177.96,219.138264586
177.962,219.156796696
177.977,219.295952429
177.992,219.435397622
178.007,219.575130032
178.022,219.715147362
178.037,219.855447263
178.052,219.996027331
178.067,220.136885106
178.082,220.278018073
178.097,220.41942366
178.112,220.561099239
178.127,220.703042123
178.142,220.845249566
178.157,220.987718765
178.172,221.130446856
178.187,221.273430913
178.202,221.416667953
178.217,221.560154925
178.232,221.703888723
178.247,221.847866171
178.262,221.992084033
178.277,222.136539006
178.292,222.281227725
178.307,222.426146756
178.322,222.571292598
178.337,222.716661687
178.352,222.862250385
178.367,223.00805499
178.382,223.154071729
178.397,223.300296757
178.41,223.427190576
178.412,223.446726162
178.427,223.593355957
178.442,223.740182085
178.457,223.887200415
178.472,224.034406743
178.487,224.181796791
178.502,224.329366204
178.517,224.477110555
178.532,224.625025337
178.547,224.773105969
178.562,224.92134779
178.577,225.069746063
178.592,225.21829597
178.607,225.366992615
178.622,225.515831021
178.637,225.664806129
178.652,225.813912801
178.667,225.963145814
178.682,226.112499863
178.697,226.261969562
178.712,226.411549437
178.727,226.561233932
178.742,226.711017404
178.757,226.860894127
178.772,227.010858283
178.787,227.160903974
178.802,227.311025208
178.817,227.461215909
178.832,227.611469909
178.847,227.761780956
178.862,227.912142701
178.877,228.062548709
178.892,228.212992455
178.907,228.36346732
178.922,228.513966594
178.937,228.664483476
178.952,228.815011071
178.967,228.965542391
178.982,229.116070354
178.997,229.266587785
179.012,229.417087415
179.027,229.56756188
179.042,229.718003718
179.057,229.868405377
179.072,230.018759204
179.087,230.169057453
179.102,230.319292282
179.117,230.46945575
179.132,230.619539822
179.147,230.769536365
179.16,230.899456208
179.162,230.919437148
179.177,231.069233844
179.192,231.218918027
179.207,231.368481175
179.222,231.517914669
179.237,231.667209789
179.252,231.816357722
179.267,231.965349553
179.282,232.114176272
179.297,232.26282877
179.312,232.411297843
179.327,232.559574185
179.342,232.707648398
179.357,232.855510983
179.372,233.003152348
179.387,233.150562799
179.402,233.297732552
179.417,233.444651722
179.432,233.591310332
179.447,233.737698308
179.462,233.883805483
179.477,234.029621594
179.492,234.175136284
179.507,234.320339106
179.522,234.465219518
179.537,234.609766885
179.552,234.753970486
179.567,234.897819504
179.582,235.041303034
179.597,235.184410086
179.612,235.327129577
179.627,235.46945034
179.642,235.611361122
179.657,235.752850584
179.672,235.893907304
179.687,236.034519777
179.702,236.174676417
179.717,236.314365558
179.732,236.453575453
179.747,236.59229428
179.762,236.73051014
179.777,236.86821106
179.792,237.005384991
179.807,237.142019815
179.822,237.278103344
179.837,237.413623322
179.852,237.548567424
179.867,237.682923263
179.882,237.816678388
179.897,237.949820288
179.91,238.064704188
179.912,238.082336391
179.927,238.214214071
179.942,238.345440646
179.957,238.476003382
179.972,238.605889494
179.987,238.735086149
180.002,238.86358047
180.017,238.991359536
180.032,239.118410385
180.047,239.244720017
180.062,239.3702754
180.077,239.495063464
180.092,239.619071114
180.107,239.742285226
180.122,239.864692652
180.137,239.986280223
180.152,240.107034752
180.167,240.226943038
180.182,240.345991869
180.197,240.464168023
180.212,240.581458274
180.227,240.697849393
180.242,240.813328156
180.257,240.927881341
180.272,241.041495737
180.287,241.154158144
180.302,241.265855382
180.317,241.376574286
180.332,241.486301719
180.347,241.59502457
180.362,241.702729763
180.377,241.809404253
180.392,241.915035039
180.407,242.019609163
180.422,242.123113715
180.437,242.22553584
180.452,242.326862736
180.467,242.427081668
180.482,242.526179962
180.497,242.624145017
180.512,242.720964307
180.527,242.816625386
180.542,242.91111589
180.557,243.004423546
180.56,243.022942062
180.572,243.096536176
180.587,243.187441697
180.602,243.277128132
180.617,243.365583613
180.632,243.452796382
180.647,243.538754802
180.66,243.612228567
180.662,243.623447358
180.677,243.706862664
180.692,243.788989467
180.707,243.86981665
180.722,243.949333243
180.737,244.027528422
180.752,244.104391518
180.767,244.179912019
180.782,244.25407958
180.797,244.326884023
180.812,244.398315345
180.827,244.468363721
180.842,244.537019515
180.857,244.604273276
180.872,244.670115752
180.887,244.73453789
180.902,244.797530842
180.917,244.859085973
180.932,244.919194861
180.947,244.977849309
180.962,245.035041343
180.977,245.090763222
180.992,245.145007441
181.007,245.197766739
181.022,245.249034099
181.037,245.298802756
181.052,245.347066203
181.067,245.393818194
181.082,245.439052751
181.097,245.482764164
181.112,245.524947004
181.127,245.565596119
181.142,245.604706644
181.157,245.642274005
181.172,245.678293923
181.187,245.712762418
181.202,245.745675814
181.217,245.777030744
181.232,245.806824153
181.247,245.835053302
181.262,245.861715776
181.277,245.886809483
181.292,245.910332661
181.307,245.932283882
181.31,245.936485389
181.322,245.952662054
181.337,245.971466427
181.352,245.988696595
181.367,246.004352502
181.382,246.01843444
181.397,246.030943061
181.412,246.041879374
181.427,246.051244749
181.442,246.059040922
181.457,246.065269998
181.472,246.069934452
181.487,246.073037136
181.502,246.074581275
181.517,246.074570478
181.532,246.073008734
181.547,246.069900419
181.562,246.065250293
181.577,246.059063511
181.592,246.051345617
181.607,246.04210255
181.622,246.031340647
181.637,246.019066641
181.652,246.005287669
181.667,245.990011267
181.682,245.973245379
181.697,245.954998352
181.712,245.935278942
181.727,245.914096314
181.742,245.891460043
181.757,245.867380117
181.772,245.841866936
181.787,245.814931317
181.802,245.78658449
181.817,245.756838103
181.832,245.725704222
181.847,245.693195331
181.862,245.659324335
181.877,245.624104558
181.892,245.587549745
181.907,245.549674062
181.922,245.510492099
181.937,245.470018867
181.952,245.428269799
181.967,245.385260753
181.982,245.341008008
181.997,245.295528266
182.012,245.248838652
182.027,245.200956713
182.042,245.151900416
182.057,245.10168815
182.06,245.091508628
182.072,245.050338723
182.087,244.997871361
182.102,244.944305706
182.117,244.889661814
182.132,244.833960153
182.147,244.777221602
182.162,244.719467442
182.177,244.660719359
182.192,244.600999434
182.207,244.540330141
182.222,244.47873434
182.237,244.41623527
182.252,244.35285654
182.267,244.288622122
182.282,244.223556337
182.297,244.157683848
182.312,244.091029643
182.327,244.023619019
182.342,243.955477567
182.357,243.886631153
182.372,243.817105888
182.387,243.746928113
182.402,243.676124363
182.417,243.604721337
182.432,243.532745859
182.447,243.46022484
182.462,243.387185228
182.477,243.313653955
182.492,243.23965788
182.507,243.165223719
182.522,243.090377969
182.537,243.015146824
182.552,242.939556075
182.567,242.863631005
182.582,242.787396262
182.597,242.710875722
182.612,242.634092332
182.627,242.557067928
182.642,242.479823041
182.657,242.402376662
182.672,242.324745989
182.687,242.246946131
182.702,242.168989775
182.717,242.090886808
182.732,242.012643882
182.747,241.934263922
182.762,241.85574556
182.777,241.777082484
182.792,241.698262694
182.807,241.619267637
182.822,241.540071215
182.837,241.460638626
182.852,241.380925017
182.867,241.300873913
182.882,241.220415364
182.897,241.139463771
182.912,241.057915297
182.927,240.975644795
182.942,240.892502118
182.957,240.808307672
182.972,240.722847016
182.987,240.635864254
183.002,240.54705388
183.017,240.456050629
183.032,240.362416705
183.047,240.265625538
183.062,240.165040857
183.077,240.059889344
183.092,239.949224322
183.107,239.831876625
183.122,239.706386716
183.137,239.570908526
183.152,239.423069347
183.167,239.259759044
183.182,239.076801603
183.197,238.868424644
183.212,238.626375222
183.227,238.338422672
183.242,237.985898668
183.257,237.540372489
183.367,237.650214034
183.382,238.065729287
183.397,238.396578888
183.412,238.668413851
183.427,238.897971024
183.442,239.096281736
183.457,239.270857065
183.472,239.426997831
183.487,239.568569362
183.502,239.69846964
183.517,239.818921738
183.532,239.93166321
183.547,240.038073033
183.562,240.139259377
183.577,240.236121985
183.592,240.329397568
183.607,240.419693524
183.622,240.50751344
183.637,240.593276684
183.652,240.677333657
183.667,240.759977826
183.682,240.841455313
183.697,240.921972614
183.712,241.001702869
183.727,241.080790996
183.742,241.159357932
183.757,241.237504147
183.772,241.315312586
183.787,241.392851145
183.802,241.470174752
183.817,241.547327149
183.832,241.624342399
183.847,241.701246181
183.862,241.778056906
183.877,241.854786675
183.892,241.931442108
183.907,242.008025068
183.922,242.084533283
183.937,242.160960899
183.952,242.237298951
183.967,242.313535786
183.982,242.389657427
183.997,242.465647897
184.012,242.541489503
184.027,242.617163085
184.042,242.692648236
184.057,242.767923497
184.072,242.842966532
184.087,242.917754273
184.102,242.992263061
184.117,243.066468763
184.132,243.140346876
184.147,243.21387262
184.162,243.287021024
184.177,243.359766995
184.192,243.432085385
184.207,243.503951047
184.222,243.575338885
184.237,243.646223901
184.252,243.716581233
184.267,243.786386188
184.282,243.855614276
184.297,243.924241233
184.312,243.99224305
184.327,244.059595988
184.342,244.126276598
184.357,244.192261739
184.372,244.257528591
184.387,244.322054664
184.402,244.385817811
184.417,244.448796237
184.432,244.510968507
184.447,244.572313549
184.462,244.632810663
184.477,244.692439526
184.492,244.751180193
184.507,244.809013102
184.522,244.865919076
184.537,244.921879326
184.552,244.97687545
184.56,245.005806262
184.567,245.030889439
184.582,245.083903671
184.597,245.135900918
184.612,245.186864341
184.627,245.236777493
184.642,245.285624319
184.657,245.333389152
184.672,245.380056716
184.687,245.425612124
184.702,245.470040878
184.717,245.513328863
184.732,245.555462354
184.747,245.596428009
184.762,245.636212869
184.777,245.674804356
184.792,245.712190274
184.807,245.748358805
184.822,245.783298509
184.837,245.816998322
184.852,245.849447552
184.867,245.880635882
184.882,245.910553364
184.897,245.939190421
184.912,245.966537841
184.927,245.992586778
184.942,246.017328749
184.957,246.040755634
184.972,246.06285967
184.987,246.083633455
185.002,246.10306994
185.017,246.121162429
185.032,246.137904579
185.047,246.153290394
185.062,246.167314228
185.077,246.179970775
185.092,246.191255076
185.107,246.201162509
185.122,246.209688789
185.137,246.216829969
185.152,246.222582431
185.167,246.226942888
185.182,246.229908382
185.197,246.231476277
185.212,246.231644261
185.227,246.230410338
185.242,246.227772832
185.257,246.223730377
185.272,246.218281919
185.287,246.211426711
185.302,246.203164309
185.31,246.198182248
185.317,246.193494571
185.332,246.182417654
185.347,246.169934007
185.362,246.156044372
185.377,246.140749779
185.392,246.124051542
185.407,246.105951256
185.422,246.086450793
185.437,246.0655523
185.452,246.043258195
185.467,246.019571162
185.482,245.994494146
185.497,245.968030355
185.512,245.94018325
185.527,245.910956544
185.542,245.880354198
185.557,245.848380418
185.572,245.815039647
185.587,245.780336567
185.602,245.744276091
185.617,245.706863358
185.632,245.668103734
185.647,245.628002801
185.662,245.58656636
185.677,245.543800421
185.692,245.499711201
185.707,245.454305123
185.722,245.407588804
185.737,245.35956906
185.752,245.310252894
185.767,245.259647497
185.782,245.207760241
185.797,245.154598675
185.812,245.100170522
185.827,245.044483673
185.842,244.987546183
185.857,244.92936627
185.872,244.869952305
185.887,244.809312811
185.902,244.747456461
185.917,244.684392069
185.932,244.620128587
185.947,244.554675104
185.96,244.496993295
185.962,244.488040838
185.977,244.420235133
185.992,244.351267456
186.007,244.281147391
186.022,244.209884636
186.037,244.137488999
186.052,244.063970392
186.06,244.024304752
186.067,243.989338829
186.082,243.913604423
186.097,243.836777377
186.112,243.758867986
186.127,243.679886629
186.142,243.599843768
186.157,243.518749939
186.172,243.436615755
186.187,243.353451898
186.202,243.269269116
186.217,243.184078218
186.232,243.097890072
186.247,243.010715604
186.262,242.922565788
186.277,242.833451645
186.292,242.743384245
186.307,242.652374694
186.322,242.560434137
186.337,242.467573754
186.352,242.373804755
186.367,242.279138377
186.382,242.183585881
186.397,242.087158549
186.412,241.989867682
186.427,241.891724594
186.442,241.792740613
186.457,241.692927073
186.472,241.592295315
186.487,241.490856683
186.502,241.388622523
186.517,241.285604175
186.532,241.181812975
186.547,241.077260252
186.562,240.971957322
186.577,240.865915491
186.592,240.759146047
186.607,240.65166026
186.622,240.54346938
186.637,240.434584635
186.652,240.325017226
186.667,240.214778327
186.682,240.103879085
186.697,239.992330611
186.71,239.895138677
186.712,239.880143986
186.727,239.767330254
186.742,239.653900419
186.757,239.539865449
186.772,239.425236268
186.787,239.310023757
186.802,239.194238754
186.817,239.077892047
186.832,238.960994376
186.847,238.843556434
186.862,238.725588858
186.877,238.607102236
186.892,238.488107098
186.907,238.368613919
186.922,238.248633117
186.937,238.128175051
186.952,238.00725002
186.967,237.885868261
186.982,237.764039949
186.997,237.641775196
187.012,237.519084048
187.027,237.395976486
187.042,237.272462425
187.057,237.148551711
187.072,237.02425412
187.087,236.899579361
187.102,236.774537071
187.117,236.649136817
187.132,236.523388092
187.147,236.397300317
187.162,236.270882841
187.177,236.144144938
187.192,236.017095805
187.207,235.889744567
187.222,235.762100271
187.237,235.634171888
187.252,235.505968312
187.267,235.377498361
187.282,235.248770773
187.297,235.119794209
187.312,234.990577252
187.327,234.861128404
187.342,234.731456091
187.357,234.601568656
187.372,234.471474366
187.387,234.341181405
187.402,234.210697878
187.417,234.080031811
187.432,233.949191149
187.447,233.818183754
187.46,233.704515163
187.462,233.687017412
187.477,233.555699824
187.492,233.424238613
187.507,233.292641322
187.522,233.16091541
187.537,233.029068258
187.552,232.897107167
187.567,232.765039356
187.582,232.632871963
187.597,232.500612047
187.612,232.368266588
187.627,232.235842483
187.642,232.103346553
187.657,231.970785535
187.672,231.838166089
187.687,231.705494797
187.702,231.572778159
187.717,231.4400226
187.732,231.307234463
187.747,231.174420015
187.762,231.041585445
187.777,230.908736862
187.792,230.775880302
187.807,230.643021721
187.822,230.510166999
187.837,230.37732194
187.852,230.244492273
187.867,230.111683651
187.882,229.97890165
187.897,229.846151776
187.912,229.713439456
187.927,229.580770046
187.942,229.448148828
187.957,229.315581009
187.972,229.183071727
187.987,229.050626046
188.002,228.918248958
188.017,228.785945386
188.032,228.653720179
188.047,228.521578119
188.062,228.389523917
188.077,228.257562215
188.092,228.125697585
188.107,227.993934533
188.122,227.862277496
188.137,227.730730844
188.152,227.599298882
188.167,227.467985845
188.182,227.336795906
188.197,227.205733172
188.21,227.092251489
188.212,227.074801684
188.227,226.944005421
188.242,226.813348297
188.257,226.682834164
188.272,226.552466812
188.287,226.422249966
188.302,226.292187295
188.317,226.162282403
188.332,226.032538835
188.347,225.902960076
188.362,225.773549553
188.377,225.644310634
188.392,225.515246627
188.407,225.386360786
188.422,225.257656306
188.437,225.129136324
188.452,225.000803926
188.467,224.872662138
188.482,224.744713934
188.497,224.616962231
188.512,224.489409897
188.527,224.362059742
188.542,224.234914526
188.557,224.107976958
188.572,223.981249694
188.587,223.854735338
188.602,223.728436446
188.617,223.602355522
188.632,223.476495024
188.647,223.350857358
188.66,223.242153452
188.662,223.225444884
188.677,223.100259911
188.692,222.975304704
188.707,222.850581482
188.722,222.726092416
