# 01004 ENAS Ny-Alesund Ii Observations at 12Z 07 May 2019
Frequency [GHz],TB
175.31,233.802539944
175.322,233.872457853
175.337,233.959958513
175.352,234.047573115
175.367,234.135300779
175.382,234.2231406
175.397,234.311091675
175.412,234.399153062
175.427,234.487323834
175.442,234.575603022
175.457,234.663989673
175.472,234.752482783
175.487,234.84108136
175.502,234.929784377
175.517,235.018590815
175.532,235.107499618
175.547,235.196509714
175.562,235.285620038
175.577,235.374829481
175.592,235.464136942
175.607,235.553541292
175.622,235.643041376
175.637,235.732636041
175.652,235.822324103
175.667,235.912104365
175.682,236.00197562
175.697,236.091936639
175.712,236.181986167
175.727,236.272122948
175.742,236.362345694
175.757,236.452653108
175.772,236.543043869
175.787,236.633516645
175.802,236.724070079
175.817,236.814702799
175.832,236.905413418
175.847,236.996200516
175.862,237.087062678
175.877,237.17799844
175.892,237.269006345
175.907,237.360084912
175.922,237.451232625
175.937,237.542447973
175.952,237.633729393
175.967,237.725075332
175.982,237.816484204
175.997,237.907954413
176.012,237.999484314
176.027,238.091072278
176.042,238.182716638
176.057,238.274415702
176.072,238.366167766
176.087,238.457971097
176.102,238.549823952
176.117,238.641724558
176.132,238.733671123
176.147,238.825661834
176.162,238.917694851
176.177,239.009768319
176.192,239.101880361
176.207,239.194029072
176.222,239.28621253
176.237,239.378428795
176.252,239.470675884
176.267,239.562951815
176.282,239.65525457
176.297,239.747582113
176.31,239.827617776
176.312,239.839932381
176.327,239.932303298
176.342,240.024692745
176.357,240.117098597
176.372,240.209518705
176.387,240.301950877
176.402,240.394392923
176.417,240.486842607
176.432,240.579297684
176.447,240.671755878
176.46,240.751887058
176.462,240.764214893
176.477,240.856672396
176.492,240.949126046
176.507,241.041573464
176.522,241.134012252
176.537,241.226439992
176.552,241.318854228
176.567,241.411252489
176.582,241.503632272
176.597,241.59599106
176.612,241.688326289
176.627,241.780635393
176.642,241.872915766
176.657,241.965164778
176.672,242.057379776
176.687,242.149558079
176.702,242.241696974
176.717,242.33379374
176.732,242.425845605
176.747,242.517849785
176.762,242.609803473
176.777,242.701703823
176.792,242.793547967
176.807,242.88533302
176.822,242.97705605
176.837,243.068714111
176.852,243.160304237
176.867,243.251823421
176.882,243.343268627
176.897,243.43463681
176.912,243.525924885
176.927,243.617129724
176.942,243.708248208
176.957,243.79927716
176.972,243.890213392
176.987,243.981053676
177.002,244.07179477
177.017,244.16243339
177.032,244.252966234
177.047,244.343389974
177.062,244.433701248
177.077,244.523896664
177.092,244.61397281
177.107,244.703926251
177.122,244.7937535
177.137,244.883451068
177.152,244.973015426
177.167,245.062443021
177.182,245.15173028
177.197,245.240873583
177.21,245.318011857
177.212,245.329869292
177.227,245.41871375
177.242,245.507403261
177.257,245.595934103
177.272,245.684302542
177.287,245.772504788
177.302,245.860537045
177.31,245.907416762
177.317,245.948395495
177.332,246.036076268
177.347,246.123575489
177.362,246.210889243
177.377,246.298013603
177.392,246.384944594
177.407,246.471678236
177.422,246.558210509
177.437,246.644537373
177.452,246.730654758
177.467,246.816558566
177.482,246.90224468
177.497,246.987708958
177.512,247.072947221
177.527,247.157955277
177.542,247.2427289
177.557,247.327263845
177.572,247.411555842
177.587,247.495600592
177.602,247.579393773
177.617,247.662931044
177.632,247.746208029
177.647,247.82922035
177.66,247.900946854
177.662,247.911963576
177.677,247.994433281
177.692,248.07662499
177.707,248.158534228
177.722,248.240156492
177.737,248.321487243
177.752,248.402521944
177.767,248.483256016
177.782,248.56368487
177.797,248.643803891
177.812,248.72360845
177.827,248.80309389
177.842,248.88225555
177.857,248.961088728
177.872,249.039588721
177.887,249.117750793
177.902,249.195570211
177.917,249.273042205
177.932,249.350161994
177.947,249.42692479
177.96,249.493160049
177.962,249.503325773
177.977,249.579360115
177.992,249.655022978
178.007,249.730309507
178.022,249.805214826
178.037,249.879734057
178.052,249.953862296
178.067,250.027594636
178.082,250.100926154
178.097,250.173851924
178.112,250.246366999
178.127,250.318466426
178.142,250.390145244
178.157,250.461398483
178.172,250.532221162
178.187,250.602608293
178.202,250.672554888
178.217,250.742055947
178.232,250.811106461
178.247,250.879701424
178.262,250.947835826
178.277,251.01550465
178.292,251.082702877
178.307,251.149425487
178.322,251.215667452
178.337,251.281423768
178.352,251.346689402
178.367,251.411459336
178.382,251.475728557
178.397,251.539492049
178.41,251.594340798
178.412,251.60274481
178.427,251.665481829
178.442,251.727698109
178.457,251.78938866
178.472,251.850548501
178.487,251.911172653
178.502,251.971256149
178.517,252.030794036
178.532,252.089781373
178.547,252.148213223
178.562,252.20608467
178.577,252.263390808
178.592,252.320126755
178.607,252.376287626
178.622,252.431868584
178.637,252.486864778
178.652,252.541271393
178.667,252.595083634
178.682,252.648296732
178.697,252.700905921
178.712,252.752906483
178.727,252.804293708
178.742,252.855062926
178.757,252.905209478
178.772,252.954728741
178.787,253.003616128
178.802,253.051867068
178.817,253.099477034
178.832,253.146441531
178.847,253.192756085
178.862,253.238416272
178.877,253.283417695
178.892,253.327756
178.907,253.371426868
178.922,253.414426028
178.937,253.456749228
178.952,253.498392289
178.967,253.539351046
178.982,253.579621406
178.997,253.619199297
179.012,253.658080715
179.027,253.696261682
179.042,253.73373829
179.057,253.770506674
179.072,253.80656302
179.087,253.84190356
179.102,253.876524601
179.117,253.910422479
179.132,253.943593602
179.147,253.976034441
179.16,254.003556427
179.162,254.007741516
179.177,254.038711408
179.192,254.068940762
179.207,254.098426287
179.222,254.127164754
179.237,254.155152994
179.252,254.182387917
179.267,254.20886649
179.282,254.234585751
179.297,254.259542804
179.312,254.283734838
179.327,254.307159088
179.342,254.329812887
179.357,254.351693634
179.372,254.372798801
179.387,254.393125926
179.402,254.412672648
179.417,254.431436657
179.432,254.449415751
179.447,254.466607784
179.462,254.483010709
179.477,254.498622537
179.492,254.513441387
179.507,254.527465451
179.522,254.540693015
179.537,254.553122431
179.552,254.564752156
179.567,254.575580722
179.582,254.585606761
179.597,254.594828985
179.612,254.603246193
179.627,254.610857287
179.642,254.617661245
179.657,254.623657153
179.672,254.628844171
179.687,254.63322157
179.702,254.636788693
179.717,254.639544993
179.732,254.641490019
179.747,254.642623403
179.762,254.642944878
179.777,254.642454282
179.792,254.641151523
179.807,254.639036631
179.822,254.636109718
179.837,254.632371004
179.852,254.627820795
179.867,254.6224595
179.882,254.616287628
179.897,254.609305767
179.91,254.602600179
179.912,254.601514629
179.927,254.592915001
179.942,254.583507784
179.957,254.573293962
179.972,254.562274624
179.987,254.550450958
180.002,254.53782423
180.017,254.524395829
180.032,254.510167223
180.047,254.495139983
180.062,254.479315773
180.077,254.462696343
180.092,254.445283555
180.107,254.427079341
180.122,254.408085753
180.137,254.388304915
180.152,254.367739056
180.167,254.346390484
180.182,254.324261608
180.197,254.301354931
180.212,254.277673024
180.227,254.253218561
180.242,254.22799431
180.257,254.202003107
180.272,254.175247891
180.287,254.147731669
180.302,254.119457549
180.317,254.090428706
180.332,254.060648409
180.347,254.03011999
180.362,253.998846879
180.377,253.966832569
180.392,253.934080642
180.407,253.900594744
180.422,253.866378606
180.437,253.831436015
180.452,253.795770854
180.467,253.759387047
180.482,253.722288613
180.497,253.684479629
180.512,253.645964229
180.527,253.606746627
180.542,253.566831079
180.557,253.526221929
180.56,253.51801725
180.572,253.484923561
180.587,253.44294043
180.602,253.400277045
180.617,253.356937965
180.632,253.312927807
180.647,253.268251252
180.66,253.228996177
180.662,253.222913022
180.677,253.176917885
180.692,253.130270669
180.707,253.082976237
180.722,253.035039525
180.737,252.986465469
180.752,252.937259094
180.767,252.887425444
180.782,252.836969601
180.797,252.785896701
180.812,252.734211907
180.827,252.681920431
180.842,252.629027501
180.857,252.575538403
180.872,252.521458444
180.887,252.466792965
180.902,252.411547345
180.917,252.355726981
180.932,252.299337322
180.947,252.242383824
180.962,252.184871987
180.977,252.126807331
180.992,252.068195406
181.007,252.00904179
181.022,251.949352083
181.037,251.889131914
181.052,251.828386941
181.067,251.767122837
181.082,251.705345318
181.097,251.643060104
181.112,251.580272953
181.127,251.516989646
181.142,251.453215987
181.157,251.388957805
181.172,251.324220957
181.187,251.259011328
181.202,251.193334826
181.217,251.127197385
181.232,251.060604972
181.247,250.993563578
181.262,250.926079231
181.277,250.858157982
181.292,250.789805915
181.307,250.721029153
181.31,250.707223377
181.322,250.65183385
181.337,250.582226194
181.352,250.512212414
181.367,250.441798782
181.382,250.370991595
181.397,250.299797226
181.412,250.228222047
181.427,250.156272517
181.442,250.083955125
181.457,250.011276421
181.472,249.938243006
181.487,249.864861537
181.502,249.791138736
181.517,249.717081375
181.532,249.642696311
181.547,249.567990462
181.562,249.492970814
181.577,249.417644429
181.592,249.342018458
181.607,249.266100132
181.622,249.189896764
181.637,249.113415761
181.652,249.036664629
181.667,248.959650968
181.682,248.882382479
181.697,248.804866978
181.712,248.727112401
181.727,248.64912679
181.742,248.570918308
181.757,248.492495258
181.772,248.413866066
181.787,248.335039296
181.802,248.256023669
181.817,248.17682804
181.832,248.097461428
181.847,248.017933005
181.862,247.938252137
181.877,247.858428329
181.892,247.778471286
181.907,247.698390897
181.922,247.61819724
181.937,247.537900602
181.952,247.457511474
181.967,247.37704056
181.982,247.296498791
181.997,247.215897324
182.012,247.135247554
182.027,247.054561125
182.042,246.973849932
182.057,246.893126131
182.06,246.876980947
182.072,246.812402154
182.087,246.73169071
182.102,246.651004792
182.117,246.570357695
182.132,246.489763012
182.147,246.409234661
182.162,246.328786873
182.177,246.248434232
182.192,246.168191635
182.207,246.088074364
182.222,246.008098033
182.237,245.928278656
182.252,245.848632614
182.267,245.769176681
182.282,245.689928034
182.297,245.610904266
182.312,245.532123393
182.327,245.453603857
182.342,245.375364543
182.357,245.297424791
182.372,245.219804397
182.387,245.14252363
182.402,245.065603239
182.417,244.989064459
182.432,244.91292902
182.447,244.837219155
182.462,244.761957615
182.477,244.687167658
182.492,244.612873076
182.507,244.539098182
182.522,244.465867823
182.537,244.393207387
182.552,244.321142803
182.567,244.249700527
182.582,244.178907577
182.597,244.108791487
182.612,244.039380332
182.627,243.970702735
182.642,243.902787819
182.657,243.835665227
182.672,243.769365127
182.687,243.703918149
182.702,243.639355418
182.717,243.575708512
182.732,243.513009435
182.747,243.451290621
182.762,243.390584877
182.777,243.330925374
182.792,243.272345601
182.807,243.214879324
182.822,243.158560574
182.837,243.103423563
182.852,243.049502666
182.867,242.996832355
182.882,242.945447151
182.897,242.895381555
182.912,242.846669993
182.927,242.799346748
182.942,242.753445881
182.957,242.709001174
182.972,242.666046029
182.987,242.624613412
183.002,242.584735745
183.017,242.546444833
183.032,242.509771793
183.047,242.47474692
183.062,242.441399638
183.077,242.409758386
183.092,242.379850526
183.107,242.35170227
183.122,242.32533857
183.137,242.300783036
183.152,242.278057841
183.167,242.257183656
183.182,242.238179564
183.197,242.221062976
183.212,242.205849561
183.227,242.1925532
183.242,242.181185902
183.257,242.171757793
183.367,242.162344849
183.382,242.169202651
183.397,242.17799738
183.412,242.188718473
183.427,242.201353451
183.442,242.215888012
183.457,242.232306059
183.472,242.250589766
183.487,242.270719674
183.502,242.292674745
183.517,242.316432445
183.532,242.341968843
183.547,242.36925868
183.562,242.398275458
183.577,242.428991554
183.592,242.46137829
183.607,242.495406024
183.622,242.531044268
183.637,242.568261743
183.652,242.60702649
183.667,242.647305969
183.682,242.689067108
183.697,242.732276427
183.712,242.776900088
183.727,242.822903997
183.742,242.870253848
183.757,242.918915222
183.772,242.968853642
183.787,243.020034623
183.802,243.072423762
183.817,243.125986755
183.832,243.180689474
183.847,243.236498016
183.862,243.293378727
183.877,243.351298262
183.892,243.410223592
183.907,243.470122085
183.922,243.530961498
183.937,243.592709999
183.952,243.655336221
183.967,243.718809262
183.982,243.783098703
183.997,243.848174632
184.012,243.914007641
184.027,243.980568863
184.042,244.047829955
184.057,244.115763112
184.072,244.184341074
184.087,244.25353714
184.102,244.323325135
184.117,244.393679453
184.132,244.464575031
184.147,244.535987344
184.162,244.607892412
184.177,244.680266787
184.192,244.753087568
184.207,244.82633236
184.222,244.899979297
184.237,244.974007028
184.252,245.048394694
184.267,245.12312194
184.282,245.19816889
184.297,245.273516162
184.312,245.34914482
184.327,245.425036398
184.342,245.501172886
184.357,245.577536704
184.372,245.654110703
184.387,245.730878159
184.402,245.807822749
184.417,245.884928563
184.432,245.962180072
184.447,246.039562133
184.462,246.117059963
184.477,246.194659161
184.492,246.272345653
184.507,246.350105731
184.522,246.427926004
184.537,246.505793401
184.552,246.583695194
184.56,246.625252567
184.567,246.661618931
184.582,246.739552464
184.597,246.817483948
184.612,246.895401798
184.627,246.973294725
184.642,247.051151677
184.657,247.128961883
184.672,247.206714808
184.687,247.284400149
184.702,247.362007862
184.717,247.439528104
184.732,247.516951269
184.747,247.594267946
184.762,247.671468953
184.777,247.748545283
184.792,247.825488133
184.807,247.90228889
184.822,247.97893911
184.837,248.055430539
184.852,248.131755074
184.867,248.20790479
184.882,248.283871897
184.897,248.359648787
184.912,248.435227975
184.927,248.510602127
184.942,248.585764044
184.957,248.66070666
184.972,248.735423029
184.987,248.809906335
185.002,248.884149876
185.017,248.958147066
185.032,249.031891431
185.047,249.105376581
185.062,249.178596268
185.077,249.251544294
185.092,249.324214595
185.107,249.396601173
185.122,249.468698121
185.137,249.540499621
185.152,249.611999934
185.167,249.683193395
185.182,249.754074411
185.197,249.824637459
185.212,249.894877091
185.227,249.964787919
185.242,250.03436462
185.257,250.103601928
185.272,250.172494636
185.287,250.241037601
185.302,250.309225716
185.31,250.345445869
185.317,250.377053935
185.332,250.444517271
185.347,250.511610759
185.362,250.578329509
185.377,250.644668648
185.392,250.710623364
185.407,250.776188878
185.422,250.841360453
185.437,250.906133383
185.452,250.970503009
185.467,251.034464701
185.482,251.098013858
185.497,251.161145919
185.512,251.223856369
185.527,251.286140689
185.542,251.347994431
185.557,251.40941315
185.572,251.470392439
185.587,251.530927923
185.602,251.591015247
185.617,251.650650092
185.632,251.709828163
185.647,251.768545192
185.662,251.826796952
185.677,251.88457922
185.692,251.941887815
185.707,251.99871858
185.722,252.055067384
185.737,252.11093013
185.752,252.166302736
185.767,252.221181156
185.782,252.275561375
185.797,252.329439401
185.812,252.382811269
185.827,252.435673047
185.842,252.488020834
185.857,252.539850758
185.872,252.59115897
185.887,252.641941666
185.902,252.692195064
185.917,252.741915418
185.932,252.791099009
185.947,252.839742163
185.96,252.881459589
185.962,252.887841225
185.977,252.935392598
185.992,252.982392702
186.007,253.028837994
186.022,253.074724979
186.037,253.120050196
186.052,253.164810219
186.06,253.188449957
186.067,253.209001665
186.082,253.2526212
186.097,253.295665521
186.112,253.338131371
186.127,253.38001553
186.142,253.421314847
186.157,253.462026183
186.172,253.502146468
186.187,253.541672671
186.202,253.580601815
186.217,253.618930965
186.232,253.656657234
186.247,253.693777795
186.262,253.730289872
186.277,253.766190727
186.292,253.801477697
186.307,253.836148161
186.322,253.870199544
186.337,253.903629348
186.352,253.936435123
186.367,253.968614464
186.382,254.000165043
186.397,254.031084574
186.412,254.061370848
186.427,254.0910217
186.442,254.120035048
186.457,254.148408848
186.472,254.17614112
186.487,254.203229973
186.502,254.229673551
186.517,254.255470078
186.532,254.280617837
186.547,254.30511518
186.562,254.328960521
186.577,254.352152342
186.592,254.374689196
186.607,254.39656969
186.622,254.417792519
186.637,254.438356427
186.652,254.458260239
186.667,254.477502849
186.682,254.496083213
186.697,254.514000347
186.71,254.528991364
186.712,254.531253366
186.727,254.547841428
186.742,254.563763771
186.757,254.579019701
186.772,254.593608602
186.787,254.607529917
186.802,254.620783169
186.817,254.633367942
186.832,254.645283893
186.847,254.656530765
186.862,254.66710835
186.877,254.677016517
186.892,254.686255213
186.907,254.694824446
186.922,254.702724292
186.937,254.709954918
186.952,254.71651653
186.967,254.722409424
186.982,254.727633966
186.997,254.732190578
187.012,254.736079758
187.027,254.739302079
187.042,254.741858157
187.057,254.743748715
187.072,254.744974512
187.087,254.74553639
187.102,254.745435242
187.117,254.744672038
187.132,254.74324782
187.147,254.741163678
187.162,254.738420785
187.177,254.735020361
187.192,254.730963697
187.207,254.726252154
187.222,254.720887138
187.237,254.714870138
187.252,254.708202691
187.267,254.700886389
187.282,254.692922899
187.297,254.684313939
187.312,254.675061286
187.327,254.665166777
187.342,254.654632302
187.357,254.64345981
187.372,254.631651309
187.387,254.61920886
187.402,254.60613457
187.417,254.592430612
187.432,254.578099207
187.447,254.563142621
187.46,254.549676352
187.462,254.547563191
187.477,254.531363282
187.492,254.514545313
187.507,254.497111772
187.522,254.479065162
187.537,254.460408061
187.552,254.441143085
187.567,254.421272891
187.582,254.40080018
187.597,254.379727705
187.612,254.358058255
187.627,254.335794667
187.642,254.312939814
187.657,254.289496611
187.672,254.265468015
187.687,254.240857025
187.702,254.215666664
187.717,254.189900007
187.732,254.163560159
187.747,254.136650261
187.762,254.10917349
187.777,254.081133049
187.792,254.052532188
187.807,254.023374181
187.822,253.993662326
187.837,253.963399967
187.852,253.932590463
187.867,253.901237213
187.882,253.869343635
187.897,253.836913186
187.912,253.803949324
187.927,253.770455566
187.942,253.73643543
187.957,253.701892463
187.972,253.666830238
187.987,253.631252349
188.002,253.595162411
188.017,253.55856406
188.032,253.521460944
188.047,253.483856742
188.062,253.445755149
188.077,253.407159867
188.092,253.368074628
188.107,253.328503164
188.122,253.288449246
188.137,253.247916628
188.152,253.206909103
188.167,253.165430472
188.182,253.123484537
188.197,253.081075126
188.21,253.043948357
188.212,253.038206064
188.227,252.994881192
188.242,252.951104367
188.257,252.906879436
188.272,252.862210283
188.287,252.817100768
188.302,252.771554778
188.317,252.7255762
188.332,252.679168926
188.347,252.632336848
188.362,252.585083877
188.377,252.537413907
188.392,252.489330849
188.407,252.440838612
188.422,252.391941107
188.437,252.342642248
188.452,252.292945938
188.467,252.242856103
188.482,252.192376644
188.497,252.141511473
188.512,252.090264502
188.527,252.038639631
188.542,251.986640772
188.557,251.934271817
188.572,251.881536661
188.587,251.828439204
188.602,251.77498332
188.617,251.721172903
188.632,251.667011823
188.647,251.612503953
188.66,251.564986262
188.662,251.557653149
188.677,251.502463267
188.692,251.44693816
188.707,251.391081666
188.722,251.334897615
188.737,251.278389832
