# 01004 ENAS Ny-Alesund Ii Observations at 12Z 05 Feb 2019
Frequency [GHz],TB
175.31,240.318556768
175.322,240.384240047
175.337,240.466387869
175.352,240.548583114
175.367,240.630824528
175.382,240.713110838
175.397,240.79544076
175.412,240.877812997
175.427,240.960226234
175.442,241.042679144
175.457,241.125170381
175.472,241.207698588
175.487,241.290262392
175.502,241.372860405
175.517,241.455491222
175.532,241.538153426
175.547,241.620845581
175.562,241.703566239
175.577,241.786313934
175.592,241.869087187
175.607,241.951884498
175.622,242.034704357
175.637,242.117545234
175.652,242.200405588
175.667,242.283283854
175.682,242.36617846
175.697,242.44908781
175.712,242.532010298
175.727,242.614944295
175.742,242.697888163
175.757,242.780840241
175.772,242.863798854
175.787,242.94676231
175.802,243.029728901
175.817,243.112696902
175.832,243.195664568
175.847,243.278630142
175.862,243.361591847
175.877,243.444547887
175.892,243.527496453
175.907,243.610435717
175.922,243.69336383
175.937,243.776278932
175.952,243.859179141
175.967,243.942062556
175.982,244.024927265
175.997,244.10777133
176.012,244.190592803
176.027,244.273389713
176.042,244.35616007
176.057,244.438901871
176.072,244.521613092
176.087,244.604291691
176.102,244.686935608
176.117,244.769542766
176.132,244.852111066
176.147,244.934638397
176.162,245.017122623
176.177,245.099561595
176.192,245.181953141
176.207,245.264295073
176.222,245.346585186
176.237,245.428821252
176.252,245.511001029
176.267,245.593122253
176.282,245.675182642
176.297,245.757179899
176.31,245.828191327
176.312,245.839111701
176.327,245.920975714
176.342,246.002769579
176.357,246.084490923
176.372,246.166137351
176.387,246.24770645
176.402,246.32919579
176.417,246.410602918
176.432,246.491925367
176.447,246.573160646
176.46,246.64349211
176.462,246.654306252
176.477,246.735359656
176.492,246.816318315
176.507,246.897179664
176.522,246.977941122
176.537,247.058600086
176.552,247.139153937
176.567,247.219600036
176.582,247.299935726
176.597,247.380158331
176.612,247.460265154
176.627,247.540253484
176.642,247.620120586
176.657,247.699863711
176.672,247.779480088
176.687,247.858966931
176.702,247.938321432
176.717,248.017540767
176.732,248.096622094
176.747,248.175562549
176.762,248.254359255
176.777,248.333009313
176.792,248.411509808
176.807,248.489857806
176.822,248.568050355
176.837,248.646084488
176.852,248.723957215
176.867,248.801665534
176.882,248.879206422
176.897,248.95657684
176.912,249.033773731
176.927,249.110794023
176.942,249.187634623
176.957,249.264292425
176.972,249.340764304
176.987,249.417047118
177.002,249.493137712
177.017,249.56903291
177.032,249.644729526
177.047,249.72022435
177.062,249.795514164
177.077,249.870595728
177.092,249.94546579
177.107,250.020121084
177.122,250.094558324
177.137,250.168774214
177.152,250.242765444
177.167,250.316528682
177.182,250.390060591
177.197,250.463357812
177.21,250.526689633
177.212,250.536416979
177.227,250.609234708
177.242,250.681807603
177.257,250.754132255
177.272,250.826205242
177.287,250.898023131
177.302,250.969582475
177.31,251.007640547
177.317,251.040879812
177.332,251.111911676
177.347,251.182674583
177.362,251.25316504
177.377,251.323379543
177.392,251.393314578
177.407,251.462966621
177.422,251.532332135
177.437,251.601407578
177.452,251.670189397
177.467,251.738674028
177.482,251.806857902
177.497,251.874737438
177.512,251.942309052
177.527,252.009569147
177.542,252.076514123
177.557,252.143140374
177.572,252.209444281
177.587,252.27542223
177.602,252.341070593
177.617,252.406385739
177.632,252.471364032
177.647,252.536001837
177.66,252.591743032
177.662,252.600295508
177.677,252.664241399
177.692,252.727835863
177.707,252.791075247
177.722,252.853955899
177.737,252.916474165
177.752,252.978626391
177.767,253.040408918
177.782,253.101818093
177.797,253.162850262
177.812,253.223501771
177.827,253.283768967
177.842,253.343648202
177.857,253.403135829
177.872,253.462228205
177.887,253.52092169
177.902,253.579212649
177.917,253.637097453
177.932,253.694572478
177.947,253.751634106
177.96,253.800750332
177.962,253.808278725
177.977,253.864502733
177.992,253.920302533
178.007,253.97567454
178.022,254.030615177
178.037,254.085120874
178.052,254.139188076
178.067,254.192813239
178.082,254.245992827
178.097,254.298723319
178.112,254.351001208
178.127,254.402823001
178.142,254.454185218
178.157,254.505084396
178.172,254.555517086
178.187,254.605479856
178.202,254.654969296
178.217,254.703982006
178.232,254.752514612
178.247,254.800563755
178.262,254.8481261
178.277,254.89519833
178.292,254.94177715
178.307,254.98785929
178.322,255.0334415
178.337,255.078520557
178.352,255.123093261
178.367,255.167156436
178.382,255.210706937
178.397,255.253741641
178.41,255.290618771
178.412,255.296257454
178.427,255.338251315
178.442,255.379720184
178.457,255.420661059
178.472,255.461070965
178.487,255.500946958
178.502,255.540286128
178.517,255.579085599
178.532,255.617342526
178.547,255.655054101
178.562,255.692217551
178.577,255.72883014
178.592,255.764889165
178.607,255.800391968
178.622,255.835335922
178.637,255.869718444
178.652,255.903536991
178.667,255.936789057
178.682,255.969472182
178.697,256.001583946
178.712,256.033121974
178.727,256.064083931
178.742,256.094467528
178.757,256.124270525
178.772,256.153490724
178.787,256.182125975
178.802,256.210174173
178.817,256.237633266
178.832,256.264501246
178.847,256.290776157
178.862,256.316456093
178.877,256.341539196
178.892,256.366023664
178.907,256.389907744
178.922,256.413189735
178.937,256.435867992
178.952,256.457940921
178.967,256.479406984
178.982,256.500264699
178.997,256.520512637
179.012,256.540149426
179.027,256.559173753
179.042,256.577584358
179.057,256.595380041
179.072,256.61255966
179.087,256.629122132
179.102,256.645066431
179.117,256.660391592
179.132,256.675096709
179.147,256.689180936
179.16,256.700884427
179.162,256.702643489
179.177,256.715483642
179.192,256.727700733
179.207,256.739294158
179.222,256.750263379
179.237,256.760607916
179.252,256.770327353
179.267,256.779421335
179.282,256.78788957
179.297,256.79573183
179.312,256.802947947
179.327,256.809537817
179.342,256.815501398
179.357,256.820838712
179.372,256.825549842
179.387,256.829634935
179.402,256.8330942
179.417,256.835927908
179.432,256.838136394
179.447,256.839720054
179.462,256.840679344
179.477,256.841014784
179.492,256.840726957
179.507,256.839816503
179.522,256.838284126
179.537,256.836130588
179.552,256.833356712
179.567,256.829963381
179.582,256.825951536
179.597,256.821322178
179.612,256.816076364
179.627,256.810215208
179.642,256.803739884
179.657,256.796651619
179.672,256.788951695
179.687,256.780641452
179.702,256.771722278
179.717,256.762195621
179.732,256.752062973
179.747,256.741325885
179.762,256.729985953
179.777,256.718044825
179.792,256.705504194
179.807,256.692365803
179.822,256.678631442
179.837,256.664302942
179.852,256.649382179
179.867,256.633871075
179.882,256.61777159
179.897,256.601085723
179.91,256.586151897
179.912,256.583815515
179.927,256.565963041
179.942,256.547530416
179.957,256.528519784
179.972,256.508933328
179.987,256.488773257
180.002,256.468041815
180.017,256.44674127
180.032,256.42487392
180.047,256.402442087
180.062,256.379448116
180.077,256.355894375
180.092,256.331783251
180.107,256.307117151
180.122,256.281898496
180.137,256.256129724
180.152,256.229813287
180.167,256.202951642
180.182,256.175547264
180.197,256.147602628
180.212,256.119120217
180.227,256.090102519
180.242,256.060552022
180.257,256.030471212
180.272,255.999862574
180.287,255.968728589
180.302,255.93707173
180.317,255.904894463
180.332,255.872199241
180.347,255.838988506
180.362,255.805264684
180.377,255.771030184
180.392,255.736287399
180.407,255.701038695
180.422,255.66528642
180.437,255.629032894
180.452,255.59228041
180.467,255.555031233
180.482,255.517287594
180.497,255.479051691
180.512,255.440325688
180.527,255.401111708
180.542,255.361411837
180.557,255.321228117
180.56,255.313133488
180.572,255.280562548
180.587,255.239417082
180.602,255.197793625
180.617,255.155694031
180.632,255.113120104
180.647,255.070073594
180.66,255.032385662
180.662,255.026556195
180.677,254.982569542
180.692,254.938115215
180.707,254.893194729
180.722,254.847809538
180.737,254.801961031
180.752,254.755650531
180.767,254.708879294
180.782,254.661648507
180.797,254.613959284
180.812,254.565812669
180.827,254.517209631
180.842,254.468151066
180.857,254.418637792
180.872,254.36867055
180.887,254.318250003
180.902,254.267376733
180.917,254.216051243
180.932,254.164273953
180.947,254.112045202
180.962,254.059365244
180.977,254.00623425
180.992,253.952652307
181.007,253.898619416
181.022,253.844135493
181.037,253.789200368
181.052,253.733813783
181.067,253.677975398
181.082,253.621684782
181.097,253.564941422
181.112,253.507744717
181.127,253.450093978
181.142,253.391988434
181.157,253.333427229
181.172,253.274409422
181.187,253.214933988
181.202,253.154999821
181.217,253.094605731
181.232,253.033750453
181.247,252.972432637
181.262,252.91065086
181.277,252.848403622
181.292,252.785689349
181.307,252.722506396
181.31,252.709813415
181.322,252.658853047
181.337,252.594727519
181.352,252.530127965
181.367,252.465052475
181.382,252.399499079
181.397,252.333465753
181.412,252.266950417
181.427,252.199950943
181.442,252.132465159
181.457,252.064490847
181.472,251.996025755
181.487,251.927067595
181.502,251.857614051
181.517,251.787662783
181.532,251.717211434
181.547,251.64625763
181.562,251.57479899
181.577,251.502833134
181.592,251.430357682
181.607,251.357370266
181.622,251.283868538
181.637,251.209850171
181.652,251.13531287
181.667,251.060254381
181.682,250.984672498
181.697,250.908565067
181.712,250.831930004
181.727,250.754765293
181.742,250.677069005
181.757,250.5988393
181.772,250.520074445
181.787,250.440772816
181.802,250.360932914
181.817,250.280553376
181.832,250.199632986
181.847,250.118170686
181.862,250.03616559
181.877,249.953616993
181.892,249.870524391
181.907,249.786887488
181.922,249.702706213
181.937,249.617980735
181.952,249.532711476
181.967,249.446899126
181.982,249.36054466
181.997,249.273649352
182.012,249.186214795
182.027,249.098242911
182.042,249.009735974
182.057,248.920696624
182.06,248.902825123
182.072,248.831127883
182.087,248.741033179
182.102,248.650416354
182.117,248.559281691
182.132,248.467633926
182.147,248.375478269
182.162,248.282820421
182.177,248.189666591
182.192,248.096023517
182.207,248.00189848
182.222,247.90729932
182.237,247.812234459
182.252,247.716712909
182.267,247.620744294
182.282,247.524338859
182.297,247.427507488
182.312,247.33026171
182.327,247.232613717
182.342,247.134576366
182.357,247.036163188
182.372,246.937388394
182.387,246.838266875
182.402,246.7388142
182.417,246.639046612
182.432,246.538981019
182.447,246.438634983
182.462,246.338026697
182.477,246.237174966
182.492,246.136099172
182.507,246.034819243
182.522,245.933355601
182.537,245.831729111
182.552,245.729961017
182.567,245.628072863
182.582,245.526086407
182.597,245.424023514
182.612,245.321906043
182.627,245.2197557
182.642,245.117593889
182.657,245.015441522
182.672,244.913318816
182.687,244.811245052
182.702,244.709238305
182.717,244.607315133
182.732,244.50549022
182.747,244.403775973
182.762,244.302182054
182.777,244.200714855
182.792,244.09937688
182.807,243.998166054
182.822,243.897074905
182.837,243.796089636
182.852,243.695189044
182.867,243.594343251
182.882,243.493512239
182.897,243.392644109
182.912,243.291673038
182.927,243.19051685
182.942,243.089074105
182.957,242.987220604
182.972,242.884805149
182.987,242.781644373
183.002,242.677516368
183.017,242.572152788
183.032,242.465228972
183.047,242.356351477
183.062,242.245042227
183.077,242.130718191
183.092,242.012665139
183.107,241.890003563
183.122,241.761644319
183.137,241.626230981
183.152,241.482065802
183.167,241.32701735
183.182,241.158413106
183.197,240.972936302
183.212,240.766590872
183.227,240.534917415
183.242,240.273951386
183.257,239.98316437
183.367,240.042422269
183.382,240.321891911
183.397,240.571126537
183.412,240.79197667
183.427,240.988686633
183.442,241.165638421
183.457,241.326656373
183.472,241.474882947
183.487,241.612840964
183.502,241.742540942
183.517,241.86558534
183.532,241.983256112
183.547,242.09658422
183.562,242.206403531
183.577,242.313392265
183.592,242.418104836
183.607,242.520996411
183.622,242.622441956
183.637,242.722751128
183.652,242.822180002
183.667,242.92094039
183.682,243.019207307
183.697,243.117125002
183.712,243.214811868
183.727,243.31236447
183.742,243.409860883
183.757,243.507363461
183.772,243.604921161
183.787,243.702571508
183.802,243.800342249
183.817,243.898252775
183.832,243.996315333
183.847,244.094536062
183.862,244.192915902
183.877,244.291451367
183.892,244.390135223
183.907,244.488957079
183.922,244.587903898
183.937,244.686960449
183.952,244.786109696
183.967,244.885333146
183.982,244.98461115
183.997,245.083923162
184.012,245.183247975
184.027,245.282563922
184.042,245.381849052
184.057,245.481081283
184.072,245.580238538
184.087,245.679298861
184.102,245.778240515
184.117,245.877042072
184.132,245.975682484
184.147,246.074141149
184.162,246.172397962
184.177,246.270433358
184.192,246.368228352
184.207,246.465764566
184.222,246.563024251
184.237,246.659990311
184.252,246.756646307
184.267,246.852976473
184.282,246.948965717
184.297,247.044599625
184.312,247.139864455
184.327,247.234747139
184.342,247.329235271
184.357,247.423317104
184.372,247.516981535
184.387,247.610218095
184.402,247.70301694
184.417,247.795368831
184.432,247.887265123
184.447,247.978697751
184.462,248.069659209
184.477,248.160142538
184.492,248.250141307
184.507,248.339649596
184.522,248.42866198
184.537,248.517173509
184.552,248.605179695
184.56,248.651908282
184.567,248.692676488
184.582,248.779660265
184.597,248.86612781
184.612,248.952076297
184.627,249.037503273
184.642,249.122406642
184.657,249.206784651
184.672,249.290635869
184.687,249.373959175
184.702,249.456753744
184.717,249.539019025
184.732,249.620754737
184.747,249.701960845
184.762,249.782637551
184.777,249.862785283
184.792,249.942404673
184.807,250.021496553
184.822,250.100061942
184.837,250.178102026
184.852,250.255618156
184.867,250.332611832
184.882,250.409084692
184.897,250.485038503
184.912,250.56047515
184.927,250.635396628
184.942,250.709805029
184.957,250.783702539
184.972,250.857091419
184.987,250.92997401
185.002,251.002352712
185.017,251.074229987
185.032,251.145608345
185.047,251.216490336
185.062,251.286878551
185.077,251.356775605
185.092,251.426184141
185.107,251.495106815
185.122,251.563546295
185.137,251.631505257
185.152,251.698986375
185.167,251.765992319
185.182,251.832525752
185.197,251.898589321
185.212,251.964185656
185.227,252.029317363
185.242,252.093987026
185.257,252.158197195
185.272,252.22195039
185.287,252.285249093
185.302,252.348095749
185.31,252.381429958
185.317,252.410492756
185.332,252.472442473
185.347,252.533947206
185.362,252.595009215
185.377,252.655630705
185.392,252.715813827
185.407,252.775560678
185.422,252.834873295
185.437,252.893753654
185.452,252.952203674
185.467,253.010225207
185.482,253.067820043
185.497,253.124989909
185.512,253.181736461
185.527,253.238061292
185.542,253.293965928
185.557,253.349451823
185.572,253.404520365
185.587,253.459172871
185.602,253.513410588
185.617,253.567234695
185.632,253.620646298
185.647,253.673646435
185.662,253.726236071
185.677,253.778416103
185.692,253.830187356
185.707,253.881550585
185.722,253.932506478
185.737,253.98305565
185.752,254.033198648
185.767,254.082935952
185.782,254.132267973
185.797,254.181195055
185.812,254.229717474
185.827,254.277835442
185.842,254.325549105
185.857,254.372858544
185.872,254.419763779
185.887,254.466264764
185.902,254.512361395
185.917,254.558053504
185.932,254.603340867
185.947,254.6482232
185.96,254.686793335
185.962,254.692700161
185.977,254.736771353
185.992,254.780436325
186.007,254.823694572
186.022,254.866545534
186.037,254.908988605
186.052,254.951023124
186.06,254.973274241
186.067,254.992648387
186.082,255.033863638
186.097,255.07466808
186.112,255.115060868
186.127,255.155041116
186.142,255.194607899
186.157,255.233760247
186.172,255.272497157
186.187,255.310817587
186.202,255.348720457
186.217,255.386204658
186.232,255.423269047
186.247,255.459912449
186.262,255.49613366
186.277,255.531931451
186.292,255.567304562
186.307,255.602251714
186.322,255.636771601
186.337,255.670862896
186.352,255.704524255
186.367,255.737754311
186.382,255.770551685
186.397,255.802914978
186.412,255.834842781
186.427,255.86633367
186.442,255.897386211
186.457,255.927998962
186.472,255.958170472
186.487,255.987899282
186.502,256.017183932
186.517,256.046022955
186.532,256.074414883
186.547,256.102358249
186.562,256.129851586
186.577,256.156893427
186.592,256.183482311
186.607,256.209616781
186.622,256.235295387
186.637,256.260516688
186.652,256.285279246
186.667,256.30958164
186.682,256.333422456
186.697,256.356800295
186.71,256.37668552
186.712,256.379713771
186.727,256.402161512
186.742,256.424142164
186.757,256.44565439
186.772,256.466696871
186.787,256.487268307
186.802,256.507367419
186.817,256.526992951
186.832,256.546143668
186.847,256.564818358
186.862,256.583015838
186.877,256.600734945
186.892,256.617974546
186.907,256.634733535
186.922,256.651010834
186.937,256.666805394
186.952,256.682116194
186.967,256.696942249
186.982,256.7112826
186.997,256.725136324
187.012,256.738502527
187.027,256.751380354
187.042,256.76376898
187.057,256.775667618
187.072,256.787075512
187.087,256.797991947
187.102,256.808416242
187.117,256.818347754
187.132,256.827785879
187.147,256.836730047
187.162,256.845179731
187.177,256.853134441
187.192,256.860593727
187.207,256.867557178
187.222,256.874024425
187.237,256.879995138
187.252,256.885469027
187.267,256.890445844
187.282,256.894925384
187.297,256.89890748
187.312,256.90239201
187.327,256.905378892
187.342,256.907868087
187.357,256.909859598
187.372,256.91135347
187.387,256.91234979
187.402,256.912848689
187.417,256.912850339
187.432,256.912354956
187.447,256.911362798
187.46,256.910101321
187.462,256.909874164
187.477,256.907889397
187.492,256.905408885
187.507,256.902433054
187.522,256.898962374
187.537,256.894997359
187.552,256.890538562
187.567,256.885586581
187.582,256.880142054
187.597,256.874205661
187.612,256.867778125
187.627,256.860860207
187.642,256.853452713
187.657,256.845556485
187.672,256.837172412
187.687,256.828301419
187.702,256.81894447
187.717,256.809102572
187.732,256.798776771
187.747,256.787968152
187.762,256.776677835
187.777,256.764906984
187.792,256.752656798
187.807,256.739928516
187.822,256.726723413
187.837,256.7130428
187.852,256.698888028
187.867,256.684260481
187.882,256.66916158
187.897,256.653592782
187.912,256.63755558
187.927,256.6210515
187.942,256.6040821
187.957,256.586648978
187.972,256.568753759
187.987,256.550398106
188.002,256.531583711
188.017,256.512312299
188.032,256.492585625
188.047,256.47240548
188.062,256.451773678
188.077,256.43069207
188.092,256.409162531
188.107,256.38718697
188.122,256.364767321
188.137,256.341905546
188.152,256.318603639
188.167,256.294863615
188.182,256.270687519
188.197,256.246077423
188.21,256.224399232
188.212,256.22103542
188.227,256.195563634
188.242,256.169664208
188.257,256.143339313
188.272,256.116591142
188.287,256.089421909
188.302,256.061833854
188.317,256.033829238
188.332,256.005410341
188.347,255.976579467
188.362,255.947338937
188.377,255.917691096
188.392,255.887638305
188.407,255.857182946
188.422,255.826327417
188.437,255.795074136
188.452,255.763425537
188.467,255.731384073
188.482,255.69895221
188.497,255.666132432
188.512,255.632927238
188.527,255.599339142
188.542,255.565370672
188.557,255.531024368
188.572,255.496302788
188.587,255.461208498
188.602,255.425744079
188.617,255.389912123
188.632,255.353715235
188.647,255.317156029
188.66,255.285180338
188.662,255.280237131
188.677,255.242961175
188.692,255.205330805
188.707,255.167348679
188.722,255.129017456
188.737,255.090339809
