# 01004 ENAS Ny-Alesund Ii Observations at 12Z 07 Oct 2019
Frequency [GHz],TB
175.31,265.327211047
175.322,265.351739172
175.337,265.382250171
175.352,265.412594373
175.367,265.442770638
175.382,265.472777825
175.397,265.502614794
175.412,265.532280403
175.427,265.561773513
175.442,265.591092984
175.457,265.620237676
175.472,265.649206451
175.487,265.67799817
175.502,265.706611698
175.517,265.735045896
175.532,265.763299631
175.547,265.791371768
175.562,265.819261174
175.577,265.846966718
175.592,265.874487269
175.607,265.901821698
175.622,265.92896888
175.637,265.955927687
175.652,265.982696998
175.667,266.009275691
175.682,266.035662645
175.697,266.061856745
175.712,266.087856874
175.727,266.113661922
175.742,266.139270777
175.757,266.164682332
175.772,266.189895484
175.787,266.21490913
175.802,266.239722172
175.817,266.264333514
175.832,266.288742064
175.847,266.312946733
175.862,266.336946436
175.877,266.360740091
175.892,266.38432662
175.907,266.407704948
175.922,266.430874007
175.937,266.453832729
175.952,266.476580053
175.967,266.499114921
175.982,266.52143628
175.997,266.543543083
176.012,266.565434286
176.027,266.58710885
176.042,266.608565741
176.057,266.629803931
176.072,266.650822397
176.087,266.671620122
176.102,266.692196093
176.117,266.712549303
176.132,266.732678753
176.147,266.752583448
176.162,266.772262398
176.177,266.791714623
176.192,266.810939146
176.207,266.829934997
176.222,266.848701215
176.237,266.867236843
176.252,266.885540932
176.267,266.903612541
176.282,266.921450735
176.297,266.939054587
176.31,266.954120991
176.312,266.956423177
176.327,266.973555593
176.342,266.99045093
176.357,267.007108292
176.372,267.023526792
176.387,267.039705548
176.402,267.05564369
176.417,267.071340353
176.432,267.086794683
176.447,267.102005834
176.46,267.11499148
176.462,267.116972969
176.477,267.131695261
176.492,267.14617189
176.507,267.160402046
176.522,267.174384931
176.537,267.188119753
176.552,267.201605732
176.567,267.214842096
176.582,267.227828086
176.597,267.24056295
176.612,267.253045947
176.627,267.265276349
176.642,267.277253435
176.657,267.288976496
176.672,267.300444835
176.687,267.311657764
176.702,267.322614608
176.717,267.333314701
176.732,267.343757389
176.747,267.353942032
176.762,267.363867997
176.777,267.373534666
176.792,267.382941433
176.807,267.392087701
176.822,267.400972888
176.837,267.409596423
176.852,267.417957746
176.867,267.426056312
176.882,267.433891586
176.897,267.441463047
176.912,267.448770187
176.927,267.45581251
176.942,267.462589532
176.957,267.469100784
176.972,267.47534581
176.987,267.481324164
177.002,267.487035418
177.017,267.492479153
177.032,267.497654967
177.047,267.50256247
177.062,267.507201285
177.077,267.511571049
177.092,267.515671414
177.107,267.519502045
177.122,267.52306262
177.137,267.526352833
177.152,267.52937239
177.167,267.532121013
177.182,267.534598437
177.197,267.53680441
177.21,267.538496498
177.212,267.538738698
177.227,267.540401078
177.242,267.541791342
177.257,267.542909297
177.272,267.543754764
177.287,267.54432758
177.302,267.544627594
177.31,267.544676009
177.317,267.544654671
177.332,267.54440869
177.347,267.543889545
177.362,267.543097143
177.377,267.542031409
177.392,267.540692279
177.407,267.539079705
177.422,267.537193654
177.437,267.535034106
177.452,267.532601058
177.467,267.529894518
177.482,267.526914511
177.497,267.523661077
177.512,267.520134267
177.527,267.51633415
177.542,267.512260807
177.557,267.507914334
177.572,267.503294841
177.587,267.498402453
177.602,267.493237307
177.617,267.487799555
177.632,267.482089363
177.647,267.476106911
177.66,267.47070204
177.662,267.469852393
177.677,267.463326014
177.692,267.456527995
177.707,267.44945857
177.722,267.442117985
177.737,267.4345065
177.752,267.426624388
177.767,267.418471935
177.782,267.410049437
177.797,267.401357207
177.812,267.392395567
177.827,267.383164852
177.842,267.373665408
177.857,267.363897596
177.872,267.353861785
177.887,267.343558357
177.902,267.332987704
177.917,267.322150232
177.932,267.311046355
177.947,267.299676497
177.96,267.289607809
177.962,267.288041095
177.977,267.276140595
177.992,267.263975451
178.007,267.251546129
178.022,267.238853104
178.037,267.225896858
178.052,267.212677884
178.067,267.199196682
178.082,267.185453762
178.097,267.17144964
178.112,267.157184841
178.127,267.142659895
178.142,267.127875342
178.157,267.112831727
178.172,267.097529601
178.187,267.081969522
178.202,267.066152052
178.217,267.050077761
178.232,267.033747221
178.247,267.017161009
178.262,267.000319708
178.277,266.983223904
178.292,266.965874184
178.307,266.948271142
178.322,266.93041537
178.337,266.912307467
178.352,266.89394803
178.367,266.875337658
178.382,266.856476952
178.397,266.837366512
178.41,266.820602589
178.412,266.81800694
178.427,266.798398835
178.442,266.778542797
178.457,266.758439424
178.472,266.738089311
178.487,266.717493051
178.502,266.696651236
178.517,266.675564452
178.532,266.654233283
178.547,266.632658308
178.562,266.610840101
178.577,266.588779229
178.592,266.566476257
178.607,266.54393174
178.622,266.521146227
178.637,266.49812026
178.652,266.474854371
178.667,266.451349087
178.682,266.427604922
178.697,266.403622383
178.712,266.379401964
178.727,266.35494415
178.742,266.330249414
178.757,266.305318216
178.772,266.280151006
178.787,266.254748218
178.802,266.229110273
178.817,266.203237577
178.832,266.177130522
178.847,266.150789484
178.862,266.124214823
178.877,266.09740688
178.892,266.070365981
178.907,266.043092432
178.922,266.015586523
178.937,265.987848521
178.952,265.959878676
178.967,265.931677214
178.982,265.903244344
178.997,265.874580249
179.012,265.845685093
179.027,265.816559013
179.042,265.787202124
179.057,265.757614518
179.072,265.72779626
179.087,265.697747388
179.102,265.667467917
179.117,265.636957832
179.132,265.606217091
179.147,265.575245623
179.16,265.548216977
179.162,265.54404333
179.177,265.512610083
179.192,265.48094572
179.207,265.449050053
179.222,265.416922858
179.237,265.38456388
179.252,265.351972833
179.267,265.319149393
179.282,265.286093206
179.297,265.25280388
179.312,265.219280989
179.327,265.185524069
179.342,265.15153262
179.357,265.117306105
179.372,265.082843948
179.387,265.048145533
179.402,265.013210206
179.417,264.978037273
179.432,264.942625996
179.447,264.906975598
179.462,264.87108526
179.477,264.834954119
179.492,264.798581267
179.507,264.761965756
179.522,264.725106589
179.537,264.688002726
179.552,264.650653078
179.567,264.613056513
179.582,264.575211849
179.597,264.537117856
179.612,264.498773256
179.627,264.460176722
179.642,264.421326874
179.657,264.382222287
179.672,264.342861478
179.687,264.303242918
179.702,264.263365021
179.717,264.22322615
179.732,264.182824614
179.747,264.142158667
179.762,264.101226509
179.777,264.060026282
179.792,264.018556074
179.807,263.976813914
179.822,263.934797776
179.837,263.892505573
179.852,263.849935161
179.867,263.807084335
179.882,263.763950832
179.897,263.720532326
179.91,263.682670576
179.912,263.676826432
179.927,263.6328307
179.942,263.588542621
179.957,263.54395962
179.972,263.49907906
179.987,263.453898239
180.002,263.40841439
180.017,263.36262468
180.032,263.31652621
180.047,263.270116015
180.062,263.223391063
180.077,263.176348252
180.092,263.128984412
180.107,263.081296307
180.122,263.033280626
180.137,262.984933992
180.152,262.936252956
180.167,262.887233996
180.182,262.837873519
180.197,262.788167861
180.212,262.738113283
180.227,262.687705972
180.242,262.636942043
180.257,262.585817533
180.272,262.534328407
180.287,262.482470552
180.302,262.43023978
180.317,262.377631825
180.332,262.324642345
180.347,262.271266919
180.362,262.217501047
180.377,262.163340154
180.392,262.108779581
180.407,262.053814592
180.422,261.998440371
180.437,261.942652021
180.452,261.886444564
180.467,261.829812941
180.482,261.772752012
180.497,261.715256553
180.512,261.65732126
180.527,261.598940745
180.542,261.54010954
180.557,261.48082209
180.56,261.468909356
180.572,261.42107276
180.587,261.360855829
180.602,261.300165495
180.617,261.238995871
180.632,261.177340986
180.647,261.115194786
180.66,261.060932584
180.662,261.052551133
180.677,260.989403805
180.692,260.925746497
180.707,260.86157282
180.722,260.796876301
180.737,260.731650387
180.752,260.665888438
180.767,260.599583734
180.782,260.532729473
180.797,260.465318771
180.812,260.397344664
180.827,260.328800106
180.842,260.259677972
180.857,260.189971059
180.872,260.119672085
180.887,260.048773692
180.902,259.977268445
180.917,259.905148835
180.932,259.832407278
180.947,259.75903612
180.962,259.685027633
180.977,259.610374024
180.992,259.535067429
181.007,259.45909992
181.022,259.382463504
181.037,259.305150128
181.052,259.227151678
181.067,259.148459984
181.082,259.069066822
181.097,258.988963915
181.112,258.908142938
181.127,258.826595521
181.142,258.744313249
181.157,258.661287671
181.172,258.577510299
181.187,258.492972613
181.202,258.407666066
181.217,258.321582089
181.232,258.234712094
181.247,258.147047478
181.262,258.058579631
181.277,257.969299937
181.292,257.879199786
181.307,257.788270572
181.31,257.769984486
181.322,257.696503706
181.337,257.603890619
181.352,257.51042277
181.367,257.41609165
181.382,257.320888795
181.397,257.224805789
181.412,257.127834275
181.427,257.029965963
181.442,256.931192637
181.457,256.831506165
181.472,256.730898513
181.487,256.629361748
181.502,256.526888054
181.517,256.42346974
181.532,256.319099255
181.547,256.213769195
181.562,256.10747232
181.577,256.000201564
181.592,255.891950049
181.607,255.782711102
181.622,255.672478265
181.637,255.561245312
181.652,255.449006267
181.667,255.335755415
181.682,255.221487326
181.697,255.106196864
181.712,254.989879213
181.727,254.872529891
181.742,254.754144771
181.757,254.6347201
181.772,254.514252522
181.787,254.392739096
181.802,254.270177322
181.817,254.14656516
181.832,254.021901059
181.847,253.896183973
181.862,253.769413396
181.877,253.64158938
181.892,253.512712565
181.907,253.382784207
181.922,253.251806204
181.937,253.119781127
181.952,252.986712249
181.967,252.852603578
181.982,252.717459883
181.997,252.581286732
182.012,252.444090522
182.027,252.305878517
182.042,252.166658876
182.057,252.026440695
182.06,251.998278103
182.072,251.885234044
182.087,251.743049998
182.102,251.599900682
182.117,251.455799309
182.132,251.310760219
182.147,251.164798918
182.162,251.017932124
182.177,250.870177811
182.192,250.721555246
182.207,250.572085041
182.222,250.421789192
182.237,250.270691133
182.252,250.118815777
182.267,249.966189566
182.282,249.812840522
182.297,249.658798294
182.312,249.504094211
182.327,249.348761334
182.342,249.192834506
182.357,249.036350408
182.372,248.879347612
182.387,248.721866635
182.402,248.563949998
182.417,248.405642279
182.432,248.246990171
182.447,248.088042543
182.462,247.928850495
182.477,247.769467417
182.492,247.609949055
182.507,247.45035356
182.522,247.290741561
182.537,247.131176217
182.552,246.971723281
182.567,246.812451161
182.582,246.653430983
182.597,246.494736646
182.612,246.33644489
182.627,246.178635346
182.642,246.021390601
182.657,245.864796253
182.672,245.708940964
182.687,245.553916514
182.702,245.399817852
182.717,245.24674314
182.732,245.094793797
182.747,244.944074541
182.762,244.794693417
182.777,244.646761827
182.792,244.50039455
182.807,244.355709757
182.822,244.212829013
182.837,244.071877272
182.852,243.932982858
182.867,243.796277444
182.882,243.661895999
182.897,243.529976738
182.912,243.400661043
182.927,243.274093371
182.942,243.150421137
182.957,243.029794575
182.972,242.912366573
182.987,242.798292472
183.002,242.687729837
183.017,242.58083818
183.032,242.47777864
183.047,242.378713608
183.062,242.283806289
183.077,242.193220186
183.092,242.107118502
183.107,242.025663452
183.122,241.949015453
183.137,241.877332207
183.152,241.81076765
183.167,241.74947077
183.182,241.693584299
183.197,241.643243279
183.212,241.598573541
183.227,241.559690107
183.242,241.526695588
183.257,241.499678608
183.367,241.488508579
183.382,241.512455155
183.397,241.542362721
183.412,241.578139857
183.427,241.619681526
183.442,241.666870658
183.457,241.719579763
183.472,241.777672504
183.487,241.841005211
183.502,241.909428275
183.517,241.982787437
183.532,242.060924931
183.547,242.143680511
183.562,242.230892334
183.577,242.322397747
183.592,242.418033951
183.607,242.517638579
183.622,242.621050195
183.637,242.728108713
183.652,242.838655763
183.667,242.952534997
183.682,243.069592358
183.697,243.1896763
183.712,243.312637977
183.727,243.438331407
183.742,243.566613602
183.757,243.697344677
183.772,243.830387941
183.787,243.965609964
183.802,244.102880633
183.817,244.242073187
183.832,244.383064244
183.847,244.525733811
183.862,244.669965289
183.877,244.815645462
183.892,244.962664482
183.907,245.110915844
183.922,245.260296356
183.937,245.410706105
183.952,245.562048411
183.967,245.714229785
183.982,245.867159881
183.997,246.020751437
184.012,246.17492023
184.027,246.329585012
184.042,246.484667452
184.057,246.640092083
184.072,246.795786232
184.087,246.951679965
184.102,247.107706025
184.117,247.263799766
184.132,247.419899096
184.147,247.575944411
184.162,247.731878537
184.177,247.887646667
184.192,248.0431963
184.207,248.198477183
184.222,248.35344125
184.237,248.508042563
184.252,248.662237255
184.267,248.815983473
184.282,248.969241321
184.297,249.121972805
184.312,249.274141778
184.327,249.425713888
184.342,249.57665652
184.357,249.726938753
184.372,249.876531298
184.387,250.025406459
184.402,250.173538075
184.417,250.320901476
184.432,250.467473436
184.447,250.613232123
184.462,250.758157059
184.477,250.902229069
184.492,251.045430244
184.507,251.187743893
184.522,251.329154503
184.537,251.469647698
184.552,251.6092102
184.56,251.683258724
184.567,251.747829789
184.582,251.885495264
184.597,252.022196406
184.612,252.157923943
184.627,252.292669512
184.642,252.426425626
184.657,252.559185641
184.672,252.690943719
184.687,252.8216948
184.702,252.951434571
184.717,253.080159429
184.732,253.207866459
184.747,253.334553403
184.762,253.460218629
184.777,253.584861105
184.792,253.708480377
184.807,253.831076536
184.822,253.952650197
184.837,254.073202476
184.852,254.192734963
184.867,254.311249703
184.882,254.42874917
184.897,254.54523625
184.912,254.660714214
184.927,254.775186707
184.942,254.88865772
184.957,255.001131577
184.972,255.112612912
184.987,255.223106659
185.002,255.332618026
185.017,255.441152487
185.032,255.548715759
185.047,255.655313793
185.062,255.760952756
185.077,255.865639019
185.092,255.969379141
185.107,256.072179857
185.122,256.174048067
185.137,256.274990823
185.152,256.375015317
185.167,256.474128868
185.182,256.572338916
185.197,256.669653009
185.212,256.766078792
185.227,256.861624
185.242,256.956296448
185.257,257.050104022
185.272,257.143054672
185.287,257.235156401
185.302,257.326417261
185.31,257.37474869
185.317,257.416845344
185.332,257.506448777
185.347,257.595235712
185.362,257.683214321
185.377,257.770392793
185.392,257.856779323
185.407,257.942382112
185.422,258.027209358
185.437,258.111269251
185.452,258.194569973
185.467,258.277119687
185.482,258.358926538
185.497,258.439998644
185.512,258.5203441
185.527,258.599970966
185.542,258.678887267
185.557,258.757100993
185.572,258.83462009
185.587,258.911452462
185.602,258.987605966
185.617,259.06308841
185.632,259.137907549
185.647,259.212071088
185.662,259.285586674
185.677,259.358461896
185.692,259.430704284
185.707,259.502321309
185.722,259.573320377
185.737,259.64370883
185.752,259.713493947
185.767,259.782682936
185.782,259.851282943
185.797,259.919301039
185.812,259.986744231
185.827,260.053619451
185.842,260.119933562
185.857,260.185693355
185.872,260.250905547
185.887,260.315576783
185.902,260.379713632
185.917,260.443322593
185.932,260.506410086
185.947,260.56898246
185.96,260.622800025
185.962,260.631045986
185.977,260.692606862
185.992,260.753671209
186.007,260.814245074
186.022,260.874334427
186.037,260.933945165
186.052,260.993083107
186.06,261.024432008
186.067,261.051753998
186.082,261.109963506
186.097,261.167717228
186.112,261.225020681
186.127,261.281879311
186.142,261.338298488
186.157,261.394283508
186.172,261.449839593
186.187,261.504971893
186.202,261.559685482
186.217,261.613985363
186.232,261.667876467
186.247,261.72136365
186.262,261.7744517
186.277,261.827145331
186.292,261.879449188
186.307,261.931367845
186.322,261.982905805
186.337,262.034067503
186.352,262.084857306
186.367,262.135279509
186.382,262.185338342
186.397,262.235037968
186.412,262.284382482
186.427,262.333375912
186.442,262.382022221
186.457,262.430325307
186.472,262.478289004
186.487,262.525917081
186.502,262.573213242
186.517,262.620181131
186.532,262.666824327
186.547,262.713146349
186.562,262.759150653
186.577,262.804840637
186.592,262.850219635
186.607,262.895290924
186.622,262.940057722
186.637,262.984523188
186.652,263.028690424
186.667,263.072562472
186.682,263.116142322
186.697,263.159432903
186.71,263.196719646
186.712,263.202437093
186.727,263.245157711
186.742,263.287597524
186.757,263.329759245
186.772,263.371645534
186.787,263.413258998
186.802,263.454602191
186.817,263.495677617
186.832,263.536487729
186.847,263.577034929
186.862,263.617321568
186.877,263.657349952
186.892,263.697122333
186.907,263.73664092
186.922,263.77590787
186.937,263.814925297
186.952,263.853695265
186.967,263.892219795
186.982,263.930500862
186.997,263.968540396
187.012,264.006340282
187.027,264.043902363
187.042,264.081228438
187.057,264.118320264
187.072,264.155179555
187.087,264.191807984
187.102,264.228207185
187.117,264.264378749
187.132,264.300324228
187.147,264.336045136
187.162,264.371542946
187.177,264.406819095
187.192,264.441874981
187.207,264.476711965
187.222,264.511331373
187.237,264.545734492
187.252,264.579922576
187.267,264.613896842
187.282,264.647658473
187.297,264.68120862
187.312,264.714548398
187.327,264.74767889
187.342,264.780601146
187.357,264.813316186
187.372,264.845824995
187.387,264.87812853
187.402,264.910227716
187.417,264.94212345
187.432,264.973816597
187.447,265.005307995
187.46,265.032437974
187.462,265.036598453
187.477,265.067688752
187.492,265.098579645
187.507,265.129271858
187.522,265.159766092
187.537,265.190063021
187.552,265.220163293
187.567,265.250067532
187.582,265.279776337
187.597,265.309290283
187.612,265.33860992
187.627,265.367735778
187.642,265.396668362
187.657,265.425408156
187.672,265.45395562
187.687,265.482311196
187.702,265.510475303
187.717,265.538448341
187.732,265.566230689
187.747,265.593822708
187.762,265.621224737
187.777,265.648437101
187.792,265.675460104
187.807,265.702294032
187.822,265.728939155
187.837,265.755395727
187.852,265.781663983
187.867,265.807744146
187.882,265.83363642
187.897,265.859340996
187.912,265.88485805
187.927,265.910187742
187.942,265.935330221
187.957,265.960285622
187.972,265.985054066
187.987,266.009635662
188.002,266.034030506
188.017,266.058238685
188.032,266.082260271
188.047,266.106095327
188.062,266.129743907
188.077,266.153206051
188.092,266.176481793
188.107,266.199571155
188.122,266.22247415
188.137,266.245190785
188.152,266.267721055
188.167,266.290064951
188.182,266.312222453
188.197,266.334193535
188.21,266.353084321
188.212,266.355978164
188.227,266.377576301
188.242,266.398987901
188.257,266.420212912
188.272,266.441251278
188.287,266.462102935
188.302,266.482767817
188.317,266.503245853
188.332,266.523536967
188.347,266.543641078
188.362,266.563558104
188.377,266.583287958
188.392,266.602830551
188.407,266.622185789
188.422,266.641353578
188.437,266.660333822
188.452,266.679126421
188.467,266.697731274
188.482,266.716148281
188.497,266.734377338
188.512,266.752418342
188.527,266.770271189
188.542,266.787935774
188.557,266.805411994
188.572,266.822699743
188.587,266.839798918
188.602,266.856709417
188.617,266.873431137
188.632,266.889963978
188.647,266.906307839
188.66,266.92031958
188.662,266.922462623
188.677,266.938428235
188.692,266.954204579
188.707,266.969791565
188.722,266.985189103
188.737,267.000397106
