# 01004 ENAS Ny-Alesund Ii Observations at 12Z 09 Feb 2019
Frequency [GHz],TB
175.31,211.155603049
175.322,211.226270496
175.337,211.314822366
175.352,211.403616264
175.367,211.492652495
175.382,211.58193136
175.397,211.671453151
175.412,211.761218156
175.427,211.851226654
175.442,211.941478916
175.457,212.03197521
175.472,212.122715794
175.487,212.213700917
175.502,212.304930826
175.517,212.396405753
175.532,212.488125929
175.547,212.580091573
175.562,212.672302897
175.577,212.764760106
175.592,212.857463395
175.607,212.950412952
175.622,213.043608956
175.637,213.137051576
175.652,213.230740974
175.667,213.324677302
175.682,213.418860704
175.697,213.513291311
175.712,213.60796925
175.727,213.702894634
175.742,213.798067569
175.757,213.893488149
175.772,213.989156459
175.787,214.085072574
175.802,214.181236557
175.817,214.277648462
175.832,214.374308332
175.847,214.4712162
175.862,214.568372084
175.877,214.665775996
175.892,214.763427931
175.907,214.861327879
175.922,214.959475813
175.937,215.057871694
175.952,215.156515475
175.967,215.255407093
175.982,215.354546473
175.997,215.453933529
176.012,215.553568159
176.027,215.65345025
176.042,215.753579678
176.057,215.8539563
176.072,215.954579965
176.087,216.055450503
176.102,216.156567733
176.117,216.257931459
176.132,216.359541471
176.147,216.461397542
176.162,216.563499433
176.177,216.665846889
176.192,216.768439637
176.207,216.871277393
176.222,216.974359853
176.237,217.0776867
176.252,217.181257598
176.267,217.285072198
176.282,217.38913013
176.297,217.493431011
176.31,217.584021316
176.312,217.597974438
176.327,217.702759993
176.342,217.807787237
176.357,217.913055718
176.372,218.01856496
176.387,218.124314473
176.402,218.230303747
176.417,218.336532253
176.432,218.442999443
176.447,218.549704748
176.46,218.642374836
176.462,218.656647583
176.477,218.76382734
176.492,218.871243393
176.507,218.978895092
176.522,219.08678177
176.537,219.194902739
176.552,219.303257286
176.567,219.41184468
176.582,219.520664167
176.597,219.629714972
176.612,219.738996296
176.627,219.848507319
176.642,219.958247195
176.657,220.068215059
176.672,220.17841002
176.687,220.288831164
176.702,220.399477552
176.717,220.510348222
176.732,220.621442187
176.747,220.732758434
176.762,220.844295926
176.777,220.9560536
176.792,221.068030366
176.807,221.180225109
176.822,221.292636688
176.837,221.405263936
176.852,221.518105654
176.867,221.631160621
176.882,221.744427587
176.897,221.857905272
176.912,221.971592369
176.927,222.085487543
176.942,222.199589427
176.957,222.313896628
176.972,222.428407722
176.987,222.543121255
177.002,222.65803574
177.017,222.773149666
177.032,222.888461485
177.047,223.003969617
177.062,223.119672456
177.077,223.235568359
177.092,223.351655652
177.107,223.467932629
177.122,223.58439755
177.137,223.701048642
177.152,223.817884097
177.167,223.934902075
177.182,224.0521007
177.197,224.169478061
177.21,224.271348181
177.212,224.287032212
177.227,224.404761172
177.242,224.522662925
177.257,224.640735415
177.272,224.758976553
177.287,224.877384211
177.302,224.995956225
177.31,225.059261077
177.317,225.114690393
177.332,225.233584472
177.347,225.352636186
177.362,225.471843215
177.377,225.591203203
177.392,225.710713752
177.407,225.830372426
177.422,225.950176748
177.437,226.070124201
177.452,226.190212226
177.467,226.310438222
177.482,226.430799548
177.497,226.55129352
177.512,226.671917412
177.527,226.792668453
177.542,226.913543833
177.557,227.034540693
177.572,227.155656133
177.587,227.276887211
177.602,227.398230935
177.617,227.519684273
177.632,227.641244144
177.647,227.762907423
177.66,227.868430127
177.662,227.884670938
177.677,228.006531472
177.692,228.12848576
177.707,228.25053049
177.722,228.372662302
177.737,228.494877788
177.752,228.617173494
177.767,228.739545915
177.782,228.861991498
177.797,228.984506641
177.812,229.107087692
177.827,229.22973095
177.842,229.352432662
177.857,229.475189027
177.872,229.597996191
177.887,229.720850249
177.902,229.843747246
177.917,229.966683174
177.932,230.089653975
177.947,230.212655535
177.96,230.319278549
177.962,230.335683689
177.977,230.45873422
177.992,230.581802859
178.007,230.704885279
178.022,230.827977103
178.037,230.9510739
178.052,231.074171182
178.067,231.197264409
178.082,231.320348985
178.097,231.44342026
178.112,231.566473528
178.127,231.689504028
178.142,231.812506943
178.157,231.935477399
178.172,232.05841047
178.187,232.181301169
178.202,232.304144455
178.217,232.426935231
178.232,232.549668342
178.247,232.672338576
178.262,232.794940666
178.277,232.917469285
178.292,233.039919051
178.307,233.162284524
178.322,233.284560207
178.337,233.406740543
178.352,233.528819922
178.367,233.650792672
178.382,233.772653067
178.397,233.894395319
178.41,233.999805194
178.412,234.016013588
178.427,234.137501971
178.442,234.258854509
178.457,234.380065188
178.472,234.501127932
178.487,234.622036612
178.502,234.742785037
178.517,234.863366962
178.532,234.983776083
178.547,235.10400604
178.562,235.224050415
178.577,235.343902734
178.592,235.463556466
178.607,235.583005022
178.622,235.702241761
178.637,235.82125998
178.652,235.940052927
178.667,236.058613788
178.682,236.176935698
178.697,236.295011736
178.712,236.412834927
178.727,236.53039824
178.742,236.647694592
178.757,236.764716847
178.772,236.881457815
178.787,236.997910252
178.802,237.114066866
178.817,237.229920309
178.832,237.345463186
178.847,237.460688049
178.862,237.5755874
178.877,237.690153694
178.892,237.804379335
178.907,237.91825668
178.922,238.031778038
178.937,238.144935674
178.952,238.257721803
178.967,238.370128598
178.982,238.482148187
178.997,238.593772653
179.012,238.70499404
179.027,238.815804345
179.042,238.926195528
179.057,239.036159509
179.072,239.145688166
179.087,239.254773343
179.102,239.363406846
179.117,239.471580442
179.132,239.579285867
179.147,239.686514822
179.16,239.779054733
179.162,239.793258975
179.177,239.899509965
179.192,240.005259398
179.207,240.110498853
179.222,240.215219881
179.237,240.319414007
179.252,240.423072732
179.267,240.526187531
179.282,240.628749861
179.297,240.730751155
179.312,240.83218283
179.327,240.933036282
179.342,241.033302895
179.357,241.132974036
179.372,241.23204106
179.387,241.330495313
179.402,241.428328129
179.417,241.525530835
179.432,241.622094755
179.447,241.718011206
179.462,241.813271504
179.477,241.907866966
179.492,242.001788909
179.507,242.095028654
179.522,242.18757753
179.537,242.279426872
179.552,242.370568025
179.567,242.460992344
179.582,242.550691203
179.597,242.639655987
179.612,242.727878104
179.627,242.815348978
179.642,242.902060061
179.657,242.988002826
179.672,243.073168776
179.687,243.157549443
179.702,243.241136391
179.717,243.32392122
179.732,243.405895566
179.747,243.487051105
179.762,243.567379556
179.777,243.646872681
179.792,243.725522291
179.807,243.803320246
179.822,243.880258458
179.837,243.956328895
179.852,244.031523582
179.867,244.105834606
179.882,244.179254114
179.897,244.251774323
179.91,244.31389177
179.912,244.323387514
179.927,244.394086044
179.942,244.463862339
179.957,244.532708908
179.972,244.600618333
179.987,244.667583284
180.002,244.733596515
180.017,244.798650865
180.032,244.862739268
180.047,244.925854749
180.062,244.987990432
180.077,245.049139541
180.092,245.109295398
180.107,245.168451436
180.122,245.226601192
180.137,245.283738316
180.152,245.339856573
180.167,245.394949841
180.182,245.449012122
180.197,245.502037536
180.212,245.554020334
180.227,245.604954889
180.242,245.654835708
180.257,245.703657433
180.272,245.751414839
180.287,245.798102842
180.302,245.843716501
180.317,245.888251017
180.332,245.931701741
180.347,245.974064171
180.362,246.01533396
180.377,246.055506915
180.392,246.094578999
180.407,246.132546339
180.422,246.169405221
180.437,246.205152097
180.452,246.239783587
180.467,246.273296479
180.482,246.305687737
180.497,246.336954494
180.512,246.367094063
180.527,246.396103933
180.542,246.423981776
180.557,246.450725444
180.56,246.455937901
180.572,246.476332977
180.587,246.500802597
180.602,246.524132718
180.617,246.546321942
180.632,246.567369065
180.647,246.587273072
180.66,246.603597921
180.662,246.606033146
180.677,246.623648668
180.692,246.640119212
180.707,246.655444556
180.722,246.669624675
180.737,246.682659746
180.752,246.694550152
180.767,246.705296474
180.782,246.714899502
180.797,246.723360231
180.812,246.73067986
180.827,246.736859797
180.842,246.741901656
180.857,246.745807261
180.872,246.748578643
180.887,246.750218042
180.902,246.750727908
180.917,246.750110899
180.932,246.748369883
180.947,246.745507937
180.962,246.741528348
180.977,246.736434611
180.992,246.730230431
181.007,246.722919721
181.022,246.714506601
181.037,246.704995401
181.052,246.694390655
181.067,246.682697106
181.082,246.6699197
181.097,246.65606359
181.112,246.64113413
181.127,246.625136881
181.142,246.6080776
181.157,246.58996225
181.172,246.570796991
181.187,246.55058818
181.202,246.529342372
181.217,246.507066319
181.232,246.483766965
181.247,246.459451446
181.262,246.43412709
181.277,246.407801414
181.292,246.380482124
181.307,246.352177109
181.31,246.346398527
181.322,246.322894446
181.337,246.292642391
181.352,246.261429382
181.367,246.229264038
181.382,246.19615515
181.397,246.162111691
181.412,246.1271428
181.427,246.091257794
181.442,246.054466154
181.457,246.016777533
181.472,245.978201747
181.487,245.938748777
181.502,245.898428765
181.517,245.857252016
181.532,245.815228988
181.547,245.772370301
181.562,245.728686726
181.577,245.684189189
181.592,245.638888765
181.607,245.592796681
181.622,245.545924311
181.637,245.498283173
181.652,245.449884933
181.667,245.400741399
181.682,245.350864521
181.697,245.300266388
181.712,245.248959229
181.727,245.196955413
181.742,245.144267441
181.757,245.090907954
181.772,245.036889724
181.787,244.982225659
181.802,244.926928797
181.817,244.87101231
181.832,244.814489499
181.847,244.757373794
181.862,244.699678757
181.877,244.641418077
181.892,244.582605569
181.907,244.523255178
181.922,244.463380974
181.937,244.402997153
181.952,244.342118036
181.967,244.28075807
181.982,244.218931824
181.997,244.156653993
182.012,244.093939391
182.027,244.030802957
182.042,243.967259749
182.057,243.903324944
182.06,243.890492335
182.072,243.839013838
182.087,243.774341845
182.102,243.709324491
182.117,243.643977419
182.132,243.578316378
182.147,243.512357229
182.162,243.446115936
182.177,243.379608564
182.192,243.312851275
182.207,243.245860323
182.222,243.17865205
182.237,243.111242877
182.252,243.043649297
182.267,242.97588787
182.282,242.907975209
182.297,242.839927974
182.312,242.771762857
182.327,242.703496566
182.342,242.635145817
182.357,242.56672731
182.372,242.498257712
182.387,242.429753634
182.402,242.361231607
182.417,242.292708057
182.432,242.224199268
182.447,242.155721352
182.462,242.087290209
182.477,242.01892148
182.492,241.950630505
182.507,241.88243226
182.522,241.814341302
182.537,241.746371698
182.552,241.678536947
182.567,241.610849894
182.582,241.543322636
182.597,241.475966409
182.612,241.408791471
182.627,241.341806958
182.642,241.275020738
182.657,241.208439229
182.672,241.142067208
182.687,241.075907587
182.702,241.009961162
182.717,240.944226329
182.732,240.878698759
182.747,240.813371032
182.762,240.748232215
182.777,240.683267385
182.792,240.618457076
182.807,240.553776652
182.822,240.489195576
182.837,240.424676578
182.852,240.360174678
182.867,240.295636064
182.882,240.23099678
182.897,240.166181198
182.912,240.101100222
182.927,240.035649188
182.942,239.969705376
182.957,239.903125083
182.972,239.835740134
182.987,239.767353739
183.002,239.697735538
183.017,239.626615652
183.032,239.553677536
183.047,239.478549329
183.062,239.400793391
183.077,239.319893578
183.092,239.235239779
183.107,239.146109134
183.122,239.051643394
183.137,238.950822118
183.152,238.842432235
183.167,238.725036851
183.182,238.596952189
183.197,238.456256445
183.212,238.300890655
183.227,238.128998249
183.242,237.939846716
183.257,237.736065895
183.367,237.774712634
183.382,237.971931472
183.397,238.153397033
183.412,238.317642832
183.427,238.465817105
183.442,238.599875443
183.457,238.721855516
183.472,238.833619269
183.487,238.936784063
183.502,239.032725298
183.517,239.122602761
183.532,239.207391998
183.547,239.287913868
183.562,239.364860225
183.577,239.438815478
183.592,239.510274434
183.607,239.579656989
183.622,239.647320203
183.637,239.713568259
183.652,239.778660677
183.667,239.842819128
183.682,239.906233102
183.697,239.969064629
183.712,240.031452248
183.727,240.093514329
183.742,240.155351885
183.757,240.217050946
183.772,240.27868458
183.787,240.34031461
183.802,240.401993085
183.817,240.46376354
183.832,240.525662079
183.847,240.587718307
183.862,240.649956144
183.877,240.712394517
183.892,240.775047978
183.907,240.837927229
183.922,240.901039585
183.937,240.964389385
183.952,241.027978346
183.967,241.091805875
183.982,241.155869344
183.997,241.220164339
184.012,241.284684869
184.027,241.349423562
184.042,241.41437183
184.057,241.479520021
184.072,241.544857551
184.087,241.610373027
184.102,241.676054345
184.117,241.741888792
184.132,241.807863125
184.147,241.873963648
184.162,241.940176279
184.177,242.006486608
184.192,242.072879953
184.207,242.139341406
184.222,242.205855874
184.237,242.27240812
184.252,242.338982796
184.267,242.405564472
184.282,242.472137661
184.297,242.53868685
184.312,242.605196514
184.327,242.671651135
184.342,242.738035227
184.357,242.804333339
184.372,242.870530076
184.387,242.93661011
184.402,243.002558185
184.417,243.068359133
184.432,243.133997873
184.447,243.199459427
184.462,243.264728918
184.477,243.32979158
184.492,243.394632759
184.507,243.45923792
184.522,243.523592646
184.537,243.587682642
184.552,243.651493741
184.56,243.685407434
184.567,243.715011898
184.582,243.778223199
184.597,243.841113857
184.612,243.903670216
184.627,243.965878747
184.642,244.027726056
184.657,244.089198876
184.672,244.150284072
184.687,244.210968642
184.702,244.271239711
184.717,244.331084537
184.732,244.390490509
184.747,244.449445146
184.762,244.507936095
184.777,244.565951136
184.792,244.623478176
184.807,244.680505253
184.822,244.737020533
184.837,244.793012313
184.852,244.848469017
184.867,244.903379198
184.882,244.957731541
184.897,245.011514855
184.912,245.064718081
184.927,245.117330289
184.942,245.169340678
184.957,245.220738577
184.972,245.271513443
184.987,245.321654865
185.002,245.371152562
185.017,245.419996386
185.032,245.468176318
185.047,245.515682473
185.062,245.562505098
185.077,245.608634575
185.092,245.654061419
185.107,245.698776281
185.122,245.742769949
185.137,245.786033345
185.152,245.828557532
185.167,245.87033371
185.182,245.911353219
185.197,245.951607542
185.212,245.991088301
185.227,246.029787262
185.242,246.067696336
185.257,246.104807576
185.272,246.141113186
185.287,246.176605513
185.302,246.211277055
185.31,246.229430389
185.317,246.245120458
185.332,246.27812852
185.347,246.31029419
185.362,246.341610571
185.377,246.372070918
185.392,246.401668642
185.407,246.430397312
185.422,246.458250651
185.437,246.485222543
185.452,246.511307028
185.467,246.536498311
185.482,246.560790753
185.497,246.58417888
185.512,246.606657379
185.527,246.628221103
185.542,246.648865068
185.557,246.668584454
185.572,246.68737461
185.587,246.705231049
185.602,246.72214945
185.617,246.738125665
185.632,246.753155707
185.647,246.767235764
185.662,246.780362188
185.677,246.792531504
185.692,246.803740404
185.707,246.813985752
185.722,246.82326458
185.737,246.831574091
185.752,246.838911658
185.767,246.845274823
185.782,246.850661301
185.797,246.855068974
185.812,246.858495894
185.827,246.860940282
185.842,246.862400531
185.857,246.862875199
185.872,246.862363014
185.887,246.860862871
185.902,246.858373832
185.917,246.854895127
185.932,246.850426149
185.947,246.844966459
185.96,246.839433133
185.962,246.838515779
185.977,246.831073998
185.992,246.822641163
186.007,246.813217487
186.022,246.802803339
186.037,246.79139925
186.052,246.779005908
186.06,246.771991916
186.067,246.765624158
186.082,246.751255
186.097,246.73589959
186.112,246.719559234
186.127,246.702235393
186.142,246.683929675
186.157,246.664643839
186.172,246.644379787
186.187,246.623139572
186.202,246.600925385
186.217,246.577739564
186.232,246.553584583
186.247,246.528463058
186.262,246.50237774
186.277,246.475331515
186.292,246.447327402
186.307,246.418368553
186.322,246.388458246
186.337,246.357599889
186.352,246.325797015
186.367,246.293053278
186.382,246.259372457
186.397,246.224758447
186.412,246.189215263
186.427,246.152747031
186.442,246.115357995
186.457,246.077052505
186.472,246.037835024
186.487,245.997710118
186.502,245.956682459
186.517,245.914756821
186.532,245.871938078
186.547,245.828231201
186.562,245.783641259
186.577,245.73817341
186.592,245.691832907
186.607,245.64462509
186.622,245.596555386
186.637,245.547629306
186.652,245.497852445
186.667,245.447230475
186.682,245.395769147
186.697,245.34347429
186.71,245.297482405
186.712,245.290351801
186.727,245.236407654
186.742,245.181647886
186.757,245.126078607
186.772,245.069705985
186.787,245.012536255
186.802,244.95457571
186.817,244.895830702
186.832,244.836307637
186.847,244.776012978
186.862,244.714953236
186.877,244.653134974
186.892,244.590564801
186.907,244.527249372
186.922,244.463195385
186.937,244.398409579
186.952,244.332898734
186.967,244.266669665
186.982,244.199729223
186.997,244.132084293
187.012,244.06374179
187.027,243.99470866
187.042,243.924991877
187.057,243.854598437
187.072,243.783535365
187.087,243.711809705
187.102,243.639428521
187.117,243.566398896
187.132,243.492727931
187.147,243.418422742
187.162,243.343490455
187.177,243.267938213
187.192,243.191773163
187.207,243.115002465
187.222,243.037633283
187.237,242.95967279
187.252,242.881128157
187.267,242.802006561
187.282,242.722315179
187.297,242.642061186
187.312,242.561251757
187.327,242.479894061
187.342,242.397995263
187.357,242.315562521
187.372,242.232602986
187.387,242.1491238
187.402,242.065132093
187.417,241.980634986
187.432,241.895639583
187.447,241.81015298
187.46,241.735672733
187.462,241.724182252
187.477,241.63773446
187.492,241.550816649
187.507,241.463435842
187.522,241.375599047
187.537,241.287313245
187.552,241.198585401
187.567,241.109422455
187.582,241.019831323
187.597,240.929818896
187.612,240.83939204
187.627,240.748557596
187.642,240.657322375
187.657,240.565693162
187.672,240.473676711
187.687,240.381279749
187.702,240.288508969
187.717,240.195371035
187.732,240.101872578
187.747,240.008020197
187.762,239.913820457
187.777,239.819279889
187.792,239.724404988
187.807,239.629202217
187.822,239.533677999
187.837,239.437838723
187.852,239.34169074
187.867,239.245240363
187.882,239.148493869
187.897,239.051457493
187.912,238.954137434
187.927,238.856539848
187.942,238.758670855
187.957,238.660536532
187.972,238.562142916
187.987,238.463496001
188.002,238.364601743
188.017,238.265466053
188.032,238.1660948
188.047,238.066493813
188.062,237.966668876
188.077,237.866625729
188.092,237.766370071
188.107,237.665907555
188.122,237.565243793
188.137,237.464384351
188.152,237.36333475
188.167,237.262100468
188.182,237.160686938
188.197,237.059099548
188.21,236.970920641
188.212,236.957343642
188.227,236.855424517
188.242,236.753347426
188.257,236.651117578
188.272,236.548740135
188.287,236.446220212
188.302,236.343562882
188.317,236.240773171
188.332,236.137856058
188.347,236.034816479
188.362,235.931659321
188.377,235.828389428
188.392,235.725011599
188.407,235.621530585
188.422,235.517951091
188.437,235.41427778
188.452,235.310515263
188.467,235.206668115
188.482,235.102740856
188.497,234.998737967
188.512,234.894663881
188.527,234.790522985
188.542,234.686319624
188.557,234.582058094
188.572,234.47774265
188.587,234.3733775
188.602,234.268966806
188.617,234.164514691
188.632,234.060025225
188.647,233.955502442
188.66,233.864892161
188.662,233.850950327
188.677,233.746372822
188.692,233.641773827
188.707,233.537157195
188.722,233.43252674
188.737,233.327886229
