# 78954 TBPB Grantley Adams Observations at 12Z 09 Feb 2019
Frequency [GHz],TB
175.31,283.685429649
175.322,283.672684841
175.337,283.65664463
175.352,283.640483
175.367,283.624199864
175.382,283.607795137
175.397,283.591268733
175.412,283.57462057
175.427,283.557850565
175.442,283.540958639
175.457,283.523944712
175.472,283.506808707
175.487,283.489550548
175.502,283.47217016
175.517,283.454667468
175.532,283.437042402
175.547,283.419294889
175.562,283.401424859
175.577,283.383432244
175.592,283.365316976
175.607,283.347078988
175.622,283.328718215
175.637,283.310234592
175.652,283.291628056
175.667,283.272898544
175.682,283.254045995
175.697,283.235070348
175.712,283.215971544
175.727,283.196749524
175.742,283.177404229
175.757,283.157935602
175.772,283.138343587
175.787,283.118628127
175.802,283.098789168
175.817,283.078826656
175.832,283.058740535
175.847,283.038530752
175.862,283.018197256
175.877,282.997739992
175.892,282.977158909
175.907,282.956453955
175.922,282.935625078
175.937,282.914672229
175.952,282.893595354
175.967,282.872394405
175.982,282.85106933
175.997,282.829620078
176.012,282.8080466
176.027,282.786348844
176.042,282.76452676
176.057,282.742580298
176.072,282.720509406
176.087,282.698314034
176.102,282.67599413
176.117,282.653549643
176.132,282.630980519
176.147,282.608286708
176.162,282.585468156
176.177,282.562524809
176.192,282.539456613
176.207,282.516263514
176.222,282.492945456
176.237,282.469502382
176.252,282.445934235
176.267,282.422240958
176.282,282.398422491
176.297,282.374478774
176.31,282.353626193
176.312,282.350409747
176.327,282.326215346
176.342,282.301895508
176.357,282.277450169
176.372,282.252879261
176.387,282.228182719
176.402,282.203360471
176.417,282.178412449
176.432,282.153338579
176.447,282.128138788
176.46,282.106197054
176.462,282.102812999
176.477,282.077361137
176.492,282.05178312
176.507,282.026078868
176.522,282.000248297
176.537,281.974291322
176.552,281.948207855
176.567,281.921997806
176.582,281.895661083
176.597,281.869197591
176.612,281.842607234
176.627,281.81588991
176.642,281.789045519
176.657,281.762073955
176.672,281.73497511
176.687,281.707748874
176.702,281.680395133
176.717,281.65291377
176.732,281.625304667
176.747,281.5975677
176.762,281.569702743
176.777,281.541709667
176.792,281.513588339
176.807,281.485338624
176.822,281.456960381
176.837,281.428453467
176.852,281.399817735
176.867,281.371053035
176.882,281.342159211
176.897,281.313136105
176.912,281.283983554
176.927,281.254701393
176.942,281.225289449
176.957,281.195747548
176.972,281.16607551
176.987,281.136273151
177.002,281.106340283
177.017,281.076276712
177.032,281.046082242
177.047,281.01575667
177.062,280.985299788
177.077,280.954711384
177.092,280.923991242
177.107,280.893139139
177.122,280.862154847
177.137,280.831038134
177.152,280.799788763
177.167,280.76840649
177.182,280.736891066
177.197,280.705242237
177.21,280.677705141
177.212,280.673459743
177.227,280.641543319
177.242,280.609492693
177.257,280.577307587
177.272,280.54498772
177.287,280.512532801
177.302,280.479942535
177.31,280.462505614
177.317,280.44721662
177.332,280.41435475
177.347,280.38135661
177.362,280.348221878
177.377,280.31495023
177.392,280.28154133
177.407,280.247994838
177.422,280.214310409
177.437,280.180487688
177.452,280.146526314
177.467,280.11242592
177.482,280.078186132
177.497,280.043806568
177.512,280.009286839
177.527,279.974626549
177.542,279.939825296
177.557,279.904882667
177.572,279.869798246
177.587,279.834571607
177.602,279.799202316
177.617,279.763689933
177.632,279.72803401
177.647,279.692234088
177.66,279.661090654
177.662,279.656289706
177.677,279.62020039
177.692,279.58396566
177.707,279.547585028
177.722,279.511057999
177.737,279.474384066
177.752,279.437562719
177.767,279.400593435
177.782,279.363475686
177.797,279.326208933
177.812,279.28879263
177.827,279.251226223
177.842,279.213509148
177.857,279.175640833
177.872,279.137620697
177.887,279.09944815
177.902,279.061122594
177.917,279.022643422
177.932,278.984010018
177.947,278.945221755
177.96,278.911479509
177.962,278.906278001
177.977,278.867178111
177.992,278.827921433
178.007,278.788507304
178.022,278.748935056
178.037,278.709204006
178.052,278.669313465
178.067,278.629262735
178.082,278.589051106
178.097,278.548677861
178.112,278.508142273
178.127,278.467443604
178.142,278.426581109
178.157,278.385554029
178.172,278.344361601
178.187,278.303003048
178.202,278.261477584
178.217,278.219784416
178.232,278.177922736
178.247,278.135891731
178.262,278.093690577
178.277,278.051318437
178.292,278.008774468
178.307,277.966057815
178.322,277.923167613
178.337,277.880102988
178.352,277.836863054
178.367,277.793446917
178.382,277.749853672
178.397,277.706082404
178.41,277.668002588
178.412,277.662132186
178.427,277.618002084
178.442,277.573691153
178.457,277.529198435
178.472,277.484522965
178.487,277.439663766
178.502,277.394619851
178.517,277.349390223
178.532,277.303973875
178.547,277.258369789
178.562,277.212576937
178.577,277.16659428
178.592,277.12042077
178.607,277.074055347
178.622,277.027496941
178.637,276.980744474
178.652,276.933796853
178.667,276.88665298
178.682,276.839311742
178.697,276.791772019
178.712,276.744032677
178.727,276.696092576
178.742,276.647950562
178.757,276.599605472
178.772,276.551056133
178.787,276.502301362
178.802,276.453339965
178.817,276.404170736
178.832,276.354792461
178.847,276.305203916
178.862,276.255403865
178.877,276.205391063
178.892,276.155164254
178.907,276.104722172
178.922,276.054063541
178.937,276.003187074
178.952,275.952091476
178.967,275.90077544
178.982,275.849237649
178.997,275.797476777
179.012,275.745491487
179.027,275.693280433
179.042,275.640842259
179.057,275.588175597
179.072,275.535279073
179.087,275.4821513
179.102,275.428790882
179.117,275.375196416
179.132,275.321366485
179.147,275.267299666
179.16,275.220249031
179.162,275.212994524
179.177,275.158449617
179.192,275.103663492
179.207,275.048634687
179.222,274.993361732
179.237,274.937843145
179.252,274.882077439
179.267,274.826063114
179.282,274.769798664
179.297,274.713282573
179.312,274.656513317
179.327,274.599489362
179.342,274.542209167
179.357,274.484671181
179.372,274.426873848
179.387,274.368815599
179.402,274.310494861
179.417,274.251910051
179.432,274.193059579
179.447,274.133941847
179.462,274.074555249
179.477,274.014898171
179.492,273.954968995
179.507,273.894766091
179.522,273.834287826
179.537,273.773532558
179.552,273.712498638
179.567,273.651184412
179.582,273.589588218
179.597,273.527708389
179.612,273.465543251
179.627,273.403091124
179.642,273.340350324
179.657,273.277319159
179.672,273.213995932
179.687,273.150378942
179.702,273.086466483
179.717,273.022256842
179.732,272.957748305
179.747,272.892939149
179.762,272.827827651
179.777,272.762412082
179.792,272.696690709
179.807,272.630661796
179.822,272.564323603
179.837,272.497674388
179.852,272.430712405
179.867,272.363435905
179.882,272.295843139
179.897,272.227932353
179.91,272.168817739
179.912,272.159701792
179.927,272.0911497
179.942,272.022274318
179.957,271.953073888
179.972,271.883546648
179.987,271.813690839
180.002,271.743504699
180.017,271.672986466
180.032,271.602134378
180.047,271.530946675
180.062,271.459421596
180.077,271.387557381
180.092,271.315352271
180.107,271.242804511
180.122,271.169912343
180.137,271.096674016
180.152,271.023087776
180.167,270.949151876
180.182,270.87486457
180.197,270.800224114
180.212,270.725228769
180.227,270.649876798
180.242,270.57416647
180.257,270.498096056
180.272,270.421663831
180.287,270.344868076
180.302,270.267707078
180.317,270.190179125
180.332,270.112282514
180.347,270.034015546
180.362,269.955376528
180.377,269.876363772
180.392,269.796975598
180.407,269.717210331
180.422,269.637066302
180.437,269.556541851
180.452,269.475635322
180.467,269.394345068
180.482,269.312669449
180.497,269.230606832
180.512,269.14815559
180.527,269.065314106
180.542,268.982080769
180.557,268.898453977
180.56,268.881681263
180.572,268.814432133
180.587,268.730013652
180.602,268.645196953
180.617,268.559980464
180.632,268.474362623
180.647,268.388341872
180.66,268.313463448
180.662,268.301916663
180.677,268.215085455
180.692,268.127846715
180.707,268.040198917
180.722,267.952140542
180.737,267.863670079
180.752,267.774786023
180.767,267.685486875
180.782,267.595771143
180.797,267.505637343
180.812,267.415083994
180.827,267.324109621
180.842,267.232712756
180.857,267.140891933
180.872,267.048645693
180.887,266.955972577
180.902,266.862871134
180.917,266.769339912
180.932,266.675377463
180.947,266.58098234
180.962,266.486153099
180.977,266.390888293
180.992,266.295186477
181.007,266.199046205
181.022,266.102466029
181.037,266.005444498
181.052,265.907980158
181.067,265.810071552
181.082,265.711717217
181.097,265.612915684
181.112,265.513665479
181.127,265.413965119
181.142,265.313813113
181.157,265.213207961
181.172,265.112148153
181.187,265.010632167
181.202,264.908658469
181.217,264.806225512
181.232,264.703331734
181.247,264.59997556
181.262,264.496155397
181.277,264.391869635
181.292,264.287116648
181.307,264.181894789
181.31,264.160794007
181.322,264.076202393
181.337,263.970037774
181.352,263.863399224
181.367,263.756285012
181.382,263.648693387
181.397,263.540622573
181.412,263.43207077
181.427,263.323036152
181.442,263.213516871
181.457,263.103511052
181.472,262.993016794
181.487,262.88203217
181.502,262.77055523
181.517,262.658583995
181.532,262.546116463
181.547,262.433150605
181.562,262.31968437
181.577,262.205715682
181.592,262.091242442
181.607,261.976262529
181.622,261.860773802
181.637,261.744774102
181.652,261.628261251
181.667,261.511233057
181.682,261.393687314
181.697,261.275621805
181.712,261.157034306
181.727,261.037922587
181.742,260.918284416
181.757,260.798117564
181.772,260.677419805
181.787,260.556188925
181.802,260.43442272
181.817,260.312119007
181.832,260.189275626
181.847,260.065890446
181.862,259.941961367
181.877,259.81748633
181.892,259.692463324
181.907,259.566890386
181.922,259.440765612
181.937,259.314087165
181.952,259.186853277
181.967,259.059062258
181.982,258.930712506
181.997,258.80180251
182.012,258.672330855
182.027,258.542296238
182.042,258.411697462
182.057,258.280533454
182.06,258.254232738
182.072,258.148803262
182.087,258.016506067
182.102,257.883641184
182.117,257.750208065
182.132,257.616206307
182.147,257.481635648
182.162,257.346495972
182.177,257.210787306
182.192,257.074509816
182.207,256.937663804
182.222,256.800249697
182.237,256.662268039
182.252,256.523719476
182.267,256.384604739
182.282,256.244924617
182.297,256.104679934
182.312,255.963871515
182.327,255.822500142
182.342,255.680566513
182.357,255.538071177
182.372,255.395014476
182.387,255.251396463
182.402,255.107216816
182.417,254.962474729
182.432,254.817168796
182.447,254.671296871
182.462,254.524855907
182.477,254.377841772
182.492,254.230249039
182.507,254.082070739
182.522,253.933298087
182.537,253.783920156
182.552,253.633923514
182.567,253.483291795
182.582,253.332005218
182.597,253.180040027
182.612,253.027367844
182.627,252.873954934
182.642,252.719761341
182.657,252.564739907
182.672,252.408835121
182.687,252.251981796
182.702,252.094103523
182.717,251.935110878
182.732,251.774899325
182.747,251.613346764
182.762,251.45031066
182.777,251.285624654
182.792,251.119094585
182.807,250.950493772
182.822,250.779557415
182.837,250.605975946
182.852,250.429387067
182.867,250.249366229
182.882,250.065415165
182.897,249.876948059
182.912,249.683274777
182.927,249.483580481
182.942,249.276900726
182.957,249.062090941
182.972,248.837788873
182.987,248.602368214
183.002,248.353881137
183.017,248.089986881
183.032,247.807862806
183.047,247.504093464
183.062,247.174532294
183.077,246.814129663
183.092,246.416720394
183.107,245.974764514
183.122,245.47903801
183.137,244.918279142
183.152,244.278816347
183.167,243.544248134
183.182,242.695337382
183.197,241.710467471
183.212,240.567371098
183.227,239.247536608
183.242,237.745964011
183.257,236.091022263
183.367,236.50223722
183.382,238.119165868
183.397,239.57106411
183.412,240.840692974
183.427,241.937797731
183.442,242.882431793
183.457,243.696921757
183.472,244.40233353
183.487,245.017163859
183.502,245.557073866
183.517,246.035070756
183.532,246.461850164
183.547,246.846166674
183.562,247.195176652
183.577,247.514734123
183.592,247.80963714
183.607,248.083828941
183.622,248.34056045
183.637,248.582520864
183.652,248.81194238
183.667,249.030684196
183.682,249.240299996
183.697,249.442092295
183.712,249.63715634
183.727,249.826415693
183.742,250.010651179
183.757,250.190524533
183.772,250.366597781
183.787,250.539349189
183.802,250.709186446
183.817,250.876457585
183.832,251.041460084
183.847,251.204448459
183.862,251.365640629
183.877,251.52522327
183.892,251.683356334
183.907,251.840176864
183.922,251.99580224
183.937,252.150332939
183.952,252.303854889
183.967,252.45644148
183.982,252.608155296
183.997,252.759049593
184.012,252.909169583
184.027,253.058553533
184.042,253.207233717
184.057,253.355237243
184.072,253.502586769
184.087,253.649301119
184.102,253.79539583
184.117,253.940883613
184.132,254.085774767
184.147,254.230077534
184.162,254.373798406
184.177,254.516942399
184.192,254.659513284
184.207,254.801513795
184.222,254.942945806
184.237,255.083810485
184.252,255.22410843
184.267,255.363839784
184.282,255.503004337
184.297,255.641601614
184.312,255.779630945
184.327,255.917091536
184.342,256.053982516
184.357,256.190302989
184.372,256.326052071
184.387,256.461228924
184.402,256.595832777
184.417,256.729862958
184.432,256.863318902
184.447,256.99620017
184.462,257.128506458
184.477,257.260237607
184.492,257.391393603
184.507,257.521974585
184.522,257.651980843
184.537,257.78141282
184.552,257.910271108
184.56,257.978761203
184.567,258.038556446
184.582,258.166269714
184.597,258.293411932
184.612,258.419984252
184.627,258.545987952
184.642,258.671424433
184.657,258.796295206
184.672,258.920601891
184.687,259.044346209
184.702,259.167529972
184.717,259.290155078
184.732,259.412223507
184.747,259.533737308
184.762,259.654698597
184.777,259.77510955
184.792,259.894972393
184.807,260.014289401
184.822,260.133062889
184.837,260.251295207
184.852,260.368988733
184.867,260.486145871
184.882,260.602769046
184.897,260.718860695
184.912,260.834423267
184.927,260.949459218
184.942,261.063971008
184.957,261.177961093
184.972,261.291431927
184.987,261.404385959
185.002,261.516825626
185.017,261.628753354
185.032,261.740171553
185.047,261.851082618
185.062,261.961488927
185.077,262.071392837
185.092,262.180796683
185.107,262.289702778
185.122,262.398113412
185.137,262.506030852
185.152,262.613457336
185.167,262.720395081
185.182,262.826846275
185.197,262.932813081
185.212,263.038297634
185.227,263.143302044
185.242,263.247828394
185.257,263.351878741
185.272,263.455455115
185.287,263.558559521
185.302,263.661193938
185.31,263.715740797
185.317,263.763360322
185.332,263.865060601
185.347,263.966296683
185.362,264.067070451
185.377,264.167383765
185.392,264.267238465
185.407,264.366636368
185.422,264.465579271
185.437,264.564068955
185.452,264.662107177
185.467,264.759695679
185.482,264.856836187
185.497,264.953530409
185.512,265.049780038
185.527,265.145586753
185.542,265.240952219
185.557,265.335878089
185.572,265.430366003
185.587,265.52441759
185.602,265.61803447
185.617,265.711218251
185.632,265.803970535
185.647,265.896292913
185.662,265.988186971
185.677,266.079654287
185.692,266.170696435
185.707,266.261314981
185.722,266.351511488
185.737,266.441287515
185.752,266.530644619
185.767,266.61958435
185.782,266.708108261
185.797,266.796217899
185.812,266.883914812
185.827,266.971200547
185.842,267.05807665
185.857,267.144544669
185.872,267.23060615
185.887,267.316262641
185.902,267.401515691
185.917,267.486366852
185.932,267.570817676
185.947,267.654869719
185.96,267.727393456
185.962,267.738524537
185.977,267.821783691
185.992,267.904648743
186.007,267.987121261
186.022,268.069202812
186.037,268.150894969
186.052,268.232199309
186.06,268.275403595
186.067,268.313117411
186.082,268.39365086
186.097,268.473801241
186.112,268.553570147
186.127,268.632959173
186.142,268.711969917
186.157,268.790603982
186.172,268.868862975
186.187,268.946748508
186.202,269.024262194
186.217,269.101405653
186.232,269.178180506
186.247,269.254588381
186.262,269.330630905
186.277,269.406309714
186.292,269.481626443
186.307,269.556582733
186.322,269.631180227
186.337,269.705420571
186.352,269.779305415
186.367,269.852836412
186.382,269.926015215
186.397,269.998843484
186.412,270.071322877
186.427,270.143455058
186.442,270.215241689
186.457,270.286684438
186.472,270.357784972
186.487,270.428544962
186.502,270.498966076
186.517,270.569049988
186.532,270.63879837
186.547,270.708212897
186.562,270.777295242
186.577,270.84604708
186.592,270.914470087
186.607,270.982565937
186.622,271.050336305
186.637,271.117782866
186.652,271.184907294
186.667,271.251711261
186.682,271.318196441
186.697,271.384364505
186.71,271.441454939
186.712,271.450217122
186.727,271.51575596
186.742,271.580982687
186.757,271.645898967
186.772,271.710506462
186.787,271.774806834
186.802,271.838801739
186.817,271.902492834
186.832,271.965881771
186.847,272.0289702
186.862,272.091759766
186.877,272.154252113
186.892,272.216448881
186.907,272.278351705
186.922,272.339962217
186.937,272.401282046
186.952,272.462312816
186.967,272.523056145
186.982,272.58351365
186.997,272.643686941
187.012,272.703577623
187.027,272.763187298
187.042,272.822517562
187.057,272.881570004
187.072,272.940346212
187.087,272.998847764
187.102,273.057076235
187.117,273.115033194
187.132,273.172720204
187.147,273.230138821
187.162,273.287290597
187.177,273.344177077
187.192,273.400799799
187.207,273.457160295
187.222,273.513260091
187.237,273.569100706
187.252,273.624683652
187.267,273.680010436
187.282,273.735082556
187.297,273.789901504
187.312,273.844468766
187.327,273.898785818
187.342,273.952854131
187.357,274.00667517
187.372,274.060250389
187.387,274.113581238
187.402,274.166669158
187.417,274.219515582
187.432,274.272121937
187.447,274.32448964
187.46,274.369683032
187.462,274.376620104
187.477,274.42851473
187.492,274.480174915
187.507,274.531602044
187.522,274.582797498
187.537,274.633762648
187.552,274.684498857
187.567,274.735007482
187.582,274.785289869
187.597,274.835347357
187.612,274.885181279
187.627,274.934792956
187.642,274.984183703
187.657,275.033354828
187.672,275.082307627
187.687,275.131043393
187.702,275.179563405
187.717,275.227868938
187.732,275.275961257
187.747,275.323841619
187.762,275.371511271
187.777,275.418971455
187.792,275.466223401
187.807,275.513268334
187.822,275.560107467
187.837,275.606742009
187.852,275.653173156
187.867,275.699402098
187.882,275.745430018
187.897,275.791258087
187.912,275.836887471
187.927,275.882319326
187.942,275.927554799
187.957,275.97259503
187.972,276.017441149
187.987,276.06209428
188.002,276.106555537
188.017,276.150826026
188.032,276.194906844
188.047,276.238799081
188.062,276.282503818
188.077,276.326022126
188.092,276.369355072
188.107,276.412503711
188.122,276.455469091
188.137,276.498252252
188.152,276.540854225
188.167,276.583276033
188.182,276.625518692
188.197,276.667583209
188.21,276.703895799
188.212,276.709470583
188.227,276.751181804
188.242,276.792717856
188.257,276.834079713
188.272,276.875268341
188.287,276.916284701
188.302,276.957129741
188.317,276.997804406
188.332,277.03830963
188.347,277.078646341
188.362,277.118815457
188.377,277.15881789
188.392,277.198654543
188.407,277.238326314
188.422,277.277834089
188.437,277.31717875
188.452,277.356361169
188.467,277.395382212
188.482,277.434242736
188.497,277.472943591
188.512,277.511485621
188.527,277.54986966
188.542,277.588096536
188.557,277.62616707
188.572,277.664082074
188.587,277.701842355
188.602,277.739448711
188.617,277.776901932
188.632,277.814202803
188.647,277.851352101
188.66,277.883426148
188.662,277.888350595
188.677,277.925199048
188.692,277.961898216
188.707,277.998448847
188.722,278.034851682
