# 78954 TBPB Grantley Adams Observations at 12Z 02 Jul 2019
Frequency [GHz],TB
175.31,282.121118907
175.322,282.102334106
175.337,282.078775901
175.352,282.055131639
175.367,282.031401022
175.382,282.007583748
175.397,281.983679513
175.412,281.959688009
175.427,281.935608927
175.442,281.911441954
175.457,281.887186773
175.472,281.862843067
175.487,281.838410513
175.502,281.813888786
175.517,281.789277559
175.532,281.7645765
175.547,281.739785276
175.562,281.714903548
175.577,281.689930978
175.592,281.66486722
175.607,281.639711928
175.622,281.614464751
175.637,281.589125337
175.652,281.563693328
175.667,281.538168364
175.682,281.512550081
175.697,281.486838113
175.712,281.461032088
175.727,281.435131632
175.742,281.409136368
175.757,281.383045915
175.772,281.356859887
175.787,281.330577897
175.802,281.304199552
175.817,281.277724456
175.832,281.25115221
175.847,281.22448241
175.862,281.197714649
175.877,281.170848516
175.892,281.143883597
175.907,281.116819472
175.922,281.089655718
175.937,281.06239191
175.952,281.035027615
175.967,281.0075624
175.982,280.979995826
175.997,280.952327449
176.012,280.924556823
176.027,280.896683496
176.042,280.868707013
176.057,280.840626913
176.072,280.812442734
176.087,280.784154005
176.102,280.755760256
176.117,280.727261008
176.132,280.69865578
176.147,280.669944087
176.162,280.641125436
176.177,280.612199335
176.192,280.583165282
176.207,280.554022773
176.222,280.524771301
176.237,280.495410351
176.252,280.465939404
176.267,280.436357939
176.282,280.406665427
176.297,280.376861336
176.31,280.350940453
176.312,280.346945128
176.327,280.31691626
176.342,280.286774187
176.357,280.256518354
176.372,280.226148206
176.387,280.19566318
176.402,280.165062708
176.417,280.134346219
176.432,280.103513134
176.447,280.072562871
176.46,280.045644071
176.462,280.041494842
176.477,280.010308453
176.492,279.979003107
176.507,279.947578199
176.522,279.916033121
176.537,279.884367257
176.552,279.852579987
176.567,279.820670687
176.582,279.788638725
176.597,279.756483465
176.612,279.724204264
176.627,279.691800475
176.642,279.659271445
176.657,279.626616513
176.672,279.593835017
176.687,279.560926284
176.702,279.52788964
176.717,279.494724401
176.732,279.461429879
176.747,279.428005382
176.762,279.394450207
176.777,279.360763651
176.792,279.326945001
176.807,279.292993539
176.822,279.25890854
176.837,279.224689276
176.852,279.190335009
176.867,279.155844997
176.882,279.121218492
176.897,279.086454738
176.912,279.051552973
176.927,279.016512431
176.942,278.981332337
176.957,278.946011911
176.972,278.910550365
176.987,278.874946907
177.002,278.839200736
177.017,278.803311047
177.032,278.767277025
177.047,278.731097851
177.062,278.694772698
177.077,278.658300735
177.092,278.62168112
177.107,278.584913007
177.122,278.547995542
177.137,278.510927866
177.152,278.473709111
177.167,278.436338403
177.182,278.39881486
177.197,278.361137596
177.21,278.328358931
177.212,278.323305714
177.227,278.285318313
177.242,278.247174483
177.257,278.208873308
177.272,278.170413864
177.287,278.13179522
177.302,278.09301644
177.31,278.072268619
177.317,278.054076576
177.332,278.014974677
177.347,277.975709783
177.362,277.936280926
177.377,277.896687132
177.392,277.856927418
177.407,277.817000795
177.422,277.776906265
177.437,277.736642825
177.452,277.69620946
177.467,277.655605153
177.482,277.614828874
177.497,277.573879588
177.512,277.532756254
177.527,277.491457819
177.542,277.449983225
177.557,277.408331406
177.572,277.366501288
177.587,277.324491788
177.602,277.282301817
177.617,277.239930276
177.632,277.19737606
177.647,277.154638054
177.66,277.117448916
177.662,277.111715136
177.677,277.068606177
177.692,277.025310038
177.707,276.981825572
177.722,276.938151625
177.737,276.894287035
177.752,276.85023063
177.767,276.80598123
177.782,276.761537649
177.797,276.716898691
177.812,276.67206315
177.827,276.627029815
177.842,276.581797464
177.857,276.536364868
177.872,276.490730789
177.887,276.444893979
177.902,276.398853185
177.917,276.352607142
177.932,276.306154578
177.947,276.259494212
177.96,276.218886143
177.962,276.212624755
177.977,276.165544908
177.992,276.118253364
178.007,276.070748808
178.022,276.023029916
178.037,275.975095352
178.052,275.926943777
178.067,275.878573839
178.082,275.829984177
178.097,275.781173424
178.112,275.7321402
178.127,275.682883121
178.142,275.63340079
178.157,275.583691802
178.172,275.533754745
178.187,275.483588194
178.202,275.433190718
178.217,275.382560877
178.232,275.331697219
178.247,275.280598287
178.262,275.22926261
178.277,275.177688712
178.292,275.125875106
178.307,275.073820295
178.322,275.021522774
178.337,274.968981027
178.352,274.916193532
178.367,274.863158754
178.382,274.809875149
178.397,274.756341167
178.41,274.709741314
178.412,274.702555245
178.427,274.648515811
178.442,274.594221285
178.457,274.539670077
178.472,274.484860586
178.487,274.429791204
178.502,274.37446031
178.517,274.318866278
178.532,274.263007467
178.547,274.206882231
178.562,274.150488911
178.577,274.09382584
178.592,274.036891342
178.607,273.979683728
178.622,273.922201303
178.637,273.864442359
178.652,273.806405181
178.667,273.748088042
178.682,273.689489206
178.697,273.630606926
178.712,273.571439446
178.727,273.511985001
178.742,273.452241814
178.757,273.392208099
178.772,273.331882059
178.787,273.271261888
178.802,273.210345769
178.817,273.149131876
178.832,273.087618371
178.847,273.025803407
178.862,272.963685126
178.877,272.901261661
178.892,272.838531132
178.907,272.775491652
178.922,272.71214132
178.937,272.648478227
178.952,272.584500453
178.967,272.520206066
178.982,272.455593125
178.997,272.390659678
179.012,272.325403762
179.027,272.259823403
179.042,272.193916616
179.057,272.127681406
179.072,272.061115765
179.087,271.994217677
179.102,271.926985114
179.117,271.859416034
179.132,271.791508387
179.147,271.723260112
179.16,271.663834473
179.162,271.654669134
179.177,271.585733368
179.192,271.516450718
179.207,271.446819076
179.222,271.376836322
179.237,271.306500325
179.252,271.235808941
179.267,271.164760015
179.282,271.093351381
179.297,271.021580859
179.312,270.949446258
179.327,270.876945374
179.342,270.804075991
179.357,270.73083588
179.372,270.657222801
179.387,270.583234499
179.402,270.508868709
179.417,270.434123149
179.432,270.358995529
179.447,270.283483541
179.462,270.207584866
179.477,270.131297173
179.492,270.054618113
179.507,269.977545329
179.522,269.900076444
179.537,269.822209072
179.552,269.74394081
179.567,269.665269241
179.582,269.586191934
179.597,269.506706444
179.612,269.426810308
179.627,269.346501052
179.642,269.265776184
179.657,269.184633197
179.672,269.103069569
179.687,269.021082762
179.702,268.938670222
179.717,268.855829377
179.732,268.772557641
179.747,268.68885241
179.762,268.604711063
179.777,268.520130963
179.792,268.435109454
179.807,268.349643863
179.822,268.2637315
179.837,268.177369655
179.852,268.090555601
179.867,268.003286593
179.882,267.915559865
179.897,267.827372634
179.91,267.750569038
179.912,267.738722096
179.927,267.649605428
179.942,267.560019787
179.957,267.469962309
179.972,267.379430111
179.987,267.288420288
180.002,267.196929914
180.017,267.104956043
180.032,267.012495704
180.047,266.919545909
180.062,266.826103642
180.077,266.73216587
180.092,266.637729533
180.107,266.54279155
180.122,266.447348816
180.137,266.351398202
180.152,266.254936556
180.167,266.157960701
180.182,266.060467434
180.197,265.962453531
180.212,265.863915739
180.227,265.764850782
180.242,265.665255356
180.257,265.565126135
180.272,265.464459763
180.287,265.36325286
180.302,265.261502018
180.317,265.159203803
180.332,265.056354754
180.347,264.952951383
180.362,264.848990173
180.377,264.744467582
180.392,264.639380038
180.407,264.533723943
180.422,264.427495671
180.437,264.320691566
180.452,264.213307945
180.467,264.105341099
180.482,263.996787288
180.497,263.887642746
180.512,263.777903677
180.527,263.667566258
180.542,263.556626638
180.557,263.445080939
180.56,263.422698727
180.572,263.332925255
180.587,263.220155652
180.602,263.106768169
180.617,262.992758819
180.632,262.878123588
180.647,262.762858436
180.66,262.662449293
180.662,262.646959297
180.677,262.53042208
180.692,262.413242668
180.707,262.295416923
180.722,262.176940681
180.737,262.057809755
180.752,261.938019938
180.767,261.817566999
180.782,261.696446689
180.797,261.574654738
180.812,261.452186859
180.827,261.329038747
180.842,261.205206079
180.857,261.080684519
180.872,260.955469719
180.887,260.829557314
180.902,260.702942932
180.917,260.575622189
180.932,260.447590697
180.947,260.318844059
180.962,260.189377873
180.977,260.059187738
180.992,259.92826925
181.007,259.796618008
181.022,259.664229615
181.037,259.531099679
181.052,259.397223817
181.067,259.262597657
181.082,259.127216841
181.097,258.991077027
181.112,258.854173891
181.127,258.716503131
181.142,258.57806047
181.157,258.438841657
181.172,258.298842473
181.187,258.158058732
181.202,258.016486286
181.217,257.874121027
181.232,257.730958889
181.247,257.586995856
181.262,257.442227961
181.277,257.296651293
181.292,257.150261996
181.307,257.00305628
181.31,256.973516837
181.322,256.855030417
181.337,256.706180752
181.352,256.556503701
181.367,256.405995759
181.382,256.2546535
181.397,256.102473585
181.412,255.949452765
181.427,255.795587883
181.442,255.640875878
181.457,255.485313793
181.472,255.328898774
181.487,255.171628074
181.502,255.013499062
181.517,254.854509221
181.532,254.694656154
181.547,254.533937587
181.562,254.372351372
181.577,254.209895491
181.592,254.046568058
181.607,253.882367323
181.622,253.717291674
181.637,253.551339636
181.652,253.384509882
181.667,253.216801224
181.682,253.048212621
181.697,252.878743181
181.712,252.708392156
181.727,252.537158949
181.742,252.36504311
181.757,252.192044337
181.772,252.018162475
181.787,251.843397515
181.802,251.667749591
181.817,251.491218981
181.832,251.313806099
181.847,251.135511497
181.862,250.956335856
181.877,250.776279985
181.892,250.595344813
181.907,250.413531386
181.922,250.230840857
181.937,250.047274478
181.952,249.862833596
181.967,249.677519638
181.982,249.491334107
181.997,249.304278565
182.012,249.116354625
182.027,248.927563937
182.042,248.737908172
182.057,248.54738901
182.06,248.509181718
182.072,248.356008125
182.087,248.163767163
182.102,247.970667727
182.117,247.776711356
182.132,247.581899505
182.147,247.386233525
182.162,247.189714632
182.177,246.992343892
182.192,246.794122184
182.207,246.59505018
182.222,246.39512831
182.237,246.19435673
182.252,245.99273529
182.267,245.790263496
182.282,245.58694047
182.297,245.382764911
182.312,245.177735046
182.327,244.971848588
182.342,244.765102677
182.357,244.55749383
182.372,244.349017879
182.387,244.139669902
182.402,243.929444157
182.417,243.718334001
182.432,243.506331803
182.447,243.293428854
182.462,243.079615258
182.477,242.86487982
182.492,242.649209921
182.507,242.432591368
182.522,242.215008241
182.537,241.996442713
182.552,241.776874846
182.567,241.556282369
182.582,241.334640419
182.597,241.11192125
182.612,240.888093906
182.627,240.663123841
182.642,240.436972497
182.657,240.209596811
182.672,239.980948656
182.687,239.750974201
182.702,239.519613178
182.717,239.286798035
182.732,239.052452968
182.747,238.816492806
182.762,238.578821731
182.777,238.339331794
182.792,238.09790122
182.807,237.854392446
182.822,237.608649869
182.837,237.360497251
182.852,237.109734736
182.867,236.856135428
182.882,236.599441469
182.897,236.339359557
182.912,236.075555838
182.927,235.807650123
182.942,235.535209362
182.957,235.257740368
182.972,234.974681769
182.987,234.685395276
183.002,234.389156412
183.017,234.085145042
183.032,233.772436247
183.047,233.449992501
183.062,233.116658665
183.077,232.771162217
183.092,232.412122475
183.107,232.038074673
183.122,231.647517953
183.137,231.239001362
183.152,230.811270034
183.167,230.363506982
183.182,229.895728431
183.197,229.409429339
183.212,228.908640512
183.227,228.40165244
183.242,227.903724958
183.257,227.440794904
183.367,227.540913136
183.382,228.011153333
183.397,228.508449079
183.412,229.010082486
183.427,229.502952819
183.442,229.980094463
183.457,230.438261637
183.472,230.87641355
183.487,231.294787488
183.502,231.694332113
183.517,232.076360052
183.532,232.442335664
183.547,232.793747295
183.562,233.13203283
183.577,233.458538931
183.592,233.774501422
183.607,234.081038745
183.622,234.379153295
183.637,234.669737253
183.652,234.953580787
183.667,235.231381276
183.682,235.503752721
183.697,235.771234847
183.712,236.034301634
183.727,236.293369135
183.742,236.548802532
183.757,236.80092244
183.772,237.050010496
183.787,237.296314278
183.802,237.540051628
183.817,237.781414422
183.832,238.020571869
183.847,238.257673378
183.862,238.492851048
183.877,238.726221844
183.892,238.957889474
183.907,239.187946022
183.922,239.416473374
183.937,239.643544447
183.952,239.86922426
183.967,240.093570867
183.982,240.316636166
183.997,240.538466607
184.012,240.759103805
184.027,240.978585076
184.042,241.196943912
184.057,241.414210381
184.072,241.6304115
184.087,241.845571539
184.102,242.059712306
184.117,242.272853393
184.132,242.485012387
184.147,242.696205067
184.162,242.906445574
184.177,243.115746558
184.192,243.324119322
184.207,243.531573935
184.222,243.738119348
184.237,243.943763489
184.252,244.148513353
184.267,244.35237508
184.282,244.555354035
184.297,244.75745487
184.312,244.958681587
184.327,245.159037596
184.342,245.358525765
184.357,245.557148472
184.372,245.754907644
184.387,245.951804807
184.402,246.147841117
184.417,246.3430174
184.432,246.537334187
184.447,246.730791744
184.462,246.923390101
184.477,247.115129083
184.492,247.306008334
184.507,247.496027344
184.522,247.685185469
184.537,247.873481957
184.552,248.060915963
184.56,248.160527795
184.567,248.247486576
184.582,248.433192831
184.597,248.618033727
184.612,248.802008248
184.627,248.985115371
184.642,249.167354084
184.657,249.348723398
184.672,249.52922236
184.687,249.708850064
184.702,249.887605658
184.717,250.065488361
184.732,250.242497465
184.747,250.418632344
184.762,250.593892465
184.777,250.768277393
184.792,250.941786793
184.807,251.114420441
184.822,251.286178227
184.837,251.457060156
184.852,251.627066356
184.867,251.796197077
184.882,251.964452696
184.897,252.13183372
184.912,252.298340783
184.927,252.463974652
184.942,252.628736226
184.957,252.792626533
184.972,252.955646736
184.987,253.117798127
185.002,253.279082131
185.017,253.439500299
185.032,253.599054314
185.047,253.757745983
185.062,253.915577238
185.077,254.072550135
185.092,254.228666848
185.107,254.383929671
185.122,254.538341013
185.137,254.691903393
185.152,254.844619443
185.167,254.996491899
185.182,255.147523601
185.197,255.29771749
185.212,255.447076603
185.227,255.595604071
185.242,255.743303115
185.257,255.89017704
185.272,256.036229239
185.287,256.18146318
185.302,256.32588241
185.31,256.40257412
185.317,256.469490547
185.332,256.612291279
185.347,256.754288359
185.362,256.895485601
185.377,257.03588688
185.392,257.175496124
185.407,257.314317315
185.422,257.452354481
185.437,257.589611697
185.452,257.72609308
185.467,257.861802785
185.482,257.996745004
185.497,258.130923961
185.512,258.26434391
185.527,258.397009132
185.542,258.528923932
185.557,258.660092638
185.572,258.790519595
185.587,258.920209165
185.602,259.049165724
185.617,259.177393659
185.632,259.304897366
185.647,259.431681248
185.662,259.557749714
185.677,259.683107173
185.692,259.807758037
185.707,259.931706715
185.722,260.054957614
185.737,260.177515135
185.752,260.299383674
185.767,260.420567618
185.782,260.541071343
185.797,260.660899215
185.812,260.780055588
185.827,260.898544802
185.842,261.016371181
185.857,261.133539032
185.872,261.250052648
185.887,261.365916299
185.902,261.481134239
185.917,261.595710699
185.932,261.709649893
185.947,261.822956008
185.96,261.920645772
185.962,261.935633211
185.977,262.047685645
185.992,262.159117429
186.007,262.269932658
186.022,262.380135401
186.037,262.4897297
186.052,262.598719573
186.06,262.656601741
186.067,262.707109011
186.082,262.814901977
186.097,262.922102408
186.112,263.028714213
186.127,263.134741273
186.142,263.24018744
186.157,263.345056541
186.172,263.449352372
186.187,263.553078701
186.202,263.656239267
186.217,263.758837783
186.232,263.86087793
186.247,263.962363362
186.262,264.063297705
186.277,264.163684556
186.292,264.263527483
186.307,264.362830025
186.322,264.461595695
186.337,264.559827975
186.352,264.657530321
186.367,264.754706159
186.382,264.851358891
186.397,264.947491886
186.412,265.043108491
186.427,265.138212021
186.442,265.232805767
186.457,265.326892993
186.472,265.420476935
186.487,265.513560803
186.502,265.606147782
186.517,265.698241031
186.532,265.789843681
186.547,265.88095884
186.562,265.971589591
186.577,266.061738991
186.592,266.151410072
186.607,266.240605843
186.622,266.329329289
186.637,266.417583369
186.652,266.505371022
186.667,266.592695161
186.682,266.679558677
186.697,266.765964439
186.71,266.840481359
186.712,266.851915291
186.727,266.937414058
186.742,267.022463542
186.757,267.107066523
186.772,267.191225759
186.787,267.274943989
186.802,267.358223931
186.817,267.441068279
186.832,267.523479712
186.847,267.605460885
186.862,267.687014434
186.877,267.768142977
186.892,267.848849113
186.907,267.929135418
186.922,268.009004455
186.937,268.088458764
186.952,268.16750087
186.967,268.246133276
186.982,268.324358471
186.997,268.402178925
187.012,268.479597091
187.027,268.556615403
187.042,268.633236281
187.057,268.709462126
187.072,268.785295323
187.087,268.860738243
187.102,268.935793237
187.117,269.010462642
187.132,269.084748781
187.147,269.158653959
187.162,269.232180465
187.177,269.305330577
187.192,269.378106553
187.207,269.450510639
187.222,269.522545067
187.237,269.594212052
187.252,269.665513796
187.267,269.736452488
187.282,269.807030301
187.297,269.877249396
187.312,269.947111917
187.327,270.016619999
187.342,270.08577576
187.357,270.154581307
187.372,270.223038732
187.387,270.291150114
187.402,270.358917522
187.417,270.426343008
187.432,270.493428614
187.447,270.56017637
187.46,270.6177527
187.462,270.626588291
187.477,270.692666382
187.492,270.758412635
187.507,270.823829029
187.522,270.888917533
187.537,270.953680102
187.552,271.01811868
187.567,271.0822352
187.582,271.146031583
187.597,271.209509739
187.612,271.272671564
187.627,271.335518946
187.642,271.39805376
187.657,271.46027787
187.672,271.52219313
187.687,271.583801381
187.702,271.645104455
187.717,271.706104172
187.732,271.766802342
187.747,271.827200763
187.762,271.887301224
187.777,271.947105502
187.792,272.006615366
187.807,272.06583257
187.822,272.124758863
187.837,272.18339598
187.852,272.241745647
187.867,272.299809579
187.882,272.357589483
187.897,272.415087054
187.912,272.472303977
187.927,272.529241929
187.942,272.585902575
187.957,272.64228757
187.972,272.698398561
187.987,272.754237185
188.002,272.809805068
188.017,272.865103828
188.032,272.920135071
188.047,272.974900396
188.062,273.029401391
188.077,273.083639637
188.092,273.137616701
188.107,273.191334146
188.122,273.244793521
188.137,273.297996369
188.152,273.350944223
188.167,273.403638605
188.182,273.456081031
188.197,273.508273006
188.21,273.55330462
188.212,273.560216026
188.227,273.611911578
188.242,273.663361141
188.257,273.714566184
188.272,273.765528168
188.287,273.816248544
188.302,273.866728756
188.317,273.916970238
188.332,273.966974415
188.347,274.016742705
188.362,274.066276514
188.377,274.115577244
188.392,274.164646285
188.407,274.21348502
188.422,274.262094822
188.437,274.310477058
188.452,274.358633085
188.467,274.406564251
188.482,274.454271897
188.497,274.501757355
188.512,274.54902195
188.527,274.596066997
188.542,274.642893804
188.557,274.689503669
188.572,274.735897885
188.587,274.782077735
188.602,274.828044493
188.617,274.873799428
188.632,274.919343797
188.647,274.964678854
188.66,275.003800885
188.662,275.009805839
188.677,275.054725991
188.692,275.099440535
188.707,275.143950692
188.722,275.188257674
