# 48698 WSSS Singapore Observations at 12Z 25 Dec 2019
Frequency [GHz],TB
175.31,274.465186783
175.322,274.445365196
175.337,274.420531043
175.352,274.395633126
175.367,274.370671241
175.382,274.345645132
175.397,274.320554564
175.412,274.295399282
175.427,274.270179045
175.442,274.24489361
175.457,274.219542742
175.472,274.194126172
175.487,274.168643644
175.502,274.143094943
175.517,274.117479781
175.532,274.091797923
175.547,274.066049105
175.562,274.040233063
175.577,274.01434953
175.592,273.988398274
175.607,273.962379016
175.622,273.936291485
175.637,273.91013543
175.652,273.883910559
175.667,273.857616622
175.682,273.831253362
175.697,273.804820466
175.712,273.778317696
175.727,273.751744749
175.742,273.725101358
175.757,273.698387253
175.772,273.671602141
175.787,273.644745742
175.802,273.617817778
175.817,273.590817941
175.832,273.563745973
175.847,273.536601548
175.862,273.509384409
175.877,273.482094236
175.892,273.454730758
175.907,273.42729365
175.922,273.399782629
175.937,273.372197403
175.952,273.344537652
175.967,273.316803074
175.982,273.288993367
175.997,273.261108213
176.012,273.233147311
176.027,273.205110334
176.042,273.176997
176.057,273.14880696
176.072,273.1205399
176.087,273.092195515
176.102,273.063773461
176.117,273.035273446
176.132,273.006695108
176.147,272.978038138
176.162,272.949302194
176.177,272.920486967
176.192,272.891592091
176.207,272.862617252
176.222,272.833562095
176.237,272.804426278
176.252,272.775209488
176.267,272.745911344
176.282,272.716531508
176.297,272.687069645
176.31,272.661469403
176.312,272.657525397
176.327,272.627898393
176.342,272.598188294
176.357,272.568394732
176.372,272.538517372
176.387,272.508555795
176.402,272.478509683
176.417,272.448378674
176.432,272.418162358
176.447,272.387860399
176.46,272.361529106
176.462,272.357472397
176.477,272.326997987
176.492,272.296436792
176.507,272.265788429
176.522,272.235052518
176.537,272.204228652
176.552,272.173316466
176.567,272.142315554
176.582,272.111225531
176.597,272.080045994
176.612,272.048776564
176.627,272.017416808
176.642,271.985966339
176.657,271.954424757
176.672,271.92279164
176.687,271.891066593
176.702,271.85924918
176.717,271.827338996
176.732,271.795335634
176.747,271.763238659
176.762,271.731047645
176.777,271.698762186
176.792,271.666381823
176.807,271.633906143
176.822,271.601334685
176.837,271.568667062
176.852,271.53590278
176.867,271.503041417
176.882,271.470082538
176.897,271.43702568
176.912,271.403870409
176.927,271.370616245
176.942,271.337262748
176.957,271.303809466
176.972,271.270255915
176.987,271.236601644
177.002,271.202846184
177.017,271.168989063
177.032,271.135029798
177.047,271.10096792
177.062,271.066802941
177.077,271.03253438
177.092,270.998161762
177.107,270.963684582
177.122,270.929102389
177.137,270.894414624
177.152,270.859620819
177.167,270.824720492
177.182,270.789713107
177.197,270.75459817
177.21,270.724077848
177.212,270.719375178
177.227,270.684043602
177.242,270.648602943
177.257,270.613052667
177.272,270.577392252
177.287,270.54162117
177.302,270.5057389
177.31,270.486556055
177.317,270.469744907
177.332,270.433638672
177.347,270.397419602
177.362,270.361087213
177.377,270.324640923
177.392,270.288080198
177.407,270.251404486
177.422,270.214613216
177.437,270.177705851
177.452,270.140681811
177.467,270.103540546
177.482,270.066281475
177.497,270.028904008
177.512,269.991407613
177.527,269.953791659
177.542,269.916055604
177.557,269.87819884
177.572,269.840220771
177.587,269.802120827
177.602,269.763898388
177.617,269.725552871
177.632,269.687083632
177.647,269.64849012
177.66,269.61494138
177.662,269.60977168
177.677,269.570927719
177.692,269.531957599
177.707,269.49286071
177.722,269.453636421
177.737,269.414284101
177.752,269.374803127
177.767,269.335192837
177.782,269.2954526
177.797,269.255581779
177.812,269.215579716
177.827,269.175445756
177.842,269.135179254
177.857,269.094779526
177.872,269.054245927
177.887,269.013577772
177.902,268.972774415
177.917,268.931835151
177.932,268.8907593
177.947,268.849546192
177.96,268.813716588
177.962,268.808195124
177.977,268.766705413
177.992,268.725076362
178.007,268.683307256
178.022,268.641397408
178.037,268.599346093
178.052,268.557152606
178.067,268.514816231
178.082,268.472336246
178.097,268.42971191
178.112,268.386942499
178.127,268.344027282
178.142,268.300965523
178.157,268.257756459
178.172,268.214399373
178.187,268.170893491
178.202,268.127238051
178.217,268.083432314
178.232,268.039475495
178.247,267.995366837
178.262,267.951105547
178.277,267.906690856
178.292,267.862121994
178.307,267.817398148
178.322,267.772518539
178.337,267.727482366
178.352,267.682288814
178.367,267.6369371
178.382,267.591426395
178.397,267.545755885
178.41,267.506044876
178.412,267.499924758
178.427,267.453932158
178.442,267.407777286
178.457,267.361459301
178.472,267.314977343
178.487,267.268330572
178.502,267.221518154
178.517,267.174539194
178.532,267.127392875
178.547,267.080078301
178.562,267.032594608
178.577,266.984940922
178.592,266.937116351
178.607,266.88912002
178.622,266.840951017
178.637,266.792608465
178.652,266.744091424
178.667,266.695399038
178.682,266.646530344
178.697,266.597484416
178.712,266.548260369
178.727,266.498857244
178.742,266.4492741
178.757,266.399509999
178.772,266.349564
178.787,266.299435109
178.802,266.249122399
178.817,266.198624881
178.832,266.147941602
178.847,266.09707156
178.862,266.046013772
178.877,265.994767241
178.892,265.943330959
178.907,265.891703941
178.922,265.839885159
178.937,265.78787357
178.952,265.735668164
178.967,265.683267923
178.982,265.630671773
178.997,265.57787868
179.012,265.524887565
179.027,265.471697405
179.042,265.4183071
179.057,265.364715569
179.072,265.310921724
179.087,265.25692447
179.102,265.202722716
179.117,265.148315329
179.132,265.093701199
179.147,265.038879197
179.16,264.991197784
179.162,264.9838482
179.177,264.928607037
179.192,264.87315457
179.207,264.817489625
179.222,264.76161103
179.237,264.705517607
179.252,264.649208163
179.267,264.592681495
179.282,264.535936389
179.297,264.478971632
179.312,264.421785982
179.327,264.364378195
179.342,264.306747041
179.357,264.248891232
179.372,264.190809503
179.387,264.132500565
179.402,264.073963133
179.417,264.015195885
179.432,263.956197514
179.447,263.896966666
179.462,263.837502024
179.477,263.777802225
179.492,263.717865861
179.507,263.657691615
179.522,263.597278032
179.537,263.536623723
179.552,263.475727277
179.567,263.414587242
179.582,263.353202183
179.597,263.291570603
179.612,263.229691052
179.627,263.167562004
179.642,263.105181966
179.657,263.0425494
179.672,262.979662768
179.687,262.916520497
179.702,262.85312102
179.717,262.789462743
179.732,262.725544039
179.747,262.661363288
179.762,262.596918834
179.777,262.532209004
179.792,262.467232128
179.807,262.401986472
179.822,262.336470333
179.837,262.270681939
179.852,262.204619547
179.867,262.138281352
179.882,262.071665543
179.897,262.004770286
179.91,261.946566917
179.912,261.937593732
179.927,261.870134001
179.942,261.802389164
179.957,261.734357335
179.972,261.666036526
179.987,261.597424793
180.002,261.528520116
180.017,261.459320469
180.032,261.389823807
180.047,261.320028049
180.062,261.249931054
180.077,261.179530738
180.092,261.108824892
180.107,261.037811368
180.122,260.966487882
180.137,260.894852237
180.152,260.822902129
180.167,260.750635233
180.182,260.678049202
180.197,260.605141685
180.212,260.531910235
180.227,260.45835242
180.242,260.384465762
180.257,260.310247757
180.272,260.235695824
180.287,260.160807411
180.302,260.085579872
180.317,260.010010563
180.332,259.934096769
180.347,259.85783576
180.362,259.781224812
180.377,259.704261035
180.392,259.626941611
180.407,259.549263637
180.422,259.471224218
180.437,259.392820314
180.452,259.314048952
180.467,259.234907062
180.482,259.155391512
180.497,259.075499172
180.512,258.995226867
180.527,258.91457133
180.542,258.833529284
180.557,258.752097391
180.56,258.735763946
180.572,258.670272298
180.587,258.588050544
180.602,258.505428692
180.617,258.422403207
180.632,258.338970521
180.647,258.255126999
180.66,258.182127485
180.662,258.170869004
180.677,258.08619279
180.692,258.001094608
180.707,257.915570629
180.722,257.829616996
180.737,257.743229791
180.752,257.656405023
180.767,257.569138675
180.782,257.48142669
180.797,257.39326492
180.812,257.304649208
180.827,257.215575284
180.842,257.126038905
180.857,257.03603571
180.872,256.945561338
180.887,256.854611306
180.902,256.763181158
180.917,256.671266344
180.932,256.578862245
180.947,256.485964246
180.962,256.392567625
180.977,256.298667632
180.992,256.204259488
181.007,256.10933833
181.022,256.013899259
181.037,255.917937348
181.052,255.82144756
181.067,255.72442491
181.082,255.626864277
181.097,255.52876053
181.112,255.430108505
181.127,255.330902983
181.142,255.231138713
181.157,255.130810389
181.172,255.029912673
181.187,254.928440214
181.202,254.826387569
181.217,254.723749331
181.232,254.620520029
181.247,254.516694138
181.262,254.412266148
181.277,254.307230522
181.292,254.201581669
181.307,254.095314005
181.31,254.073985721
181.322,253.988421919
181.337,253.880899808
181.352,253.772742012
181.367,253.663942932
181.382,253.554496908
181.397,253.444398294
181.412,253.333641461
181.427,253.222220793
181.442,253.110130653
181.457,252.997365463
181.472,252.883919632
181.487,252.76978762
181.502,252.654963898
181.517,252.539442978
181.532,252.423219445
181.547,252.306287846
181.562,252.188642905
181.577,252.070279284
181.592,251.9511918
181.607,251.831375281
181.622,251.710824675
181.637,251.589534967
181.652,251.467501317
181.667,251.344718885
181.682,251.221183001
181.697,251.096889088
181.712,250.971832715
181.727,250.846009549
181.742,250.719415428
181.757,250.592046313
181.772,250.463898356
181.787,250.334967824
181.802,250.205251209
181.817,250.074745181
181.832,249.943446579
181.847,249.811352476
181.862,249.678460165
181.877,249.544767166
181.892,249.410271206
181.907,249.274970274
181.922,249.138862684
181.937,249.001946913
181.952,248.864221834
181.967,248.725686529
181.982,248.586340437
181.997,248.446183328
182.012,248.305215251
182.027,248.163436671
182.042,248.020848387
182.057,247.877451558
182.06,247.848675297
182.072,247.733247746
182.087,247.588238936
182.102,247.442427491
182.117,247.295816244
182.132,247.148408438
182.147,247.000207836
182.162,246.851218625
182.177,246.701445515
182.192,246.550893692
182.207,246.399568947
182.222,246.247477535
182.237,246.094626321
182.252,245.941022748
182.267,245.786674857
182.282,245.631591279
182.297,245.475781353
182.312,245.319255026
182.327,245.162022934
182.342,245.004096484
182.357,244.845487717
182.372,244.686209533
182.387,244.526275522
182.402,244.365700164
182.417,244.204498734
182.432,244.042687401
182.447,243.880283217
182.462,243.717304174
182.477,243.553769275
182.492,243.38969849
182.507,243.225112855
182.522,243.060034487
182.537,242.894486645
182.552,242.72849378
182.567,242.562081562
182.582,242.395276934
182.597,242.228108156
182.612,242.06060489
182.627,241.892798218
182.642,241.724720724
182.657,241.556406521
182.672,241.387891313
182.687,241.219212449
182.702,241.050408955
182.717,240.88152157
182.732,240.712592815
182.747,240.543666902
182.762,240.374789797
182.777,240.206009206
182.792,240.0373744
182.807,239.86893617
182.822,239.700746601
182.837,239.532858841
182.852,239.365326754
182.867,239.198204301
182.882,239.031545075
182.897,238.86540128
182.912,238.69982268
182.927,238.534855119
182.942,238.370538602
182.957,238.206904826
182.972,238.043974034
182.987,237.881750815
183.002,237.720218784
183.017,237.559333515
183.032,237.39901329
183.047,237.239126764
183.062,237.079476588
183.077,236.919777059
183.092,236.759623477
183.107,236.598449777
183.122,236.435468545
183.137,236.269585682
183.152,236.099276807
183.167,235.922406757
183.182,235.735964123
183.197,235.535670992
183.212,235.315416185
183.227,235.066461499
183.242,234.776420083
183.257,234.428249139
183.367,234.509786957
183.382,234.837944274
183.397,235.112802846
183.412,235.350158803
183.427,235.561366392
183.442,235.754406358
183.457,235.934857093
183.472,236.106627493
183.487,236.272473486
183.502,236.434352232
183.517,236.593662749
183.532,236.751409666
183.547,236.908315663
183.562,237.064899412
183.577,237.221530342
183.592,237.378467727
183.607,237.535888899
183.622,237.693909772
183.637,237.852600234
183.652,238.011995546
183.667,238.172104965
183.682,238.332918282
183.697,238.494410898
183.712,238.656547714
183.727,238.819286068
183.742,238.9825781
183.757,239.146372452
183.772,239.310615745
183.787,239.475253548
183.802,239.64023123
183.817,239.805494578
183.832,239.970990198
183.847,240.136665912
183.862,240.302470961
183.877,240.468356163
183.892,240.634274048
183.907,240.800178931
183.922,240.966026906
183.937,241.131775843
183.952,241.297385424
183.967,241.462817089
183.982,241.628033976
183.997,241.793000887
184.012,241.957684248
184.027,242.122052037
184.042,242.286073734
184.057,242.449720264
184.072,242.61296395
184.087,242.775778455
184.102,242.938138709
184.117,243.100020867
184.132,243.261402286
184.147,243.422261451
184.162,243.582577918
184.177,243.74233233
184.192,243.901506302
184.207,244.060082394
184.222,244.21804416
184.237,244.375375986
184.252,244.532063174
184.267,244.688091794
184.282,244.843448771
184.297,244.998121771
184.312,245.152099205
184.327,245.305370236
184.342,245.457924649
184.357,245.609752993
184.372,245.760846352
184.387,245.911196555
184.402,246.060795929
184.417,246.209637482
184.432,246.357714688
184.447,246.505021641
184.462,246.65155293
184.477,246.797303658
184.492,246.942269422
184.507,247.086446315
184.522,247.229830851
184.537,247.372420032
184.552,247.514211245
184.56,247.589506185
184.567,247.655202333
184.582,247.795391517
184.597,247.934777396
184.612,248.073358965
184.627,248.211135577
184.642,248.34810689
184.657,248.484272952
184.672,248.61963409
184.687,248.754190955
184.702,248.887944463
184.717,249.02089589
184.732,249.15304669
184.747,249.284398635
184.762,249.414953722
184.777,249.544714232
184.792,249.673682583
184.807,249.8018615
184.822,249.929253855
184.837,250.055862769
184.852,250.181691488
184.867,250.306743493
184.882,250.431022396
184.897,250.554531991
184.912,250.677276216
184.927,250.799259125
184.942,250.920484959
184.957,251.040958036
184.972,251.160682808
184.987,251.279663844
185.002,251.397905812
185.017,251.515413481
185.032,251.632191677
185.047,251.748245358
185.062,251.863579524
185.077,251.978199257
185.092,252.09210969
185.107,252.205316016
185.122,252.317823503
185.137,252.429637393
185.152,252.540763095
185.167,252.651205922
185.182,252.760971312
185.197,252.870064674
185.212,252.978491455
185.227,253.086257121
185.242,253.193367163
185.257,253.299827068
185.272,253.405642312
185.287,253.510818417
185.302,253.615360861
185.31,253.670859626
185.317,253.719275138
185.332,253.822566742
185.347,253.925241121
185.362,254.027303752
185.377,254.128760068
185.392,254.229615494
185.407,254.329875421
185.422,254.429545245
185.437,254.528630301
185.452,254.627135914
185.467,254.725067393
185.482,254.822429985
185.497,254.919228937
185.512,255.015469432
185.527,255.111156628
185.542,255.206295646
185.557,255.300891578
185.572,255.394949459
185.587,255.488474288
185.602,255.581471028
185.617,255.673944589
185.632,255.765899851
185.647,255.857341646
185.662,255.948274758
185.677,256.038703907
185.692,256.128633795
185.707,256.218069045
185.722,256.307014286
185.737,256.395474041
185.752,256.483452836
185.767,256.570955075
185.782,256.657985219
185.797,256.744547568
185.812,256.830646456
185.827,256.916286125
185.842,257.001470793
185.857,257.08620461
185.872,257.170491696
185.887,257.254336082
185.902,257.337741815
185.917,257.42071282
185.932,257.503253035
185.947,257.585366321
185.96,257.65618878
185.962,257.667056489
185.977,257.748327301
185.992,257.829182505
186.007,257.909625752
186.022,257.989660664
186.037,258.069290835
186.052,258.148519783
186.06,258.190612391
186.067,258.227351025
186.082,258.305787967
186.097,258.383834021
186.112,258.461492558
186.127,258.538766862
186.142,258.615660199
186.157,258.692175804
186.172,258.76831685
186.187,258.844086458
186.202,258.919487736
186.217,258.994523741
186.232,259.069197465
186.247,259.143511893
186.262,259.217469955
186.277,259.291074555
186.292,259.364328507
186.307,259.437234648
186.322,259.509795763
186.337,259.582014591
186.352,259.653893816
186.367,259.72543611
186.382,259.796644093
186.397,259.867520392
186.412,259.93806754
186.427,260.008288059
186.442,260.078184454
186.457,260.147759175
186.472,260.217014662
186.487,260.285953296
186.502,260.354577435
186.517,260.422889434
186.532,260.490891553
186.547,260.55858608
186.562,260.625975281
186.577,260.693061337
186.592,260.759846438
186.607,260.826332756
186.622,260.892522374
186.637,260.958417434
186.652,261.024019993
186.667,261.089332103
186.682,261.154355777
186.697,261.219093015
186.71,261.274968457
186.712,261.283545777
186.727,261.34771603
186.742,261.411605696
186.757,261.475216635
186.772,261.538550767
186.787,261.601609914
186.802,261.66439593
186.817,261.726910595
186.832,261.789155728
186.847,261.851133078
186.862,261.912844385
186.877,261.974291381
186.892,262.035475753
186.907,262.096399215
186.922,262.157063421
186.937,262.217470014
186.952,262.277620607
186.967,262.337516838
186.982,262.397160276
186.997,262.456552515
187.012,262.515695096
187.027,262.574589568
187.042,262.633237455
187.057,262.69164025
187.072,262.74979946
187.087,262.807716557
187.102,262.865392997
187.117,262.92283023
187.132,262.980029692
187.147,263.036992792
187.162,263.093720918
187.177,263.150215482
187.192,263.206477852
187.207,263.26250937
187.222,263.318311401
187.237,263.373885273
187.252,263.429232315
187.267,263.484353812
187.282,263.53925109
187.297,263.593925432
187.312,263.648378076
187.327,263.702610317
187.342,263.756623389
187.357,263.810418532
187.372,263.863996971
187.387,263.917359934
187.402,263.970508611
187.417,264.023444203
187.432,264.076167886
187.447,264.128680859
187.46,264.174022544
187.462,264.180984249
187.477,264.233079252
187.492,264.284966975
187.507,264.336648576
187.522,264.388125184
187.537,264.439397892
187.552,264.490467817
187.567,264.54133608
187.582,264.592003732
187.597,264.642471887
187.612,264.692741601
187.627,264.742813947
187.642,264.792689967
187.657,264.84237072
187.672,264.891857242
187.687,264.941150587
187.702,264.990251744
187.717,265.039161753
187.732,265.0878816
187.747,265.136412318
187.762,265.184754881
187.777,265.232910289
187.792,265.280879505
187.807,265.328663507
187.822,265.376263272
187.837,265.423679749
187.852,265.4709139
187.867,265.517966657
187.882,265.564838965
187.897,265.611531762
187.912,265.65804598
187.927,265.704382503
187.942,265.750542283
187.957,265.796526226
187.972,265.842335222
187.987,265.887970153
188.002,265.933431926
188.017,265.978721429
188.032,266.023839524
188.047,266.068787091
188.062,266.113564988
188.077,266.158174097
188.092,266.202615241
188.107,266.246889291
188.122,266.290997098
188.137,266.33493948
188.152,266.378717284
188.167,266.42233133
188.182,266.465782439
188.197,266.509071428
188.21,266.546458054
188.212,266.552199118
188.227,266.59516632
188.242,266.637973821
188.257,266.680622427
188.272,266.723112914
188.287,266.765446082
188.302,266.807622727
188.317,266.849643615
188.332,266.891509508
188.347,266.933221178
188.362,266.974779402
188.377,267.016184937
188.392,267.057438499
188.407,267.098540899
188.422,267.139492825
188.437,267.180295049
188.452,267.2209483
188.467,267.261453314
188.482,267.301810807
188.497,267.342021506
188.512,267.38208614
188.527,267.422005391
188.542,267.461780013
188.557,267.501410674
188.572,267.540898088
188.587,267.58024296
188.602,267.619445975
188.617,267.658507823
188.632,267.69742918
188.647,267.736210748
188.66,267.769708862
188.662,267.774853188
188.677,267.813357162
188.692,267.851723346
188.707,267.889952429
188.722,267.928045042
188.737,267.966001846
188.752,268.003823509
