# 10410 EDZE Essen Observations at 12Z 25 Dec 2019
Frequency [GHz],TB
175.31,265.058944872
175.322,265.073229627
175.337,265.09092107
175.352,265.108428881
175.367,265.12575216
175.382,265.142889991
175.397,265.159841478
175.412,265.176605714
175.427,265.193181808
175.442,265.209568858
175.457,265.22576598
175.472,265.241772287
175.487,265.25758689
175.502,265.273208916
175.517,265.288637481
175.532,265.303871721
175.547,265.318910764
175.562,265.333753742
175.577,265.348399798
175.592,265.362848078
175.607,265.377097729
175.622,265.391147905
175.637,265.404997761
175.652,265.418646465
175.667,265.432093178
175.682,265.445337079
175.697,265.45837734
175.712,265.471213147
175.727,265.483843687
175.742,265.496268154
175.757,265.508485746
175.772,265.52049567
175.787,265.532297134
175.802,265.543889355
175.817,265.555271557
175.832,265.566442968
175.847,265.577402822
175.862,265.58815036
175.877,265.59868483
175.892,265.609005487
175.907,265.619111593
175.922,265.629002413
175.937,265.638677225
175.952,265.648135309
175.967,265.657375953
175.982,265.666398459
175.997,265.675202125
176.012,265.683786267
176.027,265.692150201
176.042,265.700293257
176.057,265.708214769
176.072,265.71591408
176.087,265.723390542
176.102,265.730643514
176.117,265.737672363
176.132,265.744476471
176.147,265.751055217
176.162,265.757407999
176.177,265.763534219
176.192,265.769433289
176.207,265.775104632
176.222,265.780547678
176.237,265.785761865
176.252,265.790746645
176.267,265.795501477
176.282,265.800025829
176.297,265.804319181
176.31,265.807852838
176.312,265.808381023
176.327,265.812210854
176.342,265.815808178
176.357,265.819172523
176.372,265.822303414
176.387,265.825200394
176.402,265.827863012
176.417,265.830290834
176.432,265.832483432
176.447,265.834440388
176.46,265.835945496
176.462,265.8361613
176.477,265.837645772
176.492,265.838893428
176.507,265.839903893
176.522,265.840676808
176.537,265.841211828
176.552,265.841508617
176.567,265.841566852
176.582,265.841386221
176.597,265.840966426
176.612,265.840307179
176.627,265.839408208
176.642,265.838269248
176.657,265.836890049
176.672,265.835270376
176.687,265.833410004
176.702,265.831308721
176.717,265.828966329
176.732,265.826382641
176.747,265.823557485
176.762,265.820490702
176.777,265.817182145
176.792,265.813631681
176.807,265.809839192
176.822,265.805804569
176.837,265.801527721
176.852,265.79700857
176.867,265.792247049
176.882,265.787243106
176.897,265.781996704
176.912,265.77650782
176.927,265.770776441
176.942,265.764802572
176.957,265.758586234
176.972,265.752127454
176.987,265.745426282
177.002,265.738482777
177.017,265.731297012
177.032,265.723869077
177.047,265.716199078
177.062,265.708287128
177.077,265.70013336
177.092,265.691737922
177.107,265.683100974
177.122,265.674222689
177.137,265.665103259
177.152,265.655742884
177.167,265.646141791
177.182,265.636300204
177.197,265.626218373
177.21,265.617286662
177.212,265.615896563
177.227,265.60533505
177.242,265.594534121
177.257,265.583494086
177.272,265.572215265
177.287,265.56069799
177.302,265.548942609
177.31,265.542575843
177.317,265.53694949
177.332,265.524719009
177.347,265.512251558
177.362,265.499547543
177.377,265.486607386
177.392,265.473431521
177.407,265.460020398
177.422,265.446374481
177.437,265.432494251
177.452,265.418380193
177.467,265.404032818
177.482,265.389452642
177.497,265.374640203
177.512,265.359596047
177.527,265.344320736
177.542,265.328814839
177.557,265.313078955
177.572,265.297113676
177.587,265.280919623
177.602,265.264497422
177.617,265.247847716
177.632,265.230971159
177.647,265.213868418
177.66,265.198863614
177.662,265.196540176
177.677,265.178987126
177.692,265.161209969
177.707,265.143209431
177.722,265.124986237
177.737,265.106541133
177.752,265.087874871
177.767,265.068988219
177.782,265.049881956
177.797,265.030556873
177.812,265.01101377
177.827,264.99125346
177.842,264.97127677
177.857,264.951084532
177.872,264.93067759
177.887,264.910056802
177.902,264.889223038
177.917,264.86817717
177.932,264.846920087
177.947,264.825452686
177.96,264.806678179
177.962,264.803775871
177.977,264.781890561
177.992,264.759797681
178.007,264.737498161
178.022,264.714992949
178.037,264.692282991
178.052,264.66936925
178.067,264.646252693
178.082,264.622934297
178.097,264.599415042
178.112,264.575695922
178.127,264.551777933
178.142,264.527662079
178.157,264.503349374
178.172,264.478840835
178.187,264.454137487
178.202,264.429240358
178.217,264.404150482
178.232,264.378868909
178.247,264.353396675
178.262,264.327734836
178.277,264.301884448
178.292,264.27584657
178.307,264.249622268
178.322,264.223212607
178.337,264.196618662
178.352,264.169841505
178.367,264.142882215
178.382,264.115741872
178.397,264.08842156
178.41,264.06459922
178.412,264.060922365
178.427,264.033245368
178.442,264.005391664
178.457,263.97736234
178.472,263.949158485
178.487,263.920781194
178.502,263.892231555
178.517,263.863510661
178.532,263.834619604
178.547,263.805559474
178.562,263.776331363
178.577,263.746936359
178.592,263.717375551
178.607,263.687650022
178.622,263.65776086
178.637,263.627709146
178.652,263.597495959
178.667,263.567122374
178.682,263.536589468
178.697,263.505898309
178.712,263.475049963
178.727,263.444045495
178.742,263.412885963
178.757,263.381572418
178.772,263.350105911
178.787,263.318487487
178.802,263.286718182
178.817,263.254799031
178.832,263.222731062
178.847,263.190515296
178.862,263.158152743
178.877,263.125644417
178.892,263.092991315
178.907,263.060194433
178.922,263.027254757
178.937,262.994173265
178.952,262.960950927
178.967,262.927588709
178.982,262.894087563
178.997,262.860448435
179.012,262.826672262
179.027,262.792759966
179.042,262.758712476
179.057,262.724530693
179.072,262.69021552
179.087,262.655767843
179.102,262.621188542
179.117,262.586478487
179.132,262.551638534
179.147,262.516669531
179.16,262.48625932
179.162,262.481572314
179.177,262.446347708
179.192,262.41099653
179.207,262.375519577
179.222,262.339917647
179.237,262.304191511
179.252,262.268341941
179.267,262.232369694
179.282,262.196275508
179.297,262.160060113
179.312,262.123724231
179.327,262.087268566
179.342,262.050693806
179.357,262.014000638
179.372,261.977189724
179.387,261.940261717
179.402,261.903217259
179.417,261.866056975
179.432,261.828781482
179.447,261.791391378
179.462,261.753887246
179.477,261.716269662
179.492,261.678539187
179.507,261.640696362
179.522,261.60274172
179.537,261.564675778
179.552,261.526499038
179.567,261.488211993
179.582,261.449815112
179.597,261.411308862
179.612,261.372693685
179.627,261.333970018
179.642,261.295138276
179.657,261.256198863
179.672,261.21715217
179.687,261.177998573
179.702,261.138738432
179.717,261.099372093
179.732,261.05989989
179.747,261.020322138
179.762,260.980639145
179.777,260.940851198
179.792,260.90095857
179.807,260.860961526
179.822,260.820860306
179.837,260.780655148
179.852,260.740346267
179.867,260.699933864
179.882,260.659418133
179.897,260.618799245
179.91,260.583512891
179.912,260.578077361
179.927,260.537252627
179.942,260.496325177
179.957,260.455295125
179.972,260.414162578
179.987,260.372927623
180.002,260.33159034
180.017,260.290150786
180.032,260.248609006
180.047,260.20696504
180.062,260.165218901
180.077,260.123370598
180.092,260.081420119
180.107,260.039367445
180.122,259.99721254
180.137,259.954955347
180.152,259.912595807
180.167,259.870133841
180.182,259.827569358
180.197,259.784902249
180.212,259.742132397
180.227,259.699259666
180.242,259.656283911
180.257,259.613204971
180.272,259.570022669
180.287,259.52673682
180.302,259.483347216
180.317,259.439853649
180.332,259.396255886
180.347,259.352553679
180.362,259.308746776
180.377,259.264834905
180.392,259.22081778
180.407,259.176695102
180.422,259.132466563
180.437,259.08813183
180.452,259.043690567
180.467,258.99914242
180.482,258.954487018
180.497,258.909723983
180.512,258.86485292
180.527,258.819873412
180.542,258.77478504
180.557,258.729587366
180.56,258.720534674
180.572,258.684279935
180.587,258.63886228
180.602,258.593333925
180.617,258.547694369
180.632,258.501943105
180.647,258.456079606
180.66,258.41624004
180.662,258.410103336
180.677,258.364013738
180.692,258.317810246
180.707,258.271492277
180.722,258.225059229
180.737,258.178510494
180.752,258.131845439
180.767,258.085063424
180.782,258.038163788
180.797,257.991145858
180.812,257.944008942
180.827,257.896752337
180.842,257.849375321
180.857,257.801877159
180.872,257.754257095
180.887,257.706514363
180.902,257.658648178
180.917,257.610657738
180.932,257.562542226
180.947,257.514300811
180.962,257.465932638
180.977,257.417436842
180.992,257.368812544
181.007,257.320058837
181.022,257.271174808
181.037,257.22215952
181.052,257.173012026
181.067,257.123731357
181.082,257.074316524
181.097,257.024766526
181.112,256.975080343
181.127,256.925256939
181.142,256.875295257
181.157,256.825194225
181.172,256.774952753
181.187,256.724569735
181.202,256.674044044
181.217,256.623374539
181.232,256.572560059
181.247,256.521599428
181.262,256.470491449
181.277,256.419234911
181.292,256.367828586
181.307,256.316271225
181.31,256.305941518
181.322,256.264561564
181.337,256.212698325
181.352,256.160680208
181.367,256.108505901
181.382,256.056174076
181.397,256.003683381
181.412,255.951032456
181.427,255.898219929
181.442,255.845244399
181.457,255.792104466
181.472,255.738798704
181.487,255.685325681
181.502,255.631683945
181.517,255.577872037
181.532,255.52388848
181.547,255.469731793
181.562,255.415400479
181.577,255.36089303
181.592,255.306207934
181.607,255.251343667
181.622,255.196298696
181.637,255.141071487
181.652,255.085660498
181.667,255.030064181
181.682,254.97428099
181.697,254.918309374
181.712,254.862147784
181.727,254.805794673
181.742,254.749248498
181.757,254.692507719
181.772,254.635570806
181.787,254.578436237
181.802,254.521102502
181.817,254.463568108
181.832,254.405831571
181.847,254.347891435
181.862,254.289746258
181.877,254.23139463
181.892,254.172835165
181.907,254.114066509
181.922,254.055087344
181.937,253.995896392
181.952,253.936492414
181.967,253.876874223
181.982,253.817040682
181.997,253.756990708
182.012,253.696723281
182.027,253.636237454
182.042,253.575532338
182.057,253.514607135
182.06,253.502395619
182.072,253.453461126
182.087,253.392093684
182.102,253.330504278
182.117,253.268692483
182.132,253.206657985
182.147,253.144400589
182.162,253.081920228
182.177,253.01921697
182.192,252.956291033
182.207,252.893142779
182.222,252.829772742
182.237,252.766181625
182.252,252.702370309
182.267,252.638339871
182.282,252.574091594
182.297,252.509626967
182.312,252.444947703
182.327,252.380055754
182.342,252.314953311
182.357,252.249642818
182.372,252.184126984
182.387,252.118408793
182.402,252.052491506
182.417,251.986378677
182.432,251.920074156
182.447,251.853582098
182.462,251.786906961
182.477,251.720053508
182.492,251.653026825
182.507,251.585832286
182.522,251.51847558
182.537,251.450962677
182.552,251.38329983
182.567,251.315493548
182.582,251.247550567
182.597,251.179477832
182.612,251.111282444
182.627,251.042971612
182.642,250.974552599
182.657,250.906032645
182.672,250.837418881
182.687,250.768718229
182.702,250.699937285
182.717,250.631082159
182.732,250.562158337
182.747,250.493170466
182.762,250.424122139
182.777,250.355015639
182.792,250.285851629
182.807,250.216628815
182.822,250.147343553
182.837,250.077989381
182.852,250.008556503
182.867,249.939031182
182.882,249.869395076
182.897,249.799624435
182.912,249.729689223
182.927,249.659552109
182.942,249.589167342
182.957,249.51847946
182.972,249.447421878
182.987,249.375915336
183.002,249.303866202
183.017,249.231164715
183.032,249.157683207
183.047,249.083274478
183.062,249.007770562
183.077,248.930982319
183.092,248.852700551
183.107,248.772699786
183.122,248.690746622
183.137,248.606615549
183.152,248.520116988
183.167,248.431144712
183.182,248.339753279
183.197,248.246280062
183.212,248.151528697
183.227,248.057025787
183.242,247.965336915
183.257,247.880361076
183.367,247.889922207
183.382,247.974233704
183.397,248.064182559
183.412,248.156224949
183.427,248.248085592
183.442,248.338445275
183.457,248.4266362
183.472,248.512404217
183.487,248.595742458
183.502,248.676782131
183.517,248.755723828
183.532,248.832795795
183.547,248.908229492
183.562,248.982245967
183.577,249.055048857
183.592,249.126821383
183.607,249.197725676
183.622,249.267903428
183.637,249.337477238
183.652,249.406552275
183.667,249.475218059
183.682,249.543550196
183.697,249.611612022
183.712,249.679456141
183.727,249.747125772
183.742,249.814656022
183.757,249.88207495
183.772,249.949404571
183.787,250.016661692
183.802,250.083858678
183.817,250.151004108
183.832,250.218103358
183.847,250.285159106
183.862,250.352171767
183.877,250.419139887
183.892,250.486060469
183.907,250.552929264
183.922,250.619741023
183.937,250.686489713
183.952,250.753168703
183.967,250.819770922
183.982,250.886289001
183.997,250.952715385
184.012,251.019042431
184.027,251.085262494
184.042,251.151368
184.057,251.217351495
184.072,251.283205697
184.087,251.348923539
184.102,251.414498193
184.117,251.479923096
184.132,251.545191969
184.147,251.610298831
184.162,251.67523801
184.177,251.740004134
184.192,251.804592159
184.207,251.868997345
184.222,251.933215266
184.237,251.997241798
184.252,252.061073124
184.267,252.124705717
184.282,252.188136329
184.297,252.251361998
184.312,252.314380026
184.327,252.377187968
184.342,252.439783629
184.357,252.502165048
184.372,252.564330498
184.387,252.626278459
184.402,252.688007619
184.417,252.749516864
184.432,252.810805263
184.447,252.871872062
184.462,252.932716674
184.477,252.993338669
184.492,253.05373776
184.507,253.113913809
184.522,253.173866802
184.537,253.233596849
184.552,253.293104178
184.56,253.324750466
184.567,253.352389125
184.582,253.411452124
184.597,253.470293705
184.612,253.528914489
184.627,253.587315174
184.642,253.645496537
184.657,253.703459424
184.672,253.761204749
184.687,253.81873348
184.702,253.876046648
184.717,253.933145331
184.732,253.990030652
184.747,254.04670378
184.762,254.103165923
184.777,254.159418322
184.792,254.215462249
184.807,254.271299009
184.822,254.326929927
184.837,254.382356359
184.852,254.437579672
184.867,254.492601254
184.882,254.547422511
184.897,254.602044857
184.912,254.656469724
184.927,254.710698542
184.942,254.76473276
184.957,254.818573823
184.972,254.872223184
184.987,254.925682297
185.002,254.978952619
185.017,255.032035602
185.032,255.084932701
185.047,255.137645362
185.062,255.190175033
185.077,255.242523151
185.092,255.294691151
185.107,255.346680462
185.122,255.398492503
185.137,255.45012868
185.152,255.501590398
185.167,255.552879046
185.182,255.603996007
185.197,255.654942651
185.212,255.705720336
185.227,255.756330406
185.242,255.806774199
185.257,255.857053031
185.272,255.90716821
185.287,255.957121036
185.302,256.006912784
185.31,256.03340296
185.317,256.056544723
185.332,256.106018103
185.347,256.155334168
185.362,256.204494134
185.377,256.253499213
185.392,256.302350599
185.407,256.35104947
185.422,256.399596986
185.437,256.447994299
185.452,256.496242546
185.467,256.544342836
185.482,256.592296277
185.497,256.640103953
185.512,256.687766939
185.527,256.735286292
185.542,256.782663049
185.557,256.82989824
185.572,256.876992875
185.587,256.923947947
185.602,256.970764437
185.617,257.017443314
185.632,257.063985527
185.647,257.110392011
185.662,257.156663683
185.677,257.202801457
185.692,257.248806219
185.707,257.294678846
185.722,257.340420202
185.737,257.386031134
185.752,257.43151248
185.767,257.476865053
185.782,257.522089663
185.797,257.5671871
185.812,257.612158143
185.827,257.657003559
185.842,257.701724095
185.857,257.74632049
185.872,257.790793469
185.887,257.835143741
185.902,257.879372006
185.917,257.923478948
185.932,257.967465237
185.947,258.011331537
185.96,258.049252436
185.962,258.05507849
185.977,258.098706736
185.992,258.142216891
186.007,258.185609565
186.022,258.228885359
186.037,258.272044857
186.052,258.315088628
186.06,258.337998187
186.067,258.358017241
186.082,258.400831241
186.097,258.443531168
186.112,258.486117545
186.127,258.528590891
186.142,258.570951706
186.157,258.613200488
186.172,258.655337714
186.187,258.697363855
186.202,258.73927937
186.217,258.781084707
186.232,258.8227803
186.247,258.864366582
186.262,258.905843966
186.277,258.947212857
186.292,258.988473649
186.307,259.029626728
186.322,259.070672465
186.337,259.111611225
186.352,259.152443362
186.367,259.193169218
186.382,259.233789124
186.397,259.274303405
186.412,259.314712374
186.427,259.35501633
186.442,259.395215566
186.457,259.435310369
186.472,259.475301006
186.487,259.515187746
186.502,259.554970838
186.517,259.594650522
186.532,259.634227039
186.547,259.673700609
186.562,259.713071447
186.577,259.752339755
186.592,259.791505732
186.607,259.830569561
186.622,259.86953142
186.637,259.908391475
186.652,259.947149881
186.667,259.985806788
186.682,260.024362335
186.697,260.062816647
186.71,260.096061924
186.712,260.101169847
186.727,260.139422041
186.742,260.177573337
186.757,260.215623821
186.772,260.253573576
186.787,260.291422677
186.802,260.329171184
186.817,260.366819155
186.832,260.404366635
186.847,260.441813661
186.862,260.479160257
186.877,260.516406443
186.892,260.553552229
186.907,260.590597615
186.922,260.627542588
186.937,260.664387134
186.952,260.701131225
186.967,260.737774822
186.982,260.774317883
186.997,260.810760354
187.012,260.84710217
187.027,260.883343261
187.042,260.919483544
187.057,260.955522935
187.072,260.991461329
187.087,261.027298624
187.102,261.063034702
187.117,261.098669438
187.132,261.134202702
187.147,261.169634352
187.162,261.204964235
187.177,261.240192196
187.192,261.275318065
187.207,261.310341669
187.222,261.345262826
187.237,261.380081339
187.252,261.414797013
187.267,261.449409635
187.282,261.483918989
187.297,261.518324853
187.312,261.552626995
187.327,261.586825169
187.342,261.620919133
187.357,261.654908624
187.372,261.688793383
187.387,261.722573136
187.402,261.756247605
187.417,261.789816501
187.432,261.82327953
187.447,261.856636393
187.46,261.885459556
187.462,261.889886776
187.477,261.923030367
187.492,261.956066842
187.507,261.988995868
187.522,262.021817112
187.537,262.054530223
187.552,262.087134855
187.567,262.119630652
187.582,262.152017247
187.597,262.184294266
187.612,262.216461339
187.627,262.24851808
187.642,262.280464098
187.657,262.312299001
187.672,262.344022384
187.687,262.375633843
187.702,262.407132962
187.717,262.438519327
187.732,262.469792513
187.747,262.500952091
187.762,262.531997624
187.777,262.562928678
187.792,262.593744806
187.807,262.62444556
187.822,262.655030486
187.837,262.685499126
187.852,262.715851018
187.867,262.746085696
187.882,262.776202691
187.897,262.806201524
187.912,262.836081721
187.927,262.865842795
187.942,262.895484266
187.957,262.925005641
187.972,262.954406427
187.987,262.983686133
188.002,263.012844258
188.017,263.041880302
188.032,263.07079376
188.047,263.099584127
188.062,263.128250892
188.077,263.156793546
188.092,263.185211578
188.107,263.213504472
188.122,263.241671711
188.137,263.269712776
188.152,263.297627153
188.167,263.325414315
188.182,263.353073742
188.197,263.380604913
188.21,263.404361114
188.212,263.408007305
188.227,263.435280392
188.242,263.462423652
188.257,263.489436556
188.272,263.516318583
188.287,263.543069208
188.302,263.569687902
188.317,263.596174144
188.332,263.622527409
188.347,263.648747175
188.362,263.674832917
188.377,263.700784114
188.392,263.726600246
188.407,263.752280792
188.422,263.777825236
188.437,263.803233059
188.452,263.828503748
188.467,263.85363679
188.482,263.878631671
188.497,263.903487886
188.512,263.928204924
188.527,263.952782284
188.542,263.977219463
188.557,264.001515961
188.572,264.025671285
188.587,264.049684939
188.602,264.073556432
188.617,264.097285277
188.632,264.120870994
188.647,264.1443131
188.66,264.164513057
188.662,264.167611118
188.677,264.190764576
188.692,264.213773006
188.707,264.236635944
188.722,264.259352926
