# 78954 TBPB Grantley Adams Observations at 12Z 20 Aug 2020
Frequency [GHz],TB
175.31,280.100322401
175.322,280.081341302
175.337,280.057552245
175.352,280.033693311
175.367,280.009764247
175.382,279.985764803
175.397,279.961694725
175.412,279.937553759
175.427,279.913341648
175.442,279.889058134
175.457,279.864702958
175.472,279.840275857
175.487,279.81577657
175.502,279.791204832
175.517,279.766560376
175.532,279.741842935
175.547,279.717052239
175.562,279.692188017
175.577,279.667249995
175.592,279.642237901
175.607,279.617151456
175.622,279.591990384
175.637,279.566754404
175.652,279.541443235
175.667,279.516056594
175.682,279.490594196
175.697,279.465055754
175.712,279.43944098
175.727,279.413749583
175.742,279.387981272
175.757,279.362135752
175.772,279.336212729
175.787,279.310211904
175.802,279.284132979
175.817,279.257975653
175.832,279.231739622
175.847,279.205424582
175.862,279.179030226
175.877,279.152556247
175.892,279.126002332
175.907,279.099368172
175.922,279.07265345
175.937,279.045857853
175.952,279.01898106
175.967,278.992022753
175.982,278.964982611
175.997,278.937860309
176.012,278.910655521
176.027,278.883367921
176.042,278.855997179
176.057,278.828542963
176.072,278.80100494
176.087,278.773382774
176.102,278.745676128
176.117,278.717884663
176.132,278.690008037
176.147,278.662045907
176.162,278.633997927
176.177,278.605863749
176.192,278.577643024
176.207,278.5493354
176.222,278.520940524
176.237,278.492458039
176.252,278.463887588
176.267,278.435228811
176.282,278.406481345
176.297,278.377644826
176.31,278.352580859
176.312,278.348718887
176.327,278.319703161
176.342,278.290597276
176.357,278.261400859
176.372,278.232113536
176.387,278.202734929
176.402,278.173264658
176.417,278.143702342
176.432,278.114047597
176.447,278.084300037
176.46,278.058443441
176.462,278.054459273
176.477,278.024524915
176.492,277.99449657
176.507,277.964373842
176.522,277.934156334
176.537,277.903843647
176.552,277.873435377
176.567,277.842931122
176.582,277.812330473
176.597,277.781633023
176.612,277.750838358
176.627,277.719946066
176.642,277.68895573
176.657,277.657866931
176.672,277.626679249
176.687,277.59539226
176.702,277.564005537
176.717,277.532518653
176.732,277.500931177
176.747,277.469242675
176.762,277.437452711
176.777,277.405560846
176.792,277.373566641
176.807,277.341469651
176.822,277.309269431
176.837,277.276965531
176.852,277.244557501
176.867,277.212044887
176.882,277.179427232
176.897,277.146704077
176.912,277.113874961
176.927,277.080939419
176.942,277.047896984
176.957,277.014747186
176.972,276.981489553
176.987,276.948123609
177.002,276.914648876
177.017,276.881064874
177.032,276.847371119
177.047,276.813567124
177.062,276.7796524
177.077,276.745626455
177.092,276.711488795
177.107,276.67723892
177.122,276.64287633
177.137,276.608400522
177.152,276.573810988
177.167,276.539107219
177.182,276.504288702
177.197,276.469354921
177.21,276.438985342
177.212,276.434305358
177.227,276.39913949
177.242,276.363856793
177.257,276.328456737
177.272,276.292938793
177.287,276.257302425
177.302,276.221547095
177.31,276.202428757
177.317,276.185672263
177.332,276.149677384
177.347,276.113561911
177.362,276.077325293
177.377,276.040966976
177.392,276.004486402
177.407,275.96788301
177.422,275.931156236
177.437,275.894305511
177.452,275.857330265
177.467,275.820229922
177.482,275.783003905
177.497,275.745651629
177.512,275.708172511
177.527,275.670565961
177.542,275.632831385
177.557,275.594968186
177.572,275.556975764
177.587,275.518853515
177.602,275.480600829
177.617,275.442217095
177.632,275.403701696
177.647,275.365054013
177.66,275.331451868
177.662,275.326273421
177.677,275.287359291
177.692,275.248310992
177.707,275.209127886
177.722,275.169809334
177.737,275.13035469
177.752,275.090763304
177.767,275.051034523
177.782,275.01116769
177.797,274.971162141
177.812,274.93101721
177.827,274.890732225
177.842,274.850306511
177.857,274.809739385
177.872,274.769030164
177.887,274.728178156
177.902,274.687182667
177.917,274.646042998
177.932,274.604758442
177.947,274.56332829
177.96,274.527303836
177.962,274.521751828
177.977,274.480028336
177.992,274.438157088
178.007,274.396137354
178.022,274.353968399
178.037,274.31164948
178.052,274.269179853
178.067,274.226558765
178.082,274.183785458
178.097,274.140859169
178.112,274.09777913
178.127,274.054544565
178.142,274.011154694
178.157,273.96760873
178.172,273.923905882
178.187,273.88004535
178.202,273.83602633
178.217,273.79184801
178.232,273.747509573
178.247,273.703010195
178.262,273.658349047
178.277,273.613525291
178.292,273.568538083
178.307,273.523386574
178.322,273.478069906
178.337,273.432587214
178.352,273.386937628
178.367,273.34112027
178.382,273.295134254
178.397,273.248978686
178.41,273.208839351
178.412,273.202652667
178.427,273.15615529
178.442,273.109485637
178.457,273.062642788
178.472,273.015625809
178.487,272.968433763
178.502,272.921065703
178.517,272.873520674
178.532,272.825797712
178.547,272.777895845
178.562,272.729814094
178.577,272.68155147
178.592,272.633106975
178.607,272.584479604
178.622,272.535668341
178.637,272.486672163
178.652,272.437490035
178.667,272.388120915
178.682,272.338563752
178.697,272.288817484
178.712,272.23888104
178.727,272.188753339
178.742,272.138433291
178.757,272.087919795
178.772,272.037211739
178.787,271.986308004
178.802,271.935207457
178.817,271.883908957
178.832,271.832411352
178.847,271.780713477
178.862,271.728814158
178.877,271.676712212
178.892,271.62440644
178.907,271.571895636
178.922,271.51917858
178.937,271.466254042
178.952,271.41312078
178.967,271.359777539
178.982,271.306223054
178.997,271.252456046
179.012,271.198475226
179.027,271.144279289
179.042,271.089866923
179.057,271.035236797
179.072,270.980387574
179.087,270.925317898
179.102,270.870026404
179.117,270.814511712
179.132,270.758772429
179.147,270.70280715
179.16,270.654120006
179.162,270.646614456
179.177,270.590192912
179.192,270.533541071
179.207,270.476657474
179.222,270.419540645
179.237,270.362189095
179.252,270.304601321
179.267,270.246775805
179.282,270.188711016
179.297,270.130405406
179.312,270.071857415
179.327,270.013065465
179.342,269.954027966
179.357,269.894743312
179.372,269.835209882
179.387,269.775426039
179.402,269.715390131
179.417,269.655100491
179.432,269.594555436
179.447,269.533753269
179.462,269.472692275
179.477,269.411370724
179.492,269.349786872
179.507,269.287938956
179.522,269.2258252
179.537,269.16344381
179.552,269.100792977
179.567,269.037870876
179.582,268.974675665
179.597,268.911205486
179.612,268.847458466
179.627,268.783432714
179.642,268.719126325
179.657,268.654537375
179.672,268.589663926
179.687,268.524504024
179.702,268.459055696
179.717,268.393316955
179.732,268.327285798
179.747,268.260960205
179.762,268.19433814
179.777,268.127417551
179.792,268.060196371
179.807,267.992672516
179.822,267.924843885
179.837,267.856708365
179.852,267.788263823
179.867,267.719508114
179.882,267.650439075
179.897,267.581054531
179.91,267.520664355
179.912,267.511352287
179.927,267.441330138
179.942,267.370985861
179.957,267.30031722
179.972,267.229321964
179.987,267.157997827
180.002,267.086342531
180.017,267.014353783
180.032,266.942029276
180.047,266.86936669
180.062,266.796363693
180.077,266.72301794
180.092,266.649327072
180.107,266.57528872
180.122,266.500900502
180.137,266.426160025
180.152,266.351064885
180.167,266.275612666
180.182,266.199800945
180.197,266.123627285
180.212,266.047089242
180.227,265.970184363
180.242,265.892910185
180.257,265.815264238
180.272,265.737244043
180.287,265.658847116
180.302,265.580070965
180.317,265.500913091
180.332,265.42137099
180.347,265.341442154
180.362,265.26112407
180.377,265.18041422
180.392,265.099310083
180.407,265.017809137
180.422,264.935908856
180.437,264.853606713
180.452,264.77090018
180.467,264.68778673
180.482,264.604263836
180.497,264.52032897
180.512,264.435979609
180.527,264.351213231
180.542,264.266027318
180.557,264.180419355
180.56,264.163246895
180.572,264.094386832
180.587,264.007927245
180.602,263.921038096
180.617,263.833716893
180.632,263.745961153
180.647,263.6577684
180.66,263.58097928
180.662,263.569136169
180.677,263.480062001
180.692,263.390543452
180.707,263.300578087
180.722,263.210163482
180.737,263.119297227
180.752,263.027976925
180.767,262.936200193
180.782,262.843964662
180.797,262.751267979
180.812,262.658107805
180.827,262.564481819
180.842,262.470387718
180.857,262.375823212
180.872,262.280786033
180.887,262.185273929
180.902,262.089284668
180.917,261.992816035
180.932,261.895865834
180.947,261.798431892
180.962,261.700512051
180.977,261.602104174
180.992,261.503206145
181.007,261.403815865
181.022,261.303931256
181.037,261.203550258
181.052,261.10267083
181.067,261.001290949
181.082,260.899408608
181.097,260.79702182
181.112,260.694128612
181.127,260.590727026
181.142,260.486815118
181.157,260.382390957
181.172,260.277452624
181.187,260.171998208
181.202,260.066025808
181.217,259.959533528
181.232,259.852519476
181.247,259.744981763
181.262,259.636918497
181.277,259.528327785
181.292,259.419207726
181.307,259.30955641
181.31,259.287562227
181.322,259.199371914
181.337,259.088652298
181.352,258.977395602
181.367,258.86559984
181.382,258.753263
181.397,258.640383031
181.412,258.526957847
181.427,258.412985314
181.442,258.298463251
181.457,258.183389417
181.472,258.067761512
181.487,257.951577162
181.502,257.834833919
181.517,257.71752925
181.532,257.599660529
181.547,257.481225028
181.562,257.362219912
181.577,257.242642225
181.592,257.122488883
181.607,257.001756664
181.622,256.880442196
181.637,256.758541946
181.652,256.636052211
181.667,256.512969103
181.682,256.389288536
181.697,256.265006218
181.712,256.140117632
181.727,256.014618023
181.742,255.888502385
181.757,255.761765446
181.772,255.63440165
181.787,255.506405141
181.802,255.37776975
181.817,255.248488972
181.832,255.118555949
181.847,254.987963455
181.862,254.856703872
181.877,254.724769174
181.892,254.592150902
181.907,254.458840146
181.922,254.324827518
181.937,254.190103138
181.952,254.054656599
181.967,253.918476951
181.982,253.781552672
181.997,253.64387164
182.012,253.505421112
182.027,253.366187685
182.042,253.226157279
182.057,253.085315096
182.06,253.057047891
182.072,252.943645591
182.087,252.801132443
182.102,252.657758514
182.117,252.513505814
182.132,252.368355465
182.147,252.222287656
182.162,252.075281603
182.177,251.927315503
182.192,251.778366485
182.207,251.628410558
182.222,251.477422557
182.237,251.325376079
182.252,251.172243428
182.267,251.017995535
182.282,250.862601892
182.297,250.706030464
182.312,250.548247603
182.327,250.389217948
182.342,250.22890432
182.357,250.067267601
182.372,249.904266605
182.387,249.73985793
182.402,249.5739958
182.417,249.406631884
182.432,249.237715094
182.447,249.067191361
182.462,248.895003386
182.477,248.721090355
182.492,248.545387623
182.507,248.367826356
182.522,248.188333127
182.537,248.006829461
182.552,247.82323132
182.567,247.637448521
182.582,247.44938407
182.597,247.258933417
182.612,247.065983599
182.627,246.87041227
182.642,246.6720866
182.657,246.470862011
182.672,246.266580746
182.687,246.059070228
182.702,245.848141184
182.717,245.633585507
182.732,245.415173799
182.747,245.192652562
182.762,244.965740975
182.777,244.734127199
182.792,244.49746413
182.807,244.255364522
182.822,244.007395386
182.837,243.753071546
182.852,243.491848237
182.867,243.223112594
182.882,242.946173882
182.897,242.660252284
182.912,242.364466067
182.927,242.057816921
182.942,241.739173283
182.957,241.407251474
182.972,241.060594527
182.987,240.697548703
183.002,240.316237879
183.017,239.914536334
183.032,239.490041006
183.047,239.040045248
183.062,238.561517542
183.077,238.051091066
183.092,237.505073774
183.107,236.91949465
183.122,236.290211174
183.137,235.613117447
183.152,234.884514003
183.167,234.101731191
183.182,233.264138294
183.197,232.374713528
183.212,231.442369505
183.227,230.485153422
183.242,229.534114795
183.257,228.636797744
183.367,228.838315697
183.382,229.749546026
183.397,230.700759741
183.412,231.648932514
183.427,232.566752767
183.442,233.4388699
183.457,234.258152339
183.472,235.022718072
183.487,235.733824319
183.502,236.394462484
183.517,237.008464379
183.532,237.579955331
183.547,238.113033378
183.562,238.611591742
183.577,239.079229984
183.592,239.519218769
183.607,239.934496049
183.622,240.327680815
183.637,240.701095916
183.652,241.056794795
183.667,241.396589097
183.682,241.722075435
183.697,242.034660389
183.712,242.335583323
183.727,242.625936889
183.742,242.906685258
183.757,243.178680215
183.772,243.44267529
183.787,243.699338131
183.802,243.949261299
183.817,244.192971677
183.832,244.430938667
183.847,244.663581318
183.862,244.89127453
183.877,245.114354452
183.892,245.333123179
183.907,245.547852847
183.922,245.758789191
183.937,245.966154657
183.952,246.170151113
183.967,246.370962211
183.982,246.568755463
183.997,246.763684043
184.012,246.955888375
184.027,247.145497519
184.042,247.332630388
184.057,247.517396816
184.072,247.699898496
184.087,247.880229806
184.102,248.058478535
184.117,248.234726527
184.132,248.409050241
184.147,248.581521254
184.162,248.752206699
184.177,248.921169662
184.192,249.088469522
184.207,249.254162264
184.222,249.418300751
184.237,249.580934965
184.252,249.742112231
184.267,249.901877406
184.282,250.060273057
184.297,250.217339614
184.312,250.373115516
184.327,250.527637331
184.342,250.680939878
184.357,250.833056326
184.372,250.984018291
184.387,251.133855922
184.402,251.282597979
184.417,251.430271907
184.432,251.576903903
184.447,251.722518976
184.462,251.867141004
184.477,252.010792789
184.492,252.153496106
184.507,252.295271748
184.522,252.436139572
184.537,252.576118537
184.552,252.715226747
184.56,252.789067749
184.567,252.853481483
184.582,252.99089924
184.597,253.127495764
184.612,253.263286075
184.627,253.398284508
184.642,253.532504731
184.657,253.665959784
184.672,253.798662097
184.687,253.93062352
184.702,254.061855347
184.717,254.192368341
184.732,254.322172755
184.747,254.451278356
184.762,254.579694448
184.777,254.707429889
184.792,254.834493114
184.807,254.960892154
184.822,255.086634657
184.837,255.2117279
184.852,255.336178816
184.867,255.459994003
184.882,255.583179743
184.897,255.70574202
184.912,255.827686535
184.927,255.949018718
184.942,256.069743745
184.957,256.189866551
184.972,256.309391845
184.987,256.42832412
185.002,256.546667667
185.017,256.664426586
185.032,256.781604801
185.047,256.898206065
185.062,257.014233977
185.077,257.129691986
185.092,257.244583405
185.107,257.35891142
185.122,257.472679096
185.137,257.585889389
185.152,257.698545151
185.167,257.810649141
185.182,257.922204028
185.197,258.033212403
185.212,258.143676783
185.227,258.253599617
185.242,258.362983292
185.257,258.471830141
185.272,258.580142446
185.287,258.687922442
185.302,258.795172327
185.31,258.852156257
185.317,258.901894261
185.332,259.008090373
185.347,259.113762765
185.362,259.218913513
185.377,259.323544675
185.392,259.427658292
185.407,259.531256389
185.422,259.634340982
185.437,259.736914078
185.452,259.838977678
185.467,259.940533779
185.482,260.041584377
185.497,260.142131467
185.512,260.242177048
185.527,260.341723121
185.542,260.440771694
185.557,260.539324779
185.572,260.637384397
185.587,260.734952579
185.602,260.832031364
185.617,260.928622801
185.632,261.024728951
185.647,261.120351888
185.662,261.215493695
185.677,261.310156471
185.692,261.404342327
185.707,261.498053386
185.722,261.591291786
185.737,261.684059679
185.752,261.776359228
185.767,261.868192612
185.782,261.959562024
185.797,262.050469669
185.812,262.140917764
185.827,262.230908543
185.842,262.320444249
185.857,262.409527138
185.872,262.498159481
185.887,262.586343557
185.902,262.674081659
185.917,262.761376089
185.932,262.848229162
185.947,262.9346432
185.96,263.009182039
185.962,263.020620536
185.977,263.106163513
185.992,263.191274481
186.007,263.275955798
186.022,263.360209829
186.037,263.444038949
186.052,263.527445534
186.06,263.5717571
186.067,263.610431971
186.082,263.693000648
186.097,263.775153961
186.112,263.856894307
186.127,263.938224088
186.142,264.019145708
186.157,264.099661575
186.172,264.179774098
186.187,264.259485685
186.202,264.338798748
186.217,264.417715696
186.232,264.496238939
186.247,264.574370887
186.262,264.652113946
186.277,264.729470521
186.292,264.806443015
186.307,264.883033828
186.322,264.959245354
186.337,265.035079985
186.352,265.110540109
186.367,265.185628108
186.382,265.260346357
186.397,265.334697227
186.412,265.408683083
186.427,265.482306281
186.442,265.555569172
186.457,265.628474098
186.472,265.701023394
186.487,265.773219386
186.502,265.845064391
186.517,265.916560718
186.532,265.987710665
186.547,266.058516522
186.562,266.128980569
186.577,266.199105072
186.592,266.268892292
186.607,266.338344475
186.622,266.407463858
186.637,266.476252665
186.652,266.544713109
186.667,266.612847391
186.682,266.6806577
186.697,266.748146213
186.71,266.806377633
186.712,266.815315094
186.727,266.882166494
186.742,266.948702551
186.757,267.014925392
186.772,267.080837128
186.787,267.146439858
186.802,267.211735668
186.817,267.276726628
186.832,267.341414796
186.847,267.405802217
186.862,267.469890921
186.877,267.533682922
186.892,267.597180223
186.907,267.660384812
186.922,267.72329866
186.937,267.785923728
186.952,267.848261959
186.967,267.910315282
186.982,267.972085613
186.997,268.033574853
187.012,268.094784887
187.027,268.155717587
187.042,268.21637481
187.057,268.276758398
187.072,268.336870178
187.087,268.396711963
187.102,268.456285551
187.117,268.515592726
187.132,268.574635257
187.147,268.633414897
187.162,268.691933388
187.177,268.750192454
187.192,268.808193806
187.207,268.865939141
187.222,268.923430139
187.237,268.98066847
187.252,269.037655787
187.267,269.094393728
187.282,269.150883918
187.297,269.207127969
187.312,269.263127478
187.327,269.318884026
187.342,269.374399183
187.357,269.429674505
187.372,269.484711532
187.387,269.539511793
187.402,269.594076801
187.417,269.648408058
187.432,269.70250705
187.447,269.756375251
187.46,269.802875472
187.462,269.810014123
187.477,269.863425113
187.492,269.916609656
187.507,269.969569173
187.522,270.022305073
187.537,270.074818752
187.552,270.127111595
187.567,270.179184971
187.582,270.231040239
187.597,270.282678746
187.612,270.334101826
187.627,270.3853108
187.642,270.436306979
187.657,270.48709166
187.672,270.53766613
187.687,270.588031663
187.702,270.638189522
187.717,270.688140958
187.732,270.737887213
187.747,270.787429514
187.762,270.83676908
187.777,270.885907117
187.792,270.934844822
187.807,270.983583378
187.822,271.032123961
187.837,271.080467735
187.852,271.128615852
187.867,271.176569456
187.882,271.224329679
187.897,271.271897643
187.912,271.319274462
187.927,271.366461238
187.942,271.413459063
187.957,271.460269021
187.972,271.506892186
187.987,271.55332962
188.002,271.599582378
188.017,271.645651506
188.032,271.69153804
188.047,271.737243007
188.062,271.782767424
188.077,271.828112301
188.092,271.873278638
188.107,271.918267427
188.122,271.963079651
188.137,272.007716284
188.152,272.052178293
188.167,272.096466635
188.182,272.140582261
188.197,272.184526111
188.21,272.222472557
188.212,272.22829912
188.227,272.271902214
188.242,272.315336309
188.257,272.358602318
188.272,272.401701141
188.287,272.444633675
188.302,272.487400807
188.317,272.530003416
188.332,272.572442378
188.347,272.614718556
188.362,272.65683281
188.377,272.698785991
188.392,272.740578945
188.407,272.78221251
188.422,272.823687516
188.437,272.865004788
188.452,272.906165144
188.467,272.947169396
188.482,272.988018348
188.497,273.0287128
188.512,273.069253543
188.527,273.109641364
188.542,273.149877042
188.557,273.189961352
188.572,273.229895062
188.587,273.269678932
188.602,273.309313721
188.617,273.348800178
188.632,273.388139047
188.647,273.427331068
188.66,273.46117927
188.662,273.466376975
188.677,273.505277495
188.692,273.54403335
188.707,273.582645258
188.722,273.621113931
188.737,273.659440075
