# 10410 EDZE Essen Observations at 12Z 11 Aug 2019
Frequency [GHz],TB
175.31,273.928726501
175.322,273.915470934
175.337,273.898736237
175.352,273.881817642
175.367,273.864714833
175.382,273.847427497
175.397,273.829955328
175.412,273.812298017
175.427,273.794455266
175.442,273.776426777
175.457,273.758212255
175.472,273.739811413
175.487,273.721223965
175.502,273.702449629
175.517,273.683488125
175.532,273.664339184
175.547,273.645002531
175.562,273.625477906
175.577,273.605765043
175.592,273.585863685
175.607,273.565773579
175.622,273.545494473
175.637,273.525026124
175.652,273.50436829
175.667,273.483520732
175.682,273.462483217
175.697,273.441255516
175.712,273.419837401
175.727,273.398228654
175.742,273.376429053
175.757,273.354438388
175.772,273.332256448
175.787,273.309883028
175.802,273.287317925
175.817,273.264560945
175.832,273.241611893
175.847,273.218470578
175.862,273.195136816
175.877,273.171610426
175.892,273.14789123
175.907,273.123979054
175.922,273.09987373
175.937,273.075575089
175.952,273.051082975
175.967,273.026397225
175.982,273.001517689
175.997,272.976444214
176.012,272.951176655
176.027,272.925714871
176.042,272.900058722
176.057,272.874208074
176.072,272.848162796
176.087,272.821922759
176.102,272.795487843
176.117,272.768857926
176.132,272.74203289
176.147,272.715012627
176.162,272.687797025
176.177,272.66038598
176.192,272.632779387
176.207,272.604977152
176.222,272.576979176
176.237,272.54878537
176.252,272.520395644
176.267,272.491809914
176.282,272.463028099
176.297,272.434050119
176.31,272.408777136
176.312,272.404875899
176.327,272.375505366
176.342,272.345938453
176.357,272.316175093
176.372,272.286215223
176.387,272.256058782
176.402,272.225705713
176.417,272.19515596
176.432,272.164409474
176.447,272.133466203
176.46,272.106489489
176.462,272.102326102
176.477,272.070989127
176.492,272.039455236
176.507,272.007724392
176.522,271.975796553
176.537,271.94367169
176.552,271.911349768
176.567,271.878830758
176.582,271.846114631
176.597,271.813201361
176.612,271.780090924
176.627,271.746783297
176.642,271.713278462
176.657,271.679576397
176.672,271.645677087
176.687,271.611580514
176.702,271.577286664
176.717,271.542795526
176.732,271.508107087
176.747,271.473221336
176.762,271.438138263
176.777,271.402857859
176.792,271.367380118
176.807,271.331705032
176.822,271.295832596
176.837,271.259762801
176.852,271.223495647
176.867,271.187031124
176.882,271.150369228
176.897,271.113509958
176.912,271.076453307
176.927,271.039199272
176.942,271.001747848
176.957,270.96409903
176.972,270.926252814
176.987,270.888209192
177.002,270.84996816
177.017,270.811529711
177.032,270.772893838
177.047,270.73406053
177.062,270.69502978
177.077,270.655801576
177.092,270.616375907
177.107,270.576752758
177.122,270.536932117
177.137,270.496913965
177.152,270.456698284
177.167,270.416285055
177.182,270.375674255
177.197,270.334865861
177.21,270.299338734
177.212,270.293859846
177.227,270.252656181
177.242,270.211254835
177.257,270.169655775
177.272,270.127858964
177.287,270.085864362
177.302,270.043671927
177.31,270.021088388
177.317,270.001281614
177.332,269.958693373
177.347,269.915907155
177.362,269.872922902
177.377,269.829740556
177.392,269.786360053
177.407,269.742781326
177.422,269.699004307
177.437,269.655028918
177.452,269.610855082
177.467,269.566482715
177.482,269.52191173
177.497,269.477142033
177.512,269.432173527
177.527,269.387006112
177.542,269.341639678
177.557,269.296074114
177.572,269.250309304
177.587,269.204345123
177.602,269.158181443
177.617,269.111818131
177.632,269.065255048
177.647,269.018492047
177.66,268.977802285
177.662,268.971528978
177.677,268.924365682
177.692,268.877001997
177.707,268.829437753
177.722,268.781672772
177.737,268.733706873
177.752,268.685539866
177.767,268.637171553
177.782,268.588601734
177.797,268.539830197
177.812,268.490856725
177.827,268.441681096
177.842,268.392303075
177.857,268.342722425
177.872,268.292938901
177.887,268.242952247
177.902,268.192762202
177.917,268.142368499
177.932,268.091770858
177.947,268.040968997
177.96,267.9967753
177.962,267.989962622
177.977,267.938751431
177.992,267.887335118
178.007,267.835713364
178.022,267.783885843
178.037,267.731852223
178.052,267.67961216
178.067,267.627165305
178.082,267.574511301
178.097,267.521649776
178.112,267.468580357
178.127,267.415302658
178.142,267.361816286
178.157,267.308120838
178.172,267.254215903
178.187,267.200101064
178.202,267.145775888
178.217,267.091239942
178.232,267.036492776
178.247,266.981533937
178.262,266.92636296
178.277,266.870979371
178.292,266.81538269
178.307,266.759572426
178.322,266.703548078
178.337,266.647309139
178.352,266.590855089
178.367,266.534185406
178.382,266.477299551
178.397,266.42019698
178.41,266.370532362
178.412,266.362877143
178.427,266.305339479
178.442,266.247583413
178.457,266.189608372
178.472,266.131413766
178.487,266.072998999
178.502,266.014363469
178.517,265.955506563
178.532,265.896427659
178.547,265.837126128
178.562,265.777601334
178.577,265.717852633
178.592,265.657879371
178.607,265.597680887
178.622,265.537256514
178.637,265.476605575
178.652,265.415727389
178.667,265.354621265
178.682,265.293286502
178.697,265.231722401
178.712,265.169928246
178.727,265.107903322
178.742,265.045646905
178.757,264.983158262
178.772,264.920436659
178.787,264.857481352
178.802,264.79429159
178.817,264.730866626
178.832,264.667205695
178.847,264.603308036
178.862,264.539172878
178.877,264.474799449
178.892,264.41018697
178.907,264.345334661
178.922,264.280241735
178.937,264.214907401
178.952,264.14933087
178.967,264.083511345
178.982,264.017448028
178.997,263.951140118
179.012,263.884586813
179.027,263.817787308
179.042,263.750740798
179.057,263.683446476
179.072,263.615903535
179.087,263.548111167
179.102,263.480068565
179.117,263.411774919
179.132,263.343229426
179.147,263.274431278
179.16,263.214601228
179.162,263.205379674
179.177,263.136073807
179.192,263.066512882
179.207,262.996696102
179.222,262.926622672
179.237,262.856291804
179.252,262.78570271
179.267,262.714854613
179.282,262.643746736
179.297,262.572378307
179.312,262.500748563
179.327,262.42885675
179.342,262.356702113
179.357,262.284283914
179.372,262.211601417
179.387,262.138653896
179.402,262.065440635
179.417,261.991960928
179.432,261.918214079
179.447,261.844199404
179.462,261.769916229
179.477,261.695363894
179.492,261.62054175
179.507,261.545449162
179.522,261.470085509
179.537,261.394450187
179.552,261.318542606
179.567,261.242362188
179.582,261.165908378
179.597,261.089180634
179.612,261.012178432
179.627,260.934901272
179.642,260.857348667
179.657,260.779520152
179.672,260.701415287
179.687,260.623033645
179.702,260.544374829
179.717,260.465438461
179.732,260.386224189
179.747,260.306731684
179.762,260.22696064
179.777,260.14691078
179.792,260.066581855
179.807,259.985973639
179.822,259.905085936
179.837,259.82391858
179.852,259.742471434
179.867,259.660744391
179.882,259.578737374
179.897,259.496450342
179.91,259.424908401
179.912,259.41388328
179.927,259.331036215
179.942,259.2479092
179.957,259.164502326
179.972,259.080815722
179.987,258.996849551
180.002,258.912604013
180.017,258.828079346
180.032,258.743275828
180.047,258.658193773
180.062,258.572833539
180.077,258.487195522
180.092,258.401280159
180.107,258.315087931
180.122,258.22861936
180.137,258.141875011
180.152,258.054855493
180.167,257.967561461
180.182,257.879993613
180.197,257.792152692
180.212,257.704039488
180.227,257.615654838
180.242,257.526999626
180.257,257.438074779
180.272,257.348881278
180.287,257.259420148
180.302,257.169692463
180.317,257.079699347
180.332,256.98944197
180.347,256.898921554
180.362,256.808139367
180.377,256.71709673
180.392,256.625795008
180.407,256.534235624
180.422,256.442420037
180.437,256.350349768
180.452,256.258026382
180.467,256.165451488
180.482,256.072626748
180.497,255.979553875
180.512,255.886234622
180.527,255.792670795
180.542,255.69886424
180.557,255.604816855
180.56,255.58597865
180.572,255.510530582
180.587,255.4160074
180.602,255.32124934
180.617,255.226258472
180.632,255.131036901
180.647,255.035586782
180.66,254.952680162
180.662,254.939910299
180.677,254.844009677
180.692,254.747887179
180.707,254.651545094
180.722,254.554985753
180.737,254.458211506
180.752,254.361224738
180.767,254.26402786
180.782,254.166623305
180.797,254.069013524
180.812,253.971200995
180.827,253.873188204
180.842,253.774977655
180.857,253.676571863
180.872,253.577973348
180.887,253.479184634
180.902,253.380208255
180.917,253.28104673
180.932,253.181702579
180.947,253.082178314
180.962,252.982476431
180.977,252.882599411
180.992,252.782549712
181.007,252.68232977
181.022,252.581941987
181.037,252.481388734
181.052,252.380672341
181.067,252.279795098
181.082,252.178759244
181.097,252.077566966
181.112,251.976220393
181.127,251.874721591
181.142,251.773072556
181.157,251.67127521
181.172,251.569331397
181.187,251.467242876
181.202,251.365011313
181.217,251.262638284
181.232,251.160125254
181.247,251.057473589
181.262,250.954684534
181.277,250.85175922
181.292,250.748698651
181.307,250.6455037
181.31,250.624848649
181.322,250.5421751
181.337,250.438713448
181.352,250.335119186
181.367,250.231392604
181.382,250.127533834
181.397,250.023542842
181.412,249.919419415
181.427,249.815163177
181.442,249.710773561
181.457,249.606249817
181.472,249.501591002
181.487,249.396795979
181.502,249.291863409
181.517,249.186791747
181.532,249.081579241
181.547,248.976223929
181.562,248.870723627
181.577,248.765075941
181.592,248.659278248
181.607,248.553327708
181.622,248.447221249
181.637,248.340955579
181.652,248.234527175
181.667,248.127932287
181.682,248.021166936
181.697,247.914226917
181.712,247.807107799
181.727,247.699804928
181.742,247.592313423
181.757,247.48462819
181.772,247.376743916
181.787,247.268655079
181.802,247.160355947
181.817,247.051840596
181.832,246.943102902
181.847,246.834136553
181.862,246.724935066
181.877,246.615491782
181.892,246.505799887
181.907,246.395852414
181.922,246.285642262
181.937,246.175162203
181.952,246.064404897
181.967,245.953362907
181.982,245.842028715
181.997,245.730394734
182.012,245.618453327
182.027,245.506196835
182.042,245.393617575
182.057,245.280707881
182.06,245.258085617
182.072,245.167460115
182.087,245.053866693
182.102,244.939920105
182.117,244.825612943
182.132,244.710937928
182.147,244.595887936
182.162,244.480456024
182.177,244.364635463
182.192,244.248419772
182.207,244.131802741
182.222,244.014778479
182.237,243.897341437
182.252,243.779486453
182.267,243.661208788
182.282,243.542504169
182.297,243.423368827
182.312,243.30379955
182.327,243.183793714
182.342,243.063349352
182.357,242.942465186
182.372,242.821140693
182.387,242.699376153
182.402,242.577172707
182.417,242.454532423
182.432,242.331458357
182.447,242.207954611
182.462,242.08402642
182.477,241.959680204
182.492,241.834923659
182.507,241.709765832
182.522,241.584217202
182.537,241.458289771
182.552,241.33199715
182.567,241.205354664
182.582,241.078379438
182.597,240.95109052
182.612,240.823508974
182.627,240.695658007
182.642,240.567563087
182.657,240.439252064
182.672,240.310755318
182.687,240.182105876
182.702,240.05333959
182.717,239.924495264
182.732,239.795614834
182.747,239.666743537
182.762,239.537930102
182.777,239.409226934
182.792,239.280690334
182.807,239.152380726
182.822,239.024362894
182.837,238.896706253
182.852,238.769485137
182.867,238.64277913
182.882,238.51667341
182.897,238.391259162
182.912,238.266634035
182.927,238.142902669
182.942,238.020177297
182.957,237.898578462
182.972,237.778235854
182.987,237.659289311
183.002,237.54189002
183.017,237.426201962
183.032,237.312403679
183.047,237.200690415
183.062,237.091276735
183.077,236.984399726
183.092,236.880322847
183.107,236.779340593
183.122,236.681783938
183.137,236.58802661
183.152,236.498491948
183.167,236.413659854
183.182,236.334072937
183.197,236.260340253
183.212,236.193136372
183.227,236.133192758
183.242,236.081278181
183.257,236.038165543
183.367,236.037071625
183.382,236.079568171
183.397,236.130685392
183.412,236.189649122
183.427,236.255698744
183.442,236.328116807
183.457,236.406245591
183.472,236.489493521
183.487,236.577334688
183.502,236.669304345
183.517,236.764992475
183.532,236.864036801
183.547,236.966116058
183.562,237.070943943
183.577,237.17826386
183.592,237.287844494
183.607,237.399476123
183.622,237.512967597
183.637,237.628143836
183.652,237.744843804
183.667,237.862918835
183.682,237.982231252
183.697,238.102653225
183.712,238.224065821
183.727,238.346358196
183.742,238.46942692
183.757,238.593175389
183.772,238.717513321
183.787,238.842356316
183.802,238.967625461
183.817,239.093246993
183.832,239.219151974
183.847,239.345276019
183.862,239.471559027
183.877,239.597944949
183.892,239.724381566
183.907,239.850820281
183.922,239.977215928
183.937,240.103526591
183.952,240.229713431
183.967,240.355740525
183.982,240.481574718
183.997,240.607185471
184.012,240.732544725
184.027,240.857626773
184.042,240.982408131
184.057,241.106867418
184.072,241.230985248
184.087,241.354744114
184.102,241.478128289
184.117,241.60112373
184.132,241.723717979
184.147,241.84590007
184.162,241.967660454
184.177,242.088990911
184.192,242.20988447
184.207,242.330335338
184.222,242.450338827
184.237,242.569891288
184.252,242.688990047
184.267,242.80763334
184.282,242.925820256
184.297,243.043550679
184.312,243.160825241
184.327,243.27764526
184.342,243.3940127
184.357,243.509930119
184.372,243.625400627
184.387,243.740427839
184.402,243.855015843
184.417,243.969169151
184.432,244.082892665
184.447,244.196191644
184.462,244.30907167
184.477,244.421538608
184.492,244.533598581
184.507,244.645257945
184.522,244.756523245
184.537,244.867401205
184.552,244.977898691
184.56,245.036677521
184.567,245.088022692
184.582,245.197780288
184.597,245.307178641
184.612,245.41622496
184.627,245.524926491
184.642,245.633290491
184.657,245.741324211
184.672,245.849034881
184.687,245.956429693
184.702,246.063515784
184.717,246.170300222
184.732,246.276789992
184.747,246.382991984
184.762,246.488912981
184.777,246.594559649
184.792,246.699938522
184.807,246.805055998
184.822,246.909918327
184.837,247.014531603
184.852,247.11890176
184.867,247.223034559
184.882,247.326935588
184.897,247.430610256
184.912,247.534063784
184.927,247.637301202
184.942,247.740327354
184.957,247.843146882
184.972,247.945764232
184.987,248.048183651
185.002,248.150409186
185.017,248.252444679
185.032,248.354293773
185.047,248.455959907
185.062,248.557446318
185.077,248.658756045
185.092,248.759891926
185.107,248.860856603
185.122,248.961652521
185.137,249.062281932
185.152,249.162746899
185.167,249.263049296
185.182,249.363190813
185.197,249.463172958
185.212,249.562997068
185.227,249.662664298
185.242,249.762175638
185.257,249.861531913
185.272,249.960733786
185.287,250.059781765
185.302,250.158676204
185.31,250.211357203
185.317,250.257417313
185.332,250.356005158
185.347,250.454439668
185.362,250.552720638
185.377,250.650847739
185.392,250.748820514
185.407,250.846638397
185.422,250.9443007
185.437,251.041806633
185.452,251.139155302
185.467,251.236345715
185.482,251.333376791
185.497,251.430247355
185.512,251.526956153
185.527,251.623501854
185.542,251.719883051
185.557,251.816098269
185.572,251.912145971
185.587,252.008024556
185.602,252.103732371
185.617,252.199267715
185.632,252.294628833
185.647,252.389813935
185.662,252.484821187
185.677,252.579648724
185.692,252.67429465
185.707,252.768757042
185.722,252.86303395
185.737,252.957123412
185.752,253.051023442
185.767,253.144732046
185.782,253.238247217
185.797,253.331566946
185.812,253.424689212
185.827,253.517612002
185.842,253.6103333
185.857,253.702851093
185.872,253.79516338
185.887,253.887268166
185.902,253.979163465
185.917,254.070847313
185.932,254.162317755
185.947,254.253572853
185.96,254.332484937
185.962,254.344610695
185.977,254.435429387
185.992,254.526027057
186.007,254.616401861
186.022,254.706551979
186.037,254.79647562
186.052,254.886171023
186.06,254.933914645
186.067,254.975636453
186.082,255.064870213
186.097,255.153870635
186.112,255.242636083
186.127,255.331164959
186.142,255.419455698
186.157,255.507506773
186.172,255.595316692
186.187,255.682884003
186.202,255.770207287
186.217,255.857285168
186.232,255.944116309
186.247,256.030699408
186.262,256.117033209
186.277,256.203116489
186.292,256.288948071
186.307,256.374526816
186.322,256.459851624
186.337,256.544921436
186.352,256.629735237
186.367,256.714292047
186.382,256.798590929
186.397,256.882630989
186.412,256.966411367
186.427,257.049931248
186.442,257.133189857
186.457,257.216186455
186.472,257.298920344
186.487,257.381390865
186.502,257.4635974
186.517,257.545539365
186.532,257.627216217
186.547,257.70862745
186.562,257.789772596
186.577,257.87065122
186.592,257.951262929
186.607,258.031607363
186.622,258.111684195
186.637,258.191493138
186.652,258.271033936
186.667,258.350306366
186.682,258.429310242
186.697,258.508045407
186.71,258.576065099
186.712,258.586511741
186.727,258.664709149
186.742,258.742637574
186.757,258.820296985
186.772,258.897687383
186.787,258.974808797
186.802,259.051661289
186.817,259.128244943
186.832,259.204559875
186.847,259.280606227
186.862,259.356384167
186.877,259.431893891
186.892,259.507135616
186.907,259.582109589
186.922,259.656816078
186.937,259.731255375
186.952,259.805427794
186.967,259.879333675
186.982,259.952973376
186.997,260.026347277
187.012,260.099455781
187.027,260.172299309
187.042,260.244878301
187.057,260.317193217
187.072,260.389244536
187.087,260.461032756
187.102,260.532558386
187.117,260.60382196
187.132,260.674824023
187.147,260.745565138
187.162,260.816045882
187.177,260.886266846
187.192,260.956228639
187.207,261.025931878
187.222,261.095377198
187.237,261.164565243
187.252,261.233496673
187.267,261.302172156
187.282,261.370592373
187.297,261.438758016
187.312,261.506669786
187.327,261.574328395
187.342,261.641734565
187.357,261.708889026
187.372,261.775792517
187.387,261.842445784
187.402,261.90884958
187.417,261.975004671
187.432,262.040911821
187.447,262.106571809
187.46,262.163277808
187.462,262.171985416
187.477,262.237153427
187.492,262.302076636
187.507,262.366755841
187.522,262.431191845
187.537,262.495385453
187.552,262.559337478
187.567,262.623048732
187.582,262.686520034
187.597,262.749752205
187.612,262.812746068
187.627,262.875502449
187.642,262.938022177
187.657,263.000306079
187.672,263.06235499
187.687,263.124169741
187.702,263.185751165
187.717,263.247100097
187.732,263.308217373
187.747,263.369103827
187.762,263.429760294
187.777,263.490187609
187.792,263.550386607
187.807,263.610358121
187.822,263.670102985
187.837,263.729622027
187.852,263.788916082
187.867,263.847985975
187.882,263.906832535
187.897,263.965456586
187.912,264.023858951
187.927,264.082040453
187.942,264.140001906
187.957,264.197744128
187.972,264.25526793
187.987,264.312574124
188.002,264.369663515
188.017,264.426536907
188.032,264.483195099
188.047,264.539638889
188.062,264.59586907
188.077,264.651886428
188.092,264.707691752
188.107,264.76328582
188.122,264.818669412
188.137,264.873843298
188.152,264.928808245
188.167,264.983565022
188.182,265.038114384
188.197,265.092457088
188.21,265.139387514
188.212,265.146593882
188.227,265.200525514
188.242,265.254252722
188.257,265.307776242
188.272,265.361096805
188.287,265.414215136
188.302,265.467131953
188.317,265.519847975
188.332,265.572363907
188.347,265.624680458
188.362,265.676798323
188.377,265.728718199
188.392,265.780440771
188.407,265.831966724
188.422,265.883296734
188.437,265.934431473
188.452,265.985371606
188.467,266.036117794
188.482,266.086670693
188.497,266.13703095
188.512,266.187199212
188.527,266.237176111
188.542,266.286962284
188.557,266.336558355
188.572,266.385964945
188.587,266.43518267
188.602,266.484212138
188.617,266.533053954
188.632,266.581708715
188.647,266.630177013
188.66,266.672032497
188.662,266.678459434
188.677,266.726556561
188.692,266.774468967
188.707,266.822197221
188.722,266.869741889
188.737,266.91710353
