# 48698 WSSS Singapore Observations at 12Z 26 Jun 2019
Frequency [GHz],TB
175.31,275.234030571
175.322,275.215405367
175.337,275.192081281
175.352,275.168709782
175.367,275.145290776
175.382,275.121824148
175.397,275.098309808
175.412,275.074747643
175.427,275.051137553
175.442,275.027479418
175.457,275.003773161
175.472,274.980018651
175.487,274.956215795
175.502,274.932364474
175.517,274.908464587
175.532,274.884516022
175.547,274.860518674
175.562,274.836472428
175.577,274.81237718
175.592,274.788232805
175.607,274.764039202
175.622,274.739796262
175.637,274.715503864
175.652,274.6911619
175.667,274.666770243
175.682,274.642328803
175.697,274.61783744
175.712,274.59329604
175.727,274.5687045
175.742,274.544062694
175.757,274.519370496
175.772,274.494627805
175.787,274.469834491
175.802,274.444990427
175.817,274.420095503
175.832,274.395149591
175.847,274.370152575
175.862,274.345104319
175.877,274.320004713
175.892,274.294853621
175.907,274.269650927
175.922,274.244396501
175.937,274.219090207
175.952,274.193731928
175.967,274.168321541
175.982,274.142858899
175.997,274.117343885
176.012,274.091776362
176.027,274.06615621
176.042,274.04048328
176.057,274.01475745
176.072,273.98897858
176.087,273.963146535
176.102,273.937261185
176.117,273.911322389
176.132,273.885330007
176.147,273.859283908
176.162,273.83318395
176.177,273.807029991
176.192,273.780821891
176.207,273.754559502
176.222,273.72824269
176.237,273.701871315
176.252,273.675445222
176.267,273.648964264
176.282,273.622428308
176.297,273.595837201
176.31,273.572746845
176.312,273.569190782
176.327,273.54248892
176.342,273.51573146
176.357,273.488918235
176.372,273.46204912
176.387,273.435123942
176.402,273.408142551
176.417,273.381104789
176.432,273.354010508
176.447,273.326859541
176.46,273.303282738
176.462,273.299651737
176.477,273.272386932
176.492,273.245064971
176.507,273.217685689
176.522,273.190248918
176.537,273.162754498
176.552,273.135202268
176.567,273.10759206
176.582,273.079923697
176.597,273.052197019
176.612,273.02441186
176.627,272.996568043
176.642,272.968665396
176.657,272.940703748
176.672,272.912682917
176.687,272.88460274
176.702,272.856463027
176.717,272.828263606
176.732,272.800004298
176.747,272.771684913
176.762,272.743305288
176.777,272.714865211
176.792,272.686364529
176.807,272.657803029
176.822,272.62918053
176.837,272.600496848
176.852,272.571751786
176.867,272.542945159
176.882,272.514076767
176.897,272.485146416
176.912,272.456153907
176.927,272.427099049
176.942,272.397981637
176.957,272.368801465
176.972,272.33955834
176.987,272.310252048
177.002,272.28088239
177.017,272.251449149
177.032,272.221952123
177.047,272.192391093
177.062,272.162765859
177.077,272.133076202
177.092,272.103321892
177.107,272.073502719
177.122,272.043618462
177.137,272.013668913
177.152,271.983653826
177.167,271.953572988
177.182,271.923426168
177.197,271.893213133
177.21,271.866974765
177.212,271.862933656
177.227,271.832587498
177.242,271.802174438
177.257,271.771694216
177.272,271.741146602
177.287,271.710531367
177.302,271.679848247
177.31,271.663456078
177.317,271.649097011
177.332,271.618277396
177.347,271.587389162
177.362,271.556432053
177.377,271.525405813
177.392,271.494310184
177.407,271.463144906
177.422,271.431909718
177.437,271.400604366
177.452,271.369228562
177.467,271.337782037
177.482,271.306264544
177.497,271.274675785
177.512,271.243015487
177.527,271.211283377
177.542,271.179479159
177.557,271.147602563
177.572,271.115653297
177.587,271.083631053
177.602,271.051535567
177.617,271.019366514
177.632,270.987123609
177.647,270.954806556
177.66,270.926738216
177.662,270.922415032
177.677,270.889948736
177.692,270.857407351
177.707,270.824790575
177.722,270.792098075
177.737,270.759329545
177.752,270.726484639
177.767,270.693563044
177.782,270.660564436
177.797,270.627488458
177.812,270.594334793
177.827,270.561103083
177.842,270.527792987
177.857,270.494404163
177.872,270.460936247
177.887,270.427388884
177.902,270.393761725
177.917,270.360054385
177.932,270.326266511
177.947,270.292397731
177.96,270.262979052
177.962,270.25844766
177.977,270.224415918
177.992,270.190302126
178.007,270.156105895
178.022,270.121826828
178.037,270.087464517
178.052,270.053018576
178.067,270.018488592
178.082,269.983874154
178.097,269.949174837
178.112,269.914390232
178.127,269.879519914
178.142,269.844563439
178.157,269.809520377
178.172,269.774390292
178.187,269.739172735
178.202,269.703867253
178.217,269.668473384
178.232,269.632990678
178.247,269.597418661
178.262,269.561756866
178.277,269.526004798
178.292,269.490161993
178.307,269.454227943
178.322,269.418202176
178.337,269.382084156
178.352,269.345873403
178.367,269.309569384
178.382,269.273171589
178.397,269.236679492
178.41,269.204976308
178.412,269.200092554
178.427,269.163410233
178.442,269.12663198
178.457,269.089757247
178.472,269.05278547
178.487,269.015716092
178.502,268.97854852
178.517,268.94128218
178.532,268.903916476
178.547,268.866450827
178.562,268.828884614
178.577,268.79121723
178.592,268.753448039
178.607,268.715576438
178.622,268.677601776
178.637,268.639523398
178.652,268.601340667
178.667,268.563052925
178.682,268.524659484
178.697,268.486159672
178.712,268.447552802
178.727,268.408838176
178.742,268.370015086
178.757,268.33108282
178.772,268.29204064
178.787,268.252887824
178.802,268.213623612
178.817,268.174247265
178.832,268.134758007
178.847,268.095155062
178.862,268.055437657
178.877,268.015604976
178.892,267.97565622
178.907,267.935590565
178.922,267.895407186
178.937,267.855105227
178.952,267.81468387
178.967,267.774142211
178.982,267.733479383
178.997,267.692694509
179.012,267.651786677
179.027,267.610754976
179.042,267.569598474
179.057,267.528316235
179.072,267.4869073
179.087,267.445370713
179.102,267.403705486
179.117,267.361910614
179.132,267.319985106
179.147,267.277927927
179.16,267.24137107
179.162,267.235738049
179.177,267.193414411
179.192,267.150955943
179.207,267.108361574
179.222,267.065630187
179.237,267.022760691
179.252,266.979751927
179.267,266.936602776
179.282,266.89331205
179.297,266.849878578
179.312,266.806301167
179.327,266.762578603
179.342,266.718709635
179.357,266.674693032
179.372,266.630527499
179.387,266.586211767
179.402,266.541744517
179.417,266.497124434
179.432,266.452350153
179.447,266.407420321
179.462,266.362333538
179.477,266.317088401
179.492,266.271683476
179.507,266.226117318
179.522,266.180388451
179.537,266.134495374
179.552,266.088436568
179.567,266.042210497
179.582,265.995815588
179.597,265.949250256
179.612,265.902512886
179.627,265.855601842
179.642,265.808515459
179.657,265.761252042
179.672,265.713809873
179.687,265.666187218
179.702,265.618382311
179.717,265.570393333
179.732,265.522218487
179.747,265.473855893
179.762,265.425303685
179.777,265.376559952
179.792,265.327622736
179.807,265.278490068
179.822,265.229159946
179.837,265.179630338
179.852,265.129899176
179.867,265.079964341
179.882,265.029823705
179.897,264.979475113
179.91,264.935669731
179.912,264.928916331
179.927,264.878145141
179.942,264.827159253
179.957,264.775956363
179.972,264.724534113
179.987,264.672890112
180.002,264.621021943
180.017,264.568927117
180.032,264.516603133
180.047,264.464047458
180.062,264.411257474
180.077,264.358230561
180.092,264.304964025
180.107,264.251455171
180.122,264.197701212
180.137,264.143699324
180.152,264.089446665
180.167,264.034940326
180.182,263.980177324
180.197,263.925154683
180.212,263.869869327
180.227,263.814318154
180.242,263.758497996
180.257,263.70240564
180.272,263.646037824
180.287,263.589391206
180.302,263.53246243
180.317,263.475248031
180.332,263.417744518
180.347,263.359948342
180.362,263.30185589
180.377,263.243463465
180.392,263.184767327
180.407,263.125763681
180.422,263.066448644
180.437,263.006818289
180.452,262.946868608
180.467,262.886595513
180.482,262.825994871
180.497,262.765062458
180.512,262.703793993
180.527,262.642185109
180.542,262.580231378
180.557,262.517928269
180.56,262.505425322
180.572,262.455271201
180.587,262.392255502
180.602,262.328876425
180.617,262.265129139
180.632,262.201008717
180.647,262.136510165
180.66,262.080301632
180.662,262.071628404
180.677,262.00635826
180.692,261.940694474
180.707,261.874631694
180.722,261.808164478
180.737,261.741287301
180.752,261.673994522
180.767,261.606280424
180.782,261.538139201
180.797,261.469564925
180.812,261.400551578
180.827,261.331093054
180.842,261.261183127
180.857,261.190815482
180.872,261.119983691
180.887,261.048681215
180.902,260.976901433
180.917,260.904637592
180.932,260.831882819
180.947,260.758630174
180.962,260.684872574
180.977,260.610602821
180.992,260.535813597
181.007,260.460497506
181.022,260.384647002
181.037,260.308254425
181.052,260.231312015
181.067,260.153811871
181.082,260.07574599
181.097,259.997106233
181.112,259.917884365
181.127,259.838072
181.142,259.757660638
181.157,259.676641656
181.172,259.595006329
181.187,259.512745777
181.202,259.429851008
181.217,259.346312923
181.232,259.26212225
181.247,259.177269648
181.262,259.09174562
181.277,259.005540557
181.292,258.91864472
181.307,258.831048241
181.31,258.813443995
181.322,258.742741146
181.337,258.653713311
181.352,258.563954506
181.367,258.473454394
181.382,258.382202492
181.397,258.290188225
181.412,258.197400863
181.427,258.103829601
181.442,258.00946348
181.457,257.914291457
181.472,257.818302373
181.487,257.721484932
181.502,257.623827778
181.517,257.525319405
181.532,257.425948235
181.547,257.325702584
181.562,257.224570648
181.577,257.122540568
181.592,257.019600357
181.607,256.915737969
181.622,256.810941269
181.637,256.705198039
181.652,256.598495971
181.667,256.490822723
181.682,256.382165859
181.697,256.272512893
181.712,256.161851289
181.727,256.050168438
181.742,255.937451722
181.757,255.823688471
181.772,255.708865975
181.787,255.592971523
181.802,255.475992364
181.817,255.357915766
181.832,255.238728977
181.847,255.118419267
181.862,254.996973921
181.877,254.874380248
181.892,254.750625622
181.907,254.625697437
181.922,254.49958316
181.937,254.372270351
181.952,254.243746642
181.967,254.113999777
181.982,253.983017607
181.997,253.850788139
182.012,253.717299515
182.027,253.58254006
182.042,253.446498276
182.057,253.309162906
182.06,253.281539622
182.072,253.170522883
182.087,253.030567425
182.102,252.889286056
182.117,252.74666856
182.132,252.602705095
182.147,252.457386199
182.162,252.310702787
182.177,252.162646247
182.192,252.013208428
182.207,251.862381705
182.222,251.710159033
182.237,251.556533978
182.252,251.401500763
182.267,251.245054343
182.282,251.087190469
182.297,250.927905723
182.312,250.767197605
182.327,250.605064598
182.342,250.441506256
182.357,250.27652329
182.372,250.110117648
182.387,249.942292596
182.402,249.773052862
182.417,249.602404702
182.432,249.430356042
182.447,249.256916584
182.462,249.082097961
182.477,248.905913837
182.492,248.728380077
182.507,248.549514915
182.522,248.369339059
182.537,248.187875932
182.552,248.005151769
182.567,247.821195883
182.582,247.636040765
182.597,247.449722322
182.612,247.262280092
182.627,247.073757367
182.642,246.884201476
182.657,246.693663909
182.672,246.502200533
182.687,246.309871753
182.702,246.116742683
182.717,245.922883269
182.732,245.728368392
182.747,245.533277962
182.762,245.337696899
182.777,245.141715128
182.792,244.945427413
182.807,244.748933145
182.822,244.552336028
182.837,244.355743561
182.852,244.15926635
182.867,243.963017169
182.882,243.767109805
182.897,243.571657449
182.912,243.376770724
182.927,243.182555057
182.942,242.989107454
182.957,242.796512278
182.972,242.604835975
182.987,242.414120207
183.002,242.22437318
183.017,242.035558402
183.032,241.84758015
183.047,241.660264431
183.062,241.473334126
183.077,241.286375852
183.092,241.098795843
183.107,240.909760342
183.122,240.718114536
183.137,240.52227151
183.152,240.32005906
183.167,240.108508476
183.182,239.883565975
183.197,239.639712295
183.212,239.369510718
183.227,239.063250304
183.242,238.709380328
183.257,238.298256531
183.367,238.391138721
183.382,238.783063002
183.397,239.119563636
183.412,239.411503778
183.427,239.670106382
183.442,239.904489589
183.457,240.121558704
183.472,240.32641942
183.487,240.522817751
183.502,240.713496532
183.517,240.900462336
183.532,241.085180178
183.547,241.268714548
183.562,241.451831934
183.577,241.635075651
183.592,241.818821037
183.607,242.003316456
183.622,242.188714033
183.637,242.375092974
183.652,242.562477199
183.667,242.75084904
183.682,242.94015973
183.697,243.130337608
183.712,243.32129451
183.727,243.512930765
183.742,243.705139109
183.757,243.897807841
183.772,244.090823188
183.787,244.284071208
183.802,244.477439254
183.817,244.670817133
183.832,244.864097926
183.847,245.057178639
183.862,245.249960664
183.877,245.442350098
183.892,245.634257919
183.907,245.825600113
183.922,246.01629768
183.937,246.206276636
183.952,246.3954679
183.967,246.583807211
183.982,246.771234975
183.997,246.957696079
184.012,247.143139782
184.027,247.327519459
184.042,247.510792423
184.057,247.692919776
184.072,247.873866147
184.087,248.05359955
184.102,248.232091185
184.117,248.40931521
184.132,248.585248634
184.147,248.759871068
184.162,248.933164633
184.177,249.105113741
184.192,249.275704946
184.207,249.444926883
184.222,249.61277001
184.237,249.779226569
184.252,249.944290427
184.267,250.107956979
184.282,250.270223016
184.297,250.431086648
184.312,250.590547195
184.327,250.748605122
184.342,250.905261913
184.357,251.060520026
184.372,251.214382837
184.387,251.366854509
184.402,251.517940019
184.417,251.667644983
184.432,251.815975744
184.447,251.962939172
184.462,252.108542748
184.477,252.252794418
184.492,252.395702624
184.507,252.537276228
184.522,252.677524482
184.537,252.816456984
184.552,252.954083684
184.56,253.02695418
184.567,253.090414811
184.582,253.225460886
184.597,253.359232654
184.612,253.491741112
184.627,253.622997432
184.642,253.753012983
184.657,253.881799285
184.672,254.009368006
184.687,254.135730949
184.702,254.260900023
184.717,254.384887226
184.732,254.507704646
184.747,254.629364444
184.762,254.749878839
184.777,254.869260094
184.792,254.987520482
184.807,255.104672359
184.822,255.220728047
184.837,255.335699894
184.852,255.449600248
184.867,255.562441434
184.882,255.674235766
184.897,255.784995564
184.912,255.894733067
184.927,256.003460508
184.942,256.111190079
184.957,256.217933898
184.972,256.323704043
184.987,256.428512555
185.002,256.532371384
185.017,256.635292415
185.032,256.737287464
185.047,256.838368282
185.062,256.938546522
185.077,257.037833767
185.092,257.136241505
185.107,257.233781141
185.122,257.330463976
185.137,257.426301232
185.152,257.521304027
185.167,257.615483369
185.182,257.70885018
185.197,257.801415265
185.212,257.893189327
185.227,257.984182972
185.242,258.074406669
185.257,258.163870802
185.272,258.252585647
185.287,258.340561348
185.302,258.427807938
185.31,258.47404475
185.317,258.514335341
185.332,258.600153366
185.347,258.685271696
185.362,258.769699928
185.377,258.853447495
185.392,258.936523741
185.407,259.018937896
185.422,259.100699063
185.437,259.181816212
185.452,259.262298235
185.467,259.342153857
185.482,259.421391726
185.497,259.500020344
185.512,259.578048119
185.527,259.655483328
185.542,259.73233414
185.557,259.808608589
185.572,259.884314621
185.587,259.959460047
185.602,260.034052579
185.617,260.108099804
185.632,260.181609209
185.647,260.254588153
185.662,260.327043903
185.677,260.398983597
185.692,260.470414276
185.707,260.541342881
185.722,260.611776235
185.737,260.681721045
185.752,260.751183946
185.767,260.82017143
185.782,260.888689914
185.797,260.956745711
185.812,261.024345023
185.827,261.091493964
185.842,261.158198536
185.857,261.224464671
185.872,261.290298174
185.887,261.355704782
185.902,261.420690118
185.917,261.485259728
185.932,261.549419071
185.947,261.613173495
185.96,261.668103885
185.962,261.676528287
185.977,261.739488624
185.992,261.802059625
186.007,261.864246305
186.022,261.926053595
186.037,261.987486352
186.052,262.048549348
186.06,262.080966714
186.067,262.109247284
186.082,262.169584783
186.097,262.229566366
186.112,262.289196526
186.127,262.34847964
186.142,262.40742003
186.157,262.466021944
186.172,262.524289565
186.187,262.582226991
186.202,262.639838271
186.217,262.697127374
186.232,262.754098208
186.247,262.810754613
186.262,262.86710037
186.277,262.923139192
186.292,262.978874734
186.307,263.034310594
186.322,263.089450312
186.337,263.144297341
186.352,263.198855128
186.367,263.253127016
186.382,263.307116331
186.397,263.360826302
186.412,263.414260147
186.427,263.467421013
186.442,263.520311988
186.457,263.572936124
186.472,263.625296413
186.487,263.67739581
186.502,263.729237205
186.517,263.780823456
186.532,263.832157364
186.547,263.8832417
186.562,263.934079173
186.577,263.984672457
186.592,264.035024184
186.607,264.085136937
186.622,264.13501327
186.637,264.184655692
186.652,264.234066652
186.667,264.283248593
186.682,264.332203898
186.697,264.380934927
186.71,264.422988854
186.712,264.429443989
186.727,264.477733354
186.742,264.525805269
186.757,264.573661945
186.772,264.621305551
186.787,264.668738229
186.802,264.71596208
186.817,264.762979179
186.832,264.809791568
186.847,264.856401266
186.862,264.902810233
186.877,264.949020427
186.892,264.995033781
186.907,265.040852157
186.922,265.086477435
186.937,265.131911439
186.952,265.177155983
186.967,265.222212836
186.982,265.267083755
186.997,265.311770463
187.012,265.356274656
187.027,265.400598008
187.042,265.44474218
187.057,265.488708781
187.072,265.532499421
187.087,265.576115663
187.102,265.619559083
187.117,265.662831195
187.132,265.705933512
187.147,265.748867518
187.162,265.791634681
187.177,265.834236447
187.192,265.876674228
187.207,265.91894944
187.222,265.961063452
187.237,266.003017649
187.252,266.044813345
187.267,266.086451881
187.282,266.12793455
187.297,266.169262648
187.312,266.210437445
187.327,266.251460182
187.342,266.292332097
187.357,266.333054392
187.372,266.373628285
187.387,266.414054951
187.402,266.454335552
187.417,266.494471232
187.432,266.534463138
187.447,266.574312372
187.46,266.608733825
187.462,266.614020045
187.477,266.653587237
187.492,266.693015029
187.507,266.732304476
187.522,266.771456607
187.537,266.810472472
187.552,266.84935307
187.567,266.888099403
187.582,266.926712471
187.597,266.965193231
187.612,267.003542659
187.627,267.041761699
187.642,267.079851284
187.657,267.117812339
187.672,267.155645772
187.687,267.193352485
187.702,267.230933375
187.717,267.268389293
187.732,267.305721117
187.747,267.342929714
187.762,267.380015905
187.777,267.416980525
187.792,267.453824405
187.807,267.490548344
187.822,267.527153143
187.837,267.563639598
187.852,267.600008472
187.867,267.636260555
187.882,267.672396583
187.897,267.708417324
187.912,267.744323515
187.927,267.780115886
187.942,267.815795139
187.957,267.851362023
187.972,267.886817205
187.987,267.92216142
188.002,267.957395313
188.017,267.99251959
188.032,268.027534913
188.047,268.062441934
188.062,268.097241317
188.077,268.131933707
188.092,268.166519734
188.107,268.201000051
188.122,268.235375245
188.137,268.269645958
188.152,268.303812771
188.167,268.337876314
188.182,268.371837162
188.197,268.40569591
188.21,268.434958009
188.212,268.439453138
188.227,268.473109402
188.242,268.506665279
188.257,268.540121333
188.272,268.573478116
188.287,268.60673615
188.302,268.639896014
188.317,268.672958216
188.332,268.705923288
188.347,268.738791748
188.362,268.771564121
188.377,268.804240911
188.392,268.836822627
188.407,268.869309762
188.422,268.901702794
188.437,268.934002239
188.452,268.966208571
188.467,268.998322254
188.482,269.030343767
188.497,269.062273571
188.512,269.094112143
188.527,269.125859912
188.542,269.157517348
188.557,269.189084897
188.572,269.220562995
188.587,269.251952082
188.602,269.283252583
188.617,269.314464935
188.632,269.345589551
188.647,269.376626862
188.66,269.403455558
188.662,269.407577274
188.677,269.438441191
188.692,269.469219027
188.707,269.499911185
188.722,269.530518055
