# 78954 TBPB Grantley Adams Observations at 12Z 06 May 2019
Frequency [GHz],TB
175.31,281.773610426
175.322,281.756316947
175.337,281.734628723
175.352,281.712860962
175.367,281.69101341
175.382,281.66908581
175.397,281.647077901
175.412,281.624989424
175.427,281.60282011
175.442,281.580569693
175.457,281.5582379
175.472,281.535824456
175.487,281.513329084
175.502,281.490751501
175.517,281.468091424
175.532,281.445348563
175.547,281.422522629
175.562,281.399613325
175.577,281.376620354
175.592,281.353543414
175.607,281.330382198
175.622,281.307136399
175.637,281.283805704
175.652,281.260389795
175.667,281.236888354
175.682,281.213301056
175.697,281.189627572
175.712,281.165867573
175.727,281.142020721
175.742,281.118086678
175.757,281.094065099
175.772,281.069955638
175.787,281.045757942
175.802,281.021471655
175.817,280.997096418
175.832,280.972631865
175.847,280.948077628
175.862,280.923433334
175.877,280.898698604
175.892,280.873873058
175.907,280.848956308
175.922,280.823947964
175.937,280.798847629
175.952,280.773654902
175.967,280.74836938
175.982,280.722990651
175.997,280.697518301
176.012,280.67195191
176.027,280.646291054
176.042,280.620535302
176.057,280.59468422
176.072,280.568737368
176.087,280.542694302
176.102,280.51655457
176.117,280.490317717
176.132,280.463983283
176.147,280.4375508
176.162,280.411019798
176.177,280.384389799
176.192,280.35766032
176.207,280.330830873
176.222,280.303900964
176.237,280.276870092
176.252,280.249737753
176.267,280.222503434
176.282,280.195166617
176.297,280.167726781
176.31,280.143861848
176.312,280.140183394
176.327,280.112535922
176.342,280.084783823
176.357,280.056926547
176.372,280.028963542
176.387,280.000894247
176.402,279.972718094
176.417,279.944434509
176.432,279.916042913
176.447,279.887542718
176.46,279.862754247
176.462,279.858933332
176.477,279.830214153
176.492,279.801384575
176.507,279.772443984
176.522,279.743391759
176.537,279.714227272
176.552,279.684949888
176.567,279.655558964
176.582,279.626053852
176.597,279.596433894
176.612,279.566698427
176.627,279.536846779
176.642,279.506878271
176.657,279.476792216
176.672,279.44658792
176.687,279.416264681
176.702,279.385821789
176.717,279.355258527
176.732,279.324574169
176.747,279.293767981
176.762,279.262839221
176.777,279.231787141
176.792,279.200610981
176.807,279.169309975
176.822,279.137883348
176.837,279.106330317
176.852,279.07465009
176.867,279.042841867
176.882,279.010904838
176.897,278.978838185
176.912,278.946641082
176.927,278.914312693
176.942,278.881852172
176.957,278.849258666
176.972,278.816531311
176.987,278.783669236
177.002,278.750671558
177.017,278.717537387
177.032,278.684265821
177.047,278.65085595
177.062,278.617306855
177.077,278.583617605
177.092,278.54978726
177.107,278.515814872
177.122,278.48169948
177.137,278.447440115
177.152,278.413035796
177.167,278.378485535
177.182,278.343788329
177.197,278.308943167
177.21,278.278623559
177.212,278.273949029
177.227,278.238804882
177.242,278.203509682
177.257,278.168062376
177.272,278.132461899
177.287,278.096707174
177.302,278.060797116
177.31,278.041581192
177.317,278.024730626
177.332,277.988506594
177.347,277.9521239
177.362,277.915581411
177.377,277.878877984
177.392,277.842012462
177.407,277.804983678
177.422,277.767790454
177.437,277.730431597
177.452,277.692905905
177.467,277.655212163
177.482,277.617349142
177.497,277.579315602
177.512,277.541110291
177.527,277.502731944
177.542,277.464179283
177.557,277.425451018
177.572,277.386545845
177.587,277.347462449
177.602,277.308199499
177.617,277.268755654
177.632,277.229129557
177.647,277.18931984
177.66,277.154668488
177.662,277.14932512
177.677,277.109144
177.692,277.068775071
177.707,277.028216909
177.722,276.987468078
177.737,276.946527125
177.752,276.905392585
177.767,276.864062978
177.782,276.82253681
177.797,276.780812574
177.812,276.738888745
177.827,276.696763787
177.842,276.654436147
177.857,276.611904258
177.872,276.569166539
177.887,276.526221392
177.902,276.483067205
177.917,276.439702352
177.932,276.396125189
177.947,276.352334059
177.96,276.314207377
177.962,276.308327287
177.977,276.264103185
177.992,276.219660048
178.007,276.174996154
178.022,276.130109768
178.037,276.084999136
178.052,276.039662489
178.067,275.994098042
178.082,275.948303993
178.097,275.902278525
178.112,275.856019803
178.127,275.809525975
178.142,275.762795174
178.157,275.715825515
178.172,275.668615096
178.187,275.621161998
178.202,275.573464285
178.217,275.525520004
178.232,275.477327185
178.247,275.42888384
178.262,275.380187963
178.277,275.331237531
178.292,275.282030504
178.307,275.232564823
178.322,275.182838412
178.337,275.132849176
178.352,275.082595004
178.367,275.032073766
178.382,274.981283311
178.397,274.930221475
178.41,274.885746677
178.412,274.878886071
178.427,274.827274897
178.442,274.77538573
178.457,274.72321633
178.472,274.670764438
178.487,274.618027775
178.502,274.565004047
178.517,274.511690936
178.532,274.45808611
178.547,274.404187215
178.562,274.349991879
178.577,274.295497711
178.592,274.240702301
178.607,274.185603221
178.622,274.130198021
178.637,274.074484235
178.652,274.018459376
178.667,273.962120938
178.682,273.905466396
178.697,273.848493207
178.712,273.791198805
178.727,273.733580609
178.742,273.675636017
178.757,273.617362406
178.772,273.558757137
178.787,273.499817549
178.802,273.440540963
178.817,273.380924681
178.832,273.320965983
178.847,273.260662135
178.862,273.200010379
178.877,273.13900794
178.892,273.077652023
178.907,273.015939816
178.922,272.953868485
178.937,272.891435179
178.952,272.828637028
178.967,272.765471143
178.982,272.701934617
178.997,272.638024521
179.012,272.573737913
179.027,272.509071828
179.042,272.444023285
179.057,272.378589283
179.072,272.312766806
179.087,272.246552817
179.102,272.179944263
179.117,272.112938073
179.132,272.045531158
179.147,271.977720411
179.16,271.91862203
179.162,271.909502711
179.177,271.840874916
179.192,271.771833871
179.207,271.702376402
179.222,271.63249932
179.237,271.562199418
179.252,271.491473477
179.267,271.420318258
179.282,271.34873051
179.297,271.276706966
179.312,271.204244342
179.327,271.131339344
179.342,271.057988659
179.357,270.984188965
179.372,270.909936922
179.387,270.83522918
179.402,270.760062374
179.417,270.68443313
179.432,270.608338057
179.447,270.531773757
179.462,270.454736818
179.477,270.377223819
179.492,270.299231326
179.507,270.220755897
179.522,270.141794082
179.537,270.062342418
179.552,269.982397438
179.567,269.901955665
179.582,269.821013613
179.597,269.739567791
179.612,269.657614702
179.627,269.575150843
179.642,269.492172705
179.657,269.408676775
179.672,269.324659536
179.687,269.240117467
179.702,269.155047047
179.717,269.069444751
179.732,268.983307051
179.747,268.896630422
179.762,268.809411338
179.777,268.721646273
179.792,268.633331703
179.807,268.544464107
179.822,268.455039967
179.837,268.36505577
179.852,268.274508005
179.867,268.18339317
179.882,268.091707768
179.897,267.99944831
179.91,267.919023075
179.912,267.906611315
179.927,267.813193312
179.942,267.719190839
179.957,267.624600447
179.972,267.529418697
179.987,267.433642164
180.002,267.337267439
180.017,267.240291125
180.032,267.142709843
180.047,267.044520232
180.062,266.945718948
180.077,266.846302666
180.092,266.746268083
180.107,266.645611916
180.122,266.544330906
180.137,266.442421818
180.152,266.339881441
180.167,266.236706591
180.182,266.13289411
180.197,266.02844087
180.212,265.923343774
180.227,265.817599752
180.242,265.711205771
180.257,265.604158827
180.272,265.496455955
180.287,265.388094222
180.302,265.279070734
180.317,265.169382637
180.332,265.059027114
180.347,264.948001391
180.362,264.836302735
180.377,264.723928459
180.392,264.610875917
180.407,264.497142513
180.422,264.382725697
180.437,264.267622966
180.452,264.151831871
180.467,264.035350011
180.482,263.91817504
180.497,263.800304663
180.512,263.681736644
180.527,263.5624688
180.542,263.442499008
180.557,263.321825203
180.56,263.297605783
180.572,263.20044538
180.587,263.078357596
180.602,262.955559969
180.617,262.832050684
180.632,262.707827988
180.647,262.582890194
180.66,262.474031086
180.662,262.457235685
180.677,262.330862908
180.692,262.203770383
180.707,262.075956699
180.722,261.947420515
180.737,261.818160564
180.752,261.688175653
180.767,261.557464659
180.782,261.426026539
180.797,261.293860322
180.812,261.160965115
180.827,261.027340104
180.842,260.892984548
180.857,260.75789779
180.872,260.622079249
180.887,260.485528425
180.902,260.348244895
180.917,260.210228321
180.932,260.071478443
180.947,259.931995083
180.962,259.791778143
180.977,259.650827608
180.992,259.509143543
181.007,259.366726096
181.022,259.223575495
181.037,259.079692049
181.052,258.935076149
181.067,258.789728267
181.082,258.643648952
181.097,258.496838836
181.112,258.349298629
181.127,258.201029117
181.142,258.052031166
181.157,257.902305718
181.172,257.75185379
181.187,257.600676473
181.202,257.448774931
181.217,257.296150401
181.232,257.142804189
181.247,256.98873767
181.262,256.833952286
181.277,256.678449544
181.292,256.522231013
181.307,256.365298326
181.31,256.333826237
181.322,256.207653171
181.337,256.049297294
181.352,255.890232497
181.367,255.730460629
181.382,255.569983591
181.397,255.408803327
181.412,255.246921824
181.427,255.08434111
181.442,254.921063245
181.457,254.757090325
181.472,254.592424471
181.487,254.427067829
181.502,254.261022568
181.517,254.094290869
181.532,253.926874927
181.547,253.758776944
181.562,253.589999122
181.577,253.420543663
181.592,253.250412759
181.607,253.079608589
181.622,252.908133311
181.637,252.735989062
181.652,252.563177945
181.667,252.389702025
181.682,252.215563327
181.697,252.040763822
181.712,251.865305426
181.727,251.68918999
181.742,251.512419292
181.757,251.334995033
181.772,251.156918826
181.787,250.978192186
181.802,250.798816529
181.817,250.618793155
181.832,250.438123245
181.847,250.256807848
181.862,250.074847875
181.877,249.892244086
181.892,249.708997083
181.907,249.525107295
181.922,249.340574974
181.937,249.155400178
181.952,248.969582763
181.967,248.783122369
181.982,248.596018411
181.997,248.408270061
182.012,248.21987624
182.027,248.030835603
182.042,247.841146523
182.057,247.650807078
182.06,247.612660955
182.072,247.459815035
182.087,247.268167832
182.102,247.075862564
182.117,246.882895964
182.132,246.689264381
182.147,246.494963763
182.162,246.299989636
182.177,246.104337076
182.192,245.908000689
182.207,245.710974581
182.222,245.513252332
182.237,245.314826958
182.252,245.115690884
182.267,244.9158359
182.282,244.71525312
182.297,244.513932937
182.312,244.311864971
182.327,244.10903801
182.342,243.905439944
182.357,243.701057698
182.372,243.495877148
182.387,243.289883028
182.402,243.083058831
182.417,242.875386692
182.432,242.666847256
182.447,242.457419529
182.462,242.247080713
182.477,242.035806013
182.492,241.823568419
182.507,241.610338462
182.522,241.396083934
182.537,241.180769564
182.552,240.964356661
182.567,240.746802696
182.582,240.528060829
182.597,240.308079374
182.612,240.08680118
182.627,239.864162931
182.642,239.640094343
182.657,239.414517249
182.672,239.187344547
182.687,238.958479006
182.702,238.727811889
182.717,238.495221385
182.732,238.260570807
182.747,238.023706535
182.762,237.784455647
182.777,237.542623219
182.792,237.29798922
182.807,237.050304957
182.822,236.799289011
182.837,236.544622584
182.852,236.285944182
182.867,236.022843572
182.882,235.754854902
182.897,235.481448932
182.912,235.202024307
182.927,234.915897836
182.942,234.622293798
182.957,234.320332398
182.972,234.009017624
182.987,233.68722503
183.002,233.353690307
183.017,233.007000155
183.032,232.645587814
183.047,232.267737085
183.062,231.871600723
183.077,231.455242414
183.092,231.016716316
183.107,230.554205537
183.122,230.066251626
183.137,229.552122892
183.152,229.012391565
183.167,228.449819638
183.182,227.870689197
183.197,227.286743847
183.212,226.717891068
183.227,226.195608996
183.242,225.766150726
183.257,225.489791706
183.367,225.53119673
183.382,225.847715935
183.397,226.300955782
183.412,226.833771346
183.427,227.403958738
183.442,227.983368452
183.457,228.554483689
183.472,229.10717197
183.487,229.636192557
183.502,230.139431526
183.517,230.616702055
183.532,231.068949991
183.547,231.497738724
183.562,231.904922145
183.577,232.292442196
183.592,232.662207892
183.607,233.016026889
183.622,233.355570481
183.637,233.682359429
183.652,233.997762427
183.667,234.303001926
183.682,234.599163926
183.697,234.887209615
183.712,235.167987561
183.727,235.442245667
183.742,235.710642458
183.757,235.973757487
183.772,236.232100758
183.787,236.486121174
183.802,236.736214045
183.817,236.982727714
183.832,237.225969399
183.847,237.46621031
183.862,237.703690128
183.877,237.938620927
183.892,238.171190595
183.907,238.401565823
183.922,238.629894708
183.937,238.856309034
183.952,239.080926255
183.967,239.30385123
183.982,239.525177737
183.997,239.744989797
184.012,239.96336283
184.027,240.180364665
184.042,240.396056425
184.057,240.610493302
184.072,240.823725235
184.087,241.035797502
184.102,241.246751242
184.117,241.45662391
184.132,241.665449679
184.147,241.873259788
184.162,242.080082856
184.177,242.285945147
184.192,242.49087081
184.207,242.694882092
184.222,242.897999518
184.237,243.100242056
184.252,243.301627258
184.267,243.502171391
184.282,243.701889543
184.297,243.900795727
184.312,244.098902966
184.327,244.296223372
184.342,244.492768215
184.357,244.688547985
184.372,244.883572446
184.387,245.077850688
184.402,245.271391172
184.417,245.464201765
184.432,245.656289783
184.447,245.847662021
184.462,246.038324782
184.477,246.228283907
184.492,246.417544799
184.507,246.606112447
184.522,246.793991448
184.537,246.981186025
184.552,247.167700051
184.56,247.266897162
184.567,247.353537061
184.582,247.538700272
184.597,247.723192599
184.612,247.907016665
184.627,248.090174825
184.642,248.27266917
184.657,248.454501544
184.672,248.635673557
184.687,248.816186597
184.702,248.996041838
184.717,249.175240256
184.732,249.353782635
184.747,249.531669583
184.762,249.708901536
184.777,249.88547877
184.792,250.061401411
184.807,250.236669443
184.822,250.41128272
184.837,250.585240968
184.852,250.758543797
184.867,250.931190712
184.882,251.103181115
184.897,251.274514314
184.912,251.445189534
184.927,251.615205917
184.942,251.784562538
184.957,251.953258401
184.972,252.121292455
184.987,252.288663593
185.002,252.455370661
185.017,252.621412464
185.032,252.786787772
185.047,252.951495322
185.062,253.115533827
185.077,253.278901977
185.092,253.44159845
185.107,253.603621908
185.122,253.764971009
185.137,253.925644407
185.152,254.085640759
185.167,254.244958727
185.182,254.403596979
185.197,254.561554199
185.212,254.718829087
185.227,254.87542036
185.242,255.031326761
185.257,255.186547055
185.272,255.341080039
185.287,255.494924539
185.302,255.648079415
185.31,255.729479654
185.317,255.800543565
185.332,255.952315924
185.347,256.10339547
185.362,256.253781222
185.377,256.403472245
185.392,256.552467651
185.407,256.700766601
185.422,256.848368307
185.437,256.995272033
185.452,257.141477094
185.467,257.286982864
185.482,257.431788769
185.497,257.575894296
185.512,257.719298987
185.527,257.862002447
185.542,258.004004338
185.557,258.145304385
185.572,258.285902373
185.587,258.425798152
185.602,258.564991632
185.617,258.703482789
185.632,258.841271662
185.647,258.978358353
185.662,259.114743029
185.677,259.250425924
185.692,259.385407334
185.707,259.519687621
185.722,259.653267211
185.737,259.786146596
185.752,259.918326332
185.767,260.04980704
185.782,260.180589404
185.797,260.310674175
185.812,260.440062165
185.827,260.568754249
185.842,260.696751368
185.857,260.824054523
185.872,260.950664778
185.887,261.076583257
185.902,261.201811147
185.917,261.326349694
185.932,261.450200204
185.947,261.573364041
185.96,261.679551691
185.962,261.69584263
185.977,261.81763745
185.992,261.938750039
186.007,262.05918199
186.022,262.178934952
186.037,262.298010627
186.052,262.416410772
186.06,262.479281921
186.067,262.534137194
186.082,262.651191755
186.097,262.767576365
186.112,262.883292985
186.127,262.998343625
186.142,263.112730342
186.157,263.226455241
186.172,263.339520471
186.187,263.451928228
186.202,263.563680751
186.217,263.674780323
186.232,263.785229266
186.247,263.895029946
186.262,264.004184767
186.277,264.112696173
186.292,264.220566645
186.307,264.327798701
186.322,264.434394894
186.337,264.540357813
186.352,264.645690079
186.367,264.750394349
186.382,264.854473307
186.397,264.95792967
186.412,265.060766186
186.427,265.162985628
186.442,265.2645908
186.457,265.36558453
186.472,265.465969673
186.487,265.565749108
186.502,265.664925738
186.517,265.763502489
186.532,265.861482307
186.547,265.95886816
186.562,266.055663037
186.577,266.151869942
186.592,266.247491901
186.607,266.342531955
186.622,266.436993162
186.637,266.530878593
186.652,266.624191337
186.667,266.716934493
186.682,266.809111176
186.697,266.90072451
186.71,266.979669469
186.712,266.99177763
186.727,267.082273684
186.742,267.172215827
186.757,267.261607222
186.772,267.350451043
186.787,267.438750467
186.802,267.526508681
186.817,267.613728875
186.832,267.700414245
186.847,267.78656799
186.862,267.872193315
186.877,267.957293425
186.892,268.041871528
186.907,268.125930835
186.922,268.209474556
186.937,268.292505902
186.952,268.375028082
186.967,268.457044307
186.982,268.538557785
186.997,268.619571721
187.012,268.700089317
187.027,268.780113775
187.042,268.859648289
187.057,268.938696051
187.072,269.017260249
187.087,269.095344064
187.102,269.172950672
187.117,269.250083242
187.132,269.326744937
187.147,269.402938914
187.162,269.478668321
187.177,269.553936297
187.192,269.628745976
187.207,269.70310048
187.222,269.777002924
187.237,269.850456412
187.252,269.923464039
187.267,269.99602889
187.282,270.068154039
187.297,270.139842549
187.312,270.211097472
187.327,270.281921849
187.342,270.352318709
187.357,270.422291069
187.372,270.491841933
187.387,270.560974294
187.402,270.62969113
187.417,270.697995408
187.432,270.765890081
187.447,270.833378087
187.46,270.891541006
187.462,270.900462353
187.477,270.96714579
187.492,271.033431296
187.507,271.099321753
187.522,271.164820032
187.537,271.229928985
187.552,271.294651453
187.567,271.358990259
187.582,271.422948212
187.597,271.486528107
187.612,271.549732722
187.627,271.612564819
187.642,271.675027146
187.657,271.737122435
187.672,271.798853402
187.687,271.860222745
187.702,271.921233148
187.717,271.98188728
187.732,272.042187791
187.747,272.102137316
187.762,272.161738474
187.777,272.220993867
187.792,272.279906081
187.807,272.338477684
187.822,272.396711231
187.837,272.454609255
187.852,272.512174278
187.867,272.5694088
187.882,272.626315309
187.897,272.682896273
187.912,272.739154146
187.927,272.795091361
187.942,272.850710339
187.957,272.906013482
187.972,272.961003174
187.987,273.015681784
188.002,273.070051665
188.017,273.12411515
188.032,273.177874559
188.047,273.231332193
188.062,273.284490336
188.077,273.337351257
188.092,273.389917207
188.107,273.442190422
188.122,273.494173118
188.137,273.545867499
188.152,273.597275749
188.167,273.648400036
188.182,273.699242514
188.197,273.749805318
188.21,273.793401828
188.212,273.800090567
188.227,273.850100365
188.242,273.899836799
188.257,273.949301939
188.272,273.998497841
188.287,274.047426542
188.302,274.096090066
188.317,274.144490419
188.332,274.192629592
188.347,274.240509559
188.362,274.288132281
188.377,274.3354997
188.392,274.382613745
188.407,274.429476328
188.422,274.476089346
188.437,274.52245468
188.452,274.568574197
188.467,274.614449748
188.482,274.660083168
188.497,274.705476278
188.512,274.750630885
188.527,274.795548779
188.542,274.840231735
188.557,274.884681516
188.572,274.928899868
188.587,274.972888522
188.602,275.016649197
188.617,275.060183596
188.632,275.103493407
188.647,275.146580305
188.66,275.183743255
188.662,275.18944595
188.677,275.232091989
188.692,275.274520054
188.707,275.316731763
188.722,275.358728721
