# 78954 TBPB Grantley Adams Observations at 12Z 03 Jan 2019
Frequency [GHz],TB
175.31,287.374693811
175.322,287.367381082
175.337,287.358165955
175.352,287.348868413
175.367,287.339488506
175.382,287.330026286
175.397,287.320481807
175.412,287.310855124
175.427,287.301146294
175.442,287.291355375
175.457,287.281482426
175.472,287.271527508
175.487,287.261490683
175.502,287.251372015
175.517,287.241171569
175.532,287.230889411
175.547,287.220525608
175.562,287.210080228
175.577,287.199553343
175.592,287.188945022
175.607,287.178255338
175.622,287.167484364
175.637,287.156632175
175.652,287.145698846
175.667,287.134684452
175.682,287.123589073
175.697,287.112412786
175.712,287.10115567
175.727,287.089817806
175.742,287.078399275
175.757,287.066900158
175.772,287.055320539
175.787,287.043660501
175.802,287.031920128
175.817,287.020099505
175.832,287.008198718
175.847,286.996217852
175.862,286.984156995
175.877,286.972016233
175.892,286.959795655
175.907,286.947495349
175.922,286.935115403
175.937,286.922655907
175.952,286.910116949
175.967,286.897498619
175.982,286.884801008
175.997,286.872024204
176.012,286.8591683
176.027,286.846233384
176.042,286.833219547
176.057,286.820126881
176.072,286.806955474
176.087,286.793705418
176.102,286.780376803
176.117,286.766969718
176.132,286.753484254
176.147,286.739920501
176.162,286.726278548
176.177,286.712558482
176.192,286.698760395
176.207,286.684884372
176.222,286.670930503
176.237,286.656898873
176.252,286.642789569
176.267,286.628602677
176.282,286.614338282
176.297,286.599996468
176.31,286.587504338
176.312,286.585577319
176.327,286.571080917
176.342,286.556507344
176.357,286.54185668
176.372,286.527129004
176.387,286.512324396
176.402,286.497442932
176.417,286.482484688
176.432,286.46744974
176.447,286.452338161
176.46,286.439179528
176.462,286.437150022
176.477,286.421885395
176.492,286.406544348
176.507,286.391126948
176.522,286.375633263
176.537,286.360063356
176.552,286.344417289
176.567,286.328695122
176.582,286.312896916
176.597,286.297022726
176.612,286.281072607
176.627,286.265046612
176.642,286.248944792
176.657,286.232767195
176.672,286.216513868
176.687,286.200184854
176.702,286.183780195
176.717,286.167299929
176.732,286.150744094
176.747,286.134112724
176.762,286.117405849
176.777,286.100623499
176.792,286.0837657
176.807,286.066832474
176.822,286.049823843
176.837,286.032739823
176.852,286.015580428
176.867,285.99834567
176.882,285.981035557
176.897,285.963650093
176.912,285.946189282
176.927,285.928653119
176.942,285.911041601
176.957,285.893354719
176.972,285.87559246
176.987,285.85775481
177.002,285.839841748
177.017,285.821853251
177.032,285.803789292
177.047,285.785649841
177.062,285.767434862
177.077,285.749144317
177.092,285.730778164
177.107,285.712336354
177.122,285.693818838
177.137,285.675225559
177.152,285.656556458
177.167,285.637811471
177.182,285.618990529
177.197,285.60009356
177.21,285.583654628
177.212,285.581120484
177.227,285.562071221
177.242,285.542945683
177.257,285.523743779
177.272,285.504465411
177.287,285.485110478
177.302,285.465678874
177.31,285.455283963
177.317,285.446170487
177.332,285.4265852
177.347,285.406922892
177.362,285.387183436
177.377,285.367366698
177.392,285.347472543
177.407,285.327500826
177.422,285.307451398
177.437,285.287324107
177.452,285.267118792
177.467,285.246835287
177.482,285.226473422
177.497,285.20603302
177.512,285.185513898
177.527,285.164915868
177.542,285.144238734
177.557,285.123482297
177.572,285.102646349
177.587,285.081730678
177.602,285.060735065
177.617,285.039659283
177.632,285.018503103
177.647,284.997266285
177.66,284.978795627
177.662,284.975948585
177.677,284.954549753
177.692,284.93306953
177.707,284.911507652
177.722,284.889863849
177.737,284.868137843
177.752,284.846329349
177.767,284.824438077
177.782,284.802463728
177.797,284.780405997
177.812,284.758264572
177.827,284.736039135
177.842,284.713729357
177.857,284.691334907
177.872,284.668855443
177.887,284.646290617
177.902,284.623640074
177.917,284.600903451
177.932,284.578080378
177.947,284.555170476
177.96,284.535244696
177.962,284.532173361
177.977,284.50908864
177.992,284.485915912
178.007,284.462654768
178.022,284.439304792
178.037,284.41586556
178.052,284.39233664
178.067,284.368717593
178.082,284.345007969
178.097,284.321207315
178.112,284.297315164
178.127,284.273331045
178.142,284.249254477
178.157,284.225084972
178.172,284.200822032
178.187,284.176465152
178.202,284.152013818
178.217,284.127467507
178.232,284.102825688
178.247,284.078087822
178.262,284.05325336
178.277,284.028321745
178.292,284.003292411
178.307,283.978164784
178.322,283.95293828
178.337,283.927612306
178.352,283.902186262
178.367,283.876659535
178.382,283.851031507
178.397,283.825301549
178.41,283.802919309
178.412,283.799469023
178.427,283.77353328
178.442,283.747493664
178.457,283.72134951
178.472,283.69510014
178.487,283.668744871
178.502,283.642283006
178.517,283.615713842
178.532,283.589036664
178.547,283.562250748
178.562,283.535355361
178.577,283.508349757
178.592,283.481233183
178.607,283.454004876
178.622,283.426664062
178.637,283.399209955
178.652,283.371641761
178.667,283.343958676
178.682,283.316159884
178.697,283.28824456
178.712,283.260211867
178.727,283.232060957
178.742,283.203790973
178.757,283.175401047
178.772,283.146890299
178.787,283.11825784
178.802,283.089502766
178.817,283.060624166
178.832,283.031621116
178.847,283.002492682
178.862,282.973237916
178.877,282.943855861
178.892,282.914345547
178.907,282.884705993
178.922,282.854936207
178.937,282.825035183
178.952,282.795001905
178.967,282.764835344
178.982,282.73453446
178.997,282.704098199
179.012,282.673525496
179.027,282.642815272
179.042,282.611966439
179.057,282.580977891
179.072,282.549848513
179.087,282.518577177
179.102,282.487162739
179.117,282.455604046
179.132,282.423899929
179.147,282.392049206
179.16,282.364325734
179.162,282.360050681
179.177,282.327903145
179.192,282.295605376
179.207,282.263156137
179.222,282.230554176
179.237,282.197798229
179.252,282.164887015
179.267,282.131819242
179.282,282.098593599
179.297,282.065208764
179.312,282.031663397
179.327,281.997956145
179.342,281.964085638
179.357,281.930050491
179.372,281.895849305
179.387,281.861480663
179.402,281.826943132
179.417,281.792235263
179.432,281.757355592
179.447,281.722302637
179.462,281.687074898
179.477,281.651670861
179.492,281.616088992
179.507,281.58032774
179.522,281.544385539
179.537,281.5082608
179.552,281.471951921
179.567,281.435457278
179.582,281.39877523
179.597,281.361904117
179.612,281.324842259
179.627,281.287587957
179.642,281.250139493
179.657,281.212495128
179.672,281.174653103
179.687,281.13661164
179.702,281.098368938
179.717,281.059923176
179.732,281.021272511
179.747,280.982415079
179.762,280.943348993
179.777,280.904072345
179.792,280.864583203
179.807,280.824879613
179.822,280.784959596
179.837,280.74482115
179.852,280.70446225
179.867,280.663880845
179.882,280.62307486
179.897,280.582042195
179.91,280.546295548
179.912,280.540780721
179.927,280.499288288
179.942,280.457562716
179.957,280.415601799
179.972,280.373403303
179.987,280.330964968
180.002,280.288284504
180.017,280.245359591
180.032,280.202187884
180.047,280.158767003
180.062,280.115094542
180.077,280.071168061
180.092,280.026985092
180.107,279.982543131
180.122,279.937839647
180.137,279.89287207
180.152,279.8476378
180.167,279.802134204
180.182,279.756358611
180.197,279.710308318
180.212,279.663980583
180.227,279.617372628
180.242,279.570481641
180.257,279.523304768
180.272,279.475839118
180.287,279.428081763
180.302,279.380029731
180.317,279.331680013
180.332,279.283029556
180.347,279.234075266
180.362,279.184814007
180.377,279.135242597
180.392,279.085357814
180.407,279.035156385
180.422,278.984634996
180.437,278.933790284
180.452,278.882618838
180.467,278.8311172
180.482,278.779281861
180.497,278.727109263
180.512,278.674595796
180.527,278.6217378
180.542,278.56853156
180.557,278.514973308
180.56,278.50421908
180.572,278.461059221
180.587,278.406785421
180.602,278.352147972
180.617,278.297142883
180.632,278.241766101
180.647,278.186013516
180.66,278.137387404
180.662,278.129880957
180.677,278.07336419
180.692,278.01645892
180.707,277.959160788
180.722,277.90146537
180.737,277.843368177
180.752,277.784864651
180.767,277.72595017
180.782,277.666620041
180.797,277.6068695
180.812,277.546693714
180.827,277.486087777
180.842,277.425046711
180.857,277.363565462
180.872,277.301638903
180.887,277.239261829
180.902,277.176428958
180.917,277.11313493
180.932,277.049374307
180.947,276.985141567
180.962,276.920431111
180.977,276.855237254
180.992,276.78955423
181.007,276.723376186
181.022,276.656697188
181.037,276.589511211
181.052,276.521812146
181.067,276.453593795
181.082,276.384849872
181.097,276.315574
181.112,276.245759713
181.127,276.175400454
181.142,276.104489572
181.157,276.033020327
181.172,275.960985884
181.187,275.888379315
181.202,275.815193598
181.217,275.741421616
181.232,275.66705616
181.247,275.592089924
181.262,275.516515506
181.277,275.440325411
181.292,275.363512048
181.307,275.286067731
181.31,275.27050247
181.322,275.207984678
181.337,275.129255015
181.352,275.049870772
181.367,274.969823884
181.382,274.889106196
181.397,274.807709458
181.412,274.725625331
181.427,274.642845383
181.442,274.559361096
181.457,274.47516386
181.472,274.390244983
181.487,274.304595685
181.502,274.218207106
181.517,274.131070302
181.532,274.043176252
181.547,273.954515861
181.562,273.865079956
181.577,273.774859298
181.592,273.683844576
181.607,273.592026418
181.622,273.49939539
181.637,273.405942001
181.652,273.311656706
181.667,273.216529914
181.682,273.120551987
181.697,273.02371325
181.712,272.926003991
181.727,272.827414473
181.742,272.727934931
181.757,272.627555588
181.772,272.526266652
181.787,272.424058329
181.802,272.320920825
181.817,272.216844359
181.832,272.111819163
181.847,272.005835497
181.862,271.898883652
181.877,271.790953959
181.892,271.6820368
181.907,271.572122613
181.922,271.461201907
181.937,271.349265262
181.952,271.236303346
181.967,271.122306922
181.982,271.007266856
181.997,270.89117413
182.012,270.774019847
182.027,270.655795244
182.042,270.5364917
182.057,270.416100746
182.06,270.391891332
182.072,270.294614072
182.087,270.172023537
182.102,270.048321176
182.117,269.923499208
182.132,269.797550039
182.147,269.670466274
182.162,269.542240714
182.177,269.41286636
182.192,269.282336418
182.207,269.150644292
182.222,269.017783583
182.237,268.883748084
182.252,268.748531766
182.267,268.612128767
182.282,268.474533375
182.297,268.335740003
182.312,268.195743159
182.327,268.054537417
182.342,267.912117364
182.357,267.768477557
182.372,267.623612458
182.387,267.477516359
182.402,267.330183298
182.417,267.181606956
182.432,267.031780539
182.447,266.880696638
182.462,266.728347067
182.477,266.574722676
182.492,266.419813132
182.507,266.263606664
182.522,266.106089773
182.537,265.947246887
182.552,265.78705997
182.567,265.625508066
182.582,265.462566768
182.597,265.298207607
182.612,265.132397339
182.627,264.965097126
182.642,264.796261569
182.657,264.6258376
182.672,264.453763182
182.687,264.279965789
182.702,264.104360643
182.717,263.926848633
182.732,263.747313887
182.747,263.565620912
182.762,263.38161122
182.777,263.195099352
182.792,263.005868152
182.807,262.813663173
182.822,262.618185993
182.837,262.419086239
182.852,262.215952022
182.867,262.008298418
182.882,261.795553571
182.897,261.577041844
182.912,261.351963309
182.927,261.119368707
182.942,260.878128709
182.957,260.626896067
182.972,260.364058768
182.987,260.08768183
183.002,259.795434671
183.017,259.484500088
183.032,259.151459778
183.047,258.792149836
183.062,258.401477922
183.077,257.973191591
183.092,257.499584951
183.107,256.971128618
183.122,256.376007144
183.137,255.699551251
183.152,254.923565371
183.167,254.025587555
183.182,252.978208211
183.197,251.748781249
183.212,250.30032883
183.227,248.595480718
183.242,246.607557387
183.257,244.347582493
183.367,244.914876436
183.382,247.104717878
183.397,249.0141398
183.412,250.645558728
183.427,252.029982518
183.442,253.205266997
183.457,254.207437205
183.472,255.067784298
183.487,255.812379103
183.502,256.462508274
183.517,257.035388436
183.532,257.544894311
183.547,258.002204686
183.562,258.416341728
183.577,258.794607907
183.592,259.142934541
183.607,259.466157769
183.622,259.76823643
183.637,260.052424079
183.652,260.321405021
183.667,260.577402187
183.682,260.822262986
183.697,261.057527892
183.712,261.284485479
183.727,261.504216751
183.742,261.71763102
183.757,261.925495065
183.772,262.128456919
183.787,262.327065374
183.802,262.521786012
183.817,262.713014461
183.832,262.901087373
183.847,263.086291559
183.862,263.268871618
183.877,263.44903632
183.892,263.626963972
183.907,263.80280694
183.922,263.976695464
183.937,264.148740894
183.952,264.319038435
183.967,264.487669489
183.982,264.65470364
183.997,264.820200368
184.012,264.9842105
184.027,265.146777463
184.042,265.307938359
184.057,265.46772489
184.072,265.626164149
184.087,265.783279313
184.102,265.939090227
184.117,266.09361392
184.132,266.246865044
184.147,266.398856252
184.162,266.549598533
184.177,266.69910149
184.192,266.847373589
184.207,266.99442237
184.222,267.140254627
184.237,267.284876566
184.252,267.428293941
184.267,267.570512167
184.282,267.711536418
184.297,267.851371716
184.312,267.990022994
184.327,268.127495164
184.342,268.26379316
184.357,268.398921986
184.372,268.532886746
184.387,268.665692674
184.402,268.797345156
184.417,268.927849747
184.432,269.057212183
184.447,269.185438396
184.462,269.312534512
184.477,269.438506862
184.492,269.56336198
184.507,269.687106603
184.522,269.809747667
184.537,269.931292308
184.552,270.051747849
184.56,270.115548071
184.567,270.171121804
184.582,270.289421861
184.597,270.406655881
184.612,270.522831889
184.627,270.637958064
184.642,270.752042729
184.657,270.865094345
184.672,270.977121501
184.687,271.088132902
184.702,271.198137363
184.717,271.307143798
184.732,271.415161212
184.747,271.522198691
184.762,271.628265391
184.777,271.733370534
184.792,271.837523395
184.807,271.940733298
184.822,272.043009603
184.837,272.144361703
184.852,272.24479901
184.867,272.344330958
184.882,272.442966983
184.897,272.540716529
184.912,272.637589032
184.927,272.733593918
184.942,272.828740597
184.957,272.923038458
184.972,273.01649686
184.987,273.10912513
185.002,273.20093256
185.017,273.291928398
185.032,273.382121846
185.047,273.471522057
185.062,273.560138127
185.077,273.647979097
185.092,273.735053948
185.107,273.821371593
185.122,273.906940881
185.137,273.991770591
185.152,274.07586943
185.167,274.159246029
185.182,274.241908943
185.197,274.32386665
185.212,274.405127546
185.227,274.485699946
185.242,274.565592081
185.257,274.644812098
185.272,274.723368059
185.287,274.801267937
185.302,274.87851962
185.31,274.919458173
185.317,274.955130905
185.332,275.031109503
185.347,275.106463033
185.362,275.181199025
185.377,275.25532492
185.392,275.328848066
185.407,275.401775722
185.422,275.474115057
185.437,275.545873149
185.452,275.617056985
185.467,275.687673462
185.482,275.757729389
185.497,275.827231482
185.512,275.896186372
185.527,275.964600597
185.542,276.03248061
185.557,276.099832775
185.572,276.166663369
185.587,276.232978584
185.602,276.298784524
185.617,276.36408721
185.632,276.428892577
185.647,276.493206478
185.662,276.557034683
185.677,276.62038288
185.692,276.683256675
185.707,276.745661597
185.722,276.807603093
185.737,276.869086532
185.752,276.930117206
185.767,276.990700332
185.782,277.05084105
185.797,277.110544425
185.812,277.169815451
185.827,277.228659046
185.842,277.28708006
185.857,277.34508327
185.872,277.402673384
185.887,277.459855042
185.902,277.516632815
185.917,277.573011209
185.932,277.628994664
185.947,277.684587554
185.96,277.732455469
185.962,277.739794191
185.977,277.794618823
185.992,277.849065637
186.007,277.903138758
186.022,277.956842255
186.037,278.010180132
186.052,278.063156341
186.06,278.091263782
186.067,278.115774772
186.082,278.168039263
186.097,278.219953593
186.112,278.271521491
186.127,278.32274663
186.142,278.373632629
186.157,278.424183059
186.172,278.474401438
186.187,278.524291234
186.202,278.573855867
186.217,278.623098708
186.232,278.672023081
186.247,278.720632263
186.262,278.768929485
186.277,278.816917934
186.292,278.864600752
186.307,278.911981037
186.322,278.959061845
186.337,279.00584619
186.352,279.052337044
186.367,279.098537338
186.382,279.144449966
186.397,279.190077779
186.412,279.235423592
186.427,279.280490181
186.442,279.325280285
186.457,279.369796607
186.472,279.414041812
186.487,279.458018533
186.502,279.501729366
186.517,279.545176873
186.532,279.588363583
186.547,279.631291992
186.562,279.673964563
186.577,279.716383727
186.592,279.758551886
186.607,279.800471407
186.622,279.842144632
186.637,279.883573868
186.652,279.924761396
186.667,279.965709467
186.682,280.006420305
186.697,280.046896103
186.71,280.081786685
186.712,280.087139032
186.727,280.12715123
186.742,280.166934813
186.757,280.206491869
186.772,280.24582446
186.787,280.284934625
186.802,280.323824375
186.817,280.3624957
186.832,280.400950563
186.847,280.439190906
186.862,280.477218645
186.877,280.515035675
186.892,280.552643869
186.907,280.590045075
186.922,280.627241123
186.937,280.664233818
186.952,280.701024945
186.967,280.73761627
186.982,280.774009535
186.997,280.810206465
187.012,280.846208764
187.027,280.882018115
187.042,280.917636183
187.057,280.953064615
187.072,280.988305036
187.087,281.023359056
187.102,281.058228264
187.117,281.092914233
187.132,281.127418517
187.147,281.161742653
187.162,281.195888161
187.177,281.229856544
187.192,281.263649288
187.207,281.297267862
187.222,281.330713719
187.237,281.363988297
187.252,281.397093017
187.267,281.430029285
187.282,281.46279849
187.297,281.495402007
187.312,281.527841197
187.327,281.560117405
187.342,281.59223196
187.357,281.624186179
187.372,281.655981364
187.387,281.687618801
187.402,281.719099764
187.417,281.750425514
187.432,281.781597297
187.447,281.812616345
187.46,281.839376917
187.462,281.843483877
187.477,281.874201101
187.492,281.90476921
187.507,281.935189385
187.522,281.965462793
187.537,281.995590591
187.552,282.025573921
187.567,282.055413915
187.582,282.085111691
187.597,282.114668357
187.612,282.144085008
187.627,282.173362728
187.642,282.202502588
187.657,282.23150565
187.672,282.260372963
187.687,282.289105565
187.702,282.317704484
187.717,282.346170735
187.732,282.374505324
187.747,282.402709247
187.762,282.430783487
187.777,282.458729018
187.792,282.486546804
187.807,282.514237798
187.822,282.541802943
187.837,282.569243173
187.852,282.596559409
187.867,282.623752567
187.882,282.650823548
187.897,282.677773249
187.912,282.704602551
187.927,282.731312331
187.942,282.757903455
187.957,282.784376778
187.972,282.810733148
187.987,282.836973403
188.002,282.863098372
188.017,282.889108875
188.032,282.915005724
188.047,282.940789721
188.062,282.966461661
188.077,282.992022328
188.092,283.0174725
188.107,283.042812945
188.122,283.068044424
188.137,283.093167687
188.152,283.11818348
188.167,283.143092537
188.182,283.167895587
188.197,283.192593348
188.21,283.213913458
188.212,283.217186533
188.227,283.241675845
188.242,283.26606198
188.257,283.290345628
188.272,283.314527467
188.287,283.338608174
188.302,283.362588412
188.317,283.38646884
188.332,283.41025011
188.347,283.433932865
188.362,283.457517742
188.377,283.481005369
188.392,283.504396371
188.407,283.52769136
188.422,283.550890948
188.437,283.573995733
188.452,283.597006311
188.467,283.619923271
188.482,283.642747191
188.497,283.665478649
188.512,283.68811821
188.527,283.710666437
188.542,283.733123883
188.557,283.755491098
188.572,283.777768623
188.587,283.799956993
188.602,283.822056738
188.617,283.844068382
188.632,283.86599244
188.647,283.887829424
188.66,283.906684767
188.662,283.909579839
188.677,283.931244183
188.692,283.952822949
188.707,283.974316624
188.722,283.995725688
188.737,284.017050618
