# 01004 ENAS Ny-Alesund Ii Observations at 12Z 02 Mar 2019
Frequency [GHz],TB
175.31,211.098013971
175.322,211.167171615
175.337,211.253823743
175.352,211.340703937
175.367,211.427812416
175.382,211.515149394
175.397,211.60271507
175.412,211.690509643
175.427,211.778533301
175.442,211.866786228
175.457,211.955268598
175.472,212.043980578
175.487,212.132922328
175.502,212.222093999
175.517,212.311495732
175.532,212.401127669
175.547,212.49098993
175.562,212.581082641
175.577,212.671405906
175.592,212.761959832
175.607,212.852744509
175.622,212.943760023
175.637,213.03500645
175.652,213.126483853
175.667,213.218192292
175.682,213.310131815
175.697,213.402302454
175.712,213.494704242
175.727,213.587337196
175.742,213.680201327
175.757,213.773296628
175.772,213.866623088
175.787,213.960180686
175.802,214.053969388
175.817,214.147989148
175.832,214.242239913
175.847,214.336721613
175.862,214.431434173
175.877,214.526377504
175.892,214.621551504
175.907,214.71695606
175.922,214.812591048
175.937,214.908456331
175.952,215.004551761
175.967,215.100877175
175.982,215.197432399
175.997,215.294217247
176.012,215.391231518
176.027,215.488474998
176.042,215.585947461
176.057,215.683648669
176.072,215.781578363
176.087,215.87973628
176.102,215.978122135
176.117,216.076735631
176.132,216.17557646
176.147,216.274644293
176.162,216.373938792
176.177,216.473459601
176.192,216.573206346
176.207,216.673178642
176.222,216.773376087
176.237,216.873798264
176.252,216.974444737
176.267,217.075315054
176.282,217.176408749
176.297,217.277725338
176.31,217.365712956
176.312,217.379264318
176.327,217.481025173
176.342,217.583007364
176.357,217.685210342
176.372,217.787633531
176.387,217.890276341
176.402,217.993138169
176.417,218.096218385
176.432,218.199516342
176.447,218.303031381
176.46,218.392919476
176.462,218.406762811
176.477,218.510709934
176.492,218.614872026
176.507,218.719248344
176.522,218.823838121
176.537,218.928640579
176.552,219.03365491
176.567,219.138880288
176.582,219.244315869
176.597,219.349960782
176.612,219.45581414
176.627,219.561875028
176.642,219.668142513
176.657,219.774615639
176.672,219.881293426
176.687,219.98817487
176.702,220.095258946
176.717,220.202544606
176.732,220.310030776
176.747,220.417716357
176.762,220.525600228
176.777,220.633681245
176.792,220.741958233
176.807,220.850429999
176.822,220.959095319
176.837,221.067952943
176.852,221.177001601
176.867,221.286239992
176.882,221.39566679
176.897,221.50528064
176.912,221.615080159
176.927,221.725063945
176.942,221.835230558
176.957,221.945578532
176.972,222.05610638
176.987,222.166812577
177.002,222.277695574
177.017,222.388753794
177.032,222.499985628
177.047,222.611389435
177.062,222.722963549
177.077,222.834706272
177.092,222.946615873
177.107,223.058690593
177.122,223.170928638
177.137,223.283328186
177.152,223.395887382
177.167,223.508604338
177.182,223.621477136
177.197,223.734503822
177.21,223.832583228
177.212,223.84768241
177.227,223.961010883
177.242,224.074487185
177.257,224.188109231
177.272,224.3018749
177.287,224.415782034
177.302,224.529828446
177.31,224.590709381
177.317,224.644011907
177.332,224.758330159
177.347,224.8727809
177.362,224.987361799
177.377,225.102070487
177.392,225.216904556
177.407,225.331861562
177.422,225.446939025
177.437,225.562134427
177.452,225.677445208
177.467,225.792868777
177.482,225.9084025
177.497,226.024043702
177.512,226.139789673
177.527,226.255637665
177.542,226.371584881
177.557,226.487628497
177.572,226.603765636
177.587,226.719993391
177.602,226.836308808
177.617,226.952708893
177.632,227.069190612
177.647,227.185750887
177.66,227.286830928
177.662,227.302386601
177.677,227.41909459
177.692,227.535871654
177.707,227.652714542
177.722,227.769619969
177.737,227.8865846
177.752,228.003605059
177.767,228.120677925
177.782,228.237799734
177.797,228.354966977
177.812,228.472176104
177.827,228.589423511
177.842,228.706705558
177.857,228.824018558
177.872,228.941358773
177.887,229.058722425
177.902,229.17610569
177.917,229.293504692
177.932,229.410915519
177.947,229.5283342
177.96,229.630100312
177.962,229.645756726
177.977,229.763179039
177.992,229.880597034
178.007,229.998006556
178.022,230.115403407
178.037,230.232783336
178.052,230.350142049
178.067,230.467475204
178.082,230.584778404
178.097,230.702047215
178.112,230.819277148
178.127,230.936463663
178.142,231.053602176
178.157,231.170688057
178.172,231.287716619
178.187,231.404683134
178.202,231.521582819
178.217,231.63841085
178.232,231.755162343
178.247,231.871832376
178.262,231.988415973
178.277,232.104908106
178.292,232.221303704
178.307,232.337597644
178.322,232.453784754
178.337,232.569859812
178.352,232.68581755
178.367,232.801652651
178.382,232.917359744
178.397,233.032933416
178.41,233.13298512
178.412,233.148368202
178.427,233.263658589
178.442,233.378799014
178.457,233.493783871
178.472,233.608607499
178.487,233.723264196
178.502,233.837748206
178.517,233.952053729
178.532,234.066174918
178.547,234.180105877
178.562,234.293840665
178.577,234.407373293
178.592,234.520697728
178.607,234.633807887
178.622,234.746697647
178.637,234.859360833
178.652,234.971791232
178.667,235.08398258
178.682,235.195928575
178.697,235.307622866
178.712,235.419059062
178.727,235.530230729
178.742,235.641131385
178.757,235.751754517
178.772,235.86209356
178.787,235.972141913
178.802,236.081892935
178.817,236.191339946
178.832,236.300476222
178.847,236.409295009
178.862,236.517789505
178.877,236.625952877
178.892,236.733778257
178.907,236.841258736
178.922,236.948387375
178.937,237.055157196
178.952,237.161561191
178.967,237.267592317
178.982,237.373243505
178.997,237.478507647
179.012,237.583377609
179.027,237.687846228
179.042,237.791906312
179.057,237.89555064
179.072,237.998771971
179.087,238.101563033
179.102,238.20391653
179.117,238.305825144
179.132,238.407281536
179.147,238.508278347
179.16,238.595431461
179.162,238.608808194
179.177,238.708863681
179.192,238.808437389
179.207,238.907521887
179.222,239.006109726
179.237,239.104193448
179.252,239.20176558
179.267,239.298818637
179.282,239.395345123
179.297,239.491337539
179.312,239.586788377
179.327,239.681690122
179.342,239.776035259
179.357,239.869816264
179.372,239.963025619
179.387,240.055655806
179.402,240.147699305
179.417,240.239148603
179.432,240.329996194
179.447,240.420234575
179.462,240.509856257
179.477,240.598853758
179.492,240.687219611
179.507,240.77494636
179.522,240.862026568
179.537,240.948452814
179.552,241.034217699
179.567,241.119313842
179.582,241.203733887
179.597,241.287470505
179.612,241.370516391
179.627,241.452864272
179.642,241.534506905
179.657,241.615437079
179.672,241.69564762
179.687,241.77513139
179.702,241.85388129
179.717,241.931890262
179.732,242.009151293
179.747,242.085657414
179.762,242.161401703
179.777,242.23637729
179.792,242.310577354
179.807,242.383995128
179.822,242.456623905
179.837,242.528457029
179.852,242.599487912
179.867,242.669710023
179.882,242.739116899
179.897,242.807702143
179.91,242.866473185
179.912,242.875459426
179.927,242.942382492
179.942,243.008465156
179.957,243.073701312
179.972,243.13808493
179.987,243.20161006
180.002,243.264270835
180.017,243.326061473
180.032,243.386976276
180.047,243.447009638
180.062,243.506156042
180.077,243.564410067
180.092,243.621766382
180.107,243.678219759
180.122,243.733765067
180.137,243.788397277
180.152,243.842111462
180.167,243.894902805
180.182,243.946766592
180.197,243.997698223
180.212,244.047693206
180.227,244.096747167
180.242,244.144855845
180.257,244.192015095
180.272,244.238220897
180.287,244.283469346
180.302,244.327756664
180.317,244.3710792
180.332,244.413433423
180.347,244.454815935
180.362,244.495223469
180.377,244.534652885
180.392,244.573101181
180.407,244.610565487
180.422,244.647043069
180.437,244.682531332
180.452,244.717027819
180.467,244.750530211
180.482,244.783036337
180.497,244.81454416
180.512,244.845051796
180.527,244.874557497
180.542,244.903059667
180.557,244.930556854
180.56,244.935935577
180.572,244.957047757
180.587,244.982531218
180.602,245.007006234
180.617,245.03047195
180.632,245.05292766
180.647,245.074372813
180.66,245.092140867
180.662,245.094807006
180.677,245.114229989
180.692,245.132641668
180.707,245.150042098
180.722,245.166431491
180.737,245.181810206
180.752,245.196178762
180.767,245.209537829
180.782,245.221888227
180.797,245.233230935
180.812,245.243567081
180.827,245.252897949
180.842,245.261224971
180.857,245.268549735
180.872,245.274873977
180.887,245.280199588
180.902,245.284528606
180.917,245.287863219
180.932,245.290205767
180.947,245.291558733
180.962,245.291924754
180.977,245.291306606
180.992,245.289707216
181.007,245.287129652
181.022,245.283577126
181.037,245.279052993
181.052,245.273560748
181.067,245.267104027
181.082,245.259686601
181.097,245.251312381
181.112,245.241985414
181.127,245.231709878
181.142,245.220490087
181.157,245.208330484
181.172,245.195235644
181.187,245.181210268
181.202,245.166259185
181.217,245.150387349
181.232,245.133599839
181.247,245.115901855
181.262,245.097298717
181.277,245.077795864
181.292,245.057398854
181.307,245.036113359
181.31,245.031750149
181.322,245.013945168
181.337,244.990900181
181.352,244.966984409
181.367,244.942203976
181.382,244.916565112
181.397,244.890074154
181.412,244.862737548
181.427,244.834561842
181.442,244.805553689
181.457,244.775719845
181.472,244.745067165
181.487,244.713602607
181.502,244.681333227
181.517,244.648266183
181.532,244.614408725
181.547,244.579768206
181.562,244.544352074
181.577,244.508167871
181.592,244.47122324
181.607,244.433525915
181.622,244.395083729
181.637,244.355904608
181.652,244.315996578
181.667,244.275367756
181.682,244.23402636
181.697,244.191980701
181.712,244.149239192
181.727,244.10581034
181.742,244.061702754
181.757,244.016925142
181.772,243.971486313
181.787,243.925395181
181.802,243.878660762
181.817,243.831292176
181.832,243.783298654
181.847,243.734689532
181.862,243.685474258
181.877,243.635662394
181.892,243.585263613
181.907,243.534287709
181.922,243.48274459
181.937,243.430644288
181.952,243.377996956
181.967,243.324812874
181.982,243.271102449
181.997,243.216876215
182.012,243.16214484
182.027,243.106919127
182.042,243.05121001
182.057,242.995028566
182.06,242.983736582
182.072,242.938386007
182.087,242.881293686
182.102,242.823763097
182.117,242.76580588
182.132,242.707433812
182.147,242.648658816
182.162,242.589492958
182.177,242.529948442
182.192,242.470037613
182.207,242.409772954
182.222,242.349167081
182.237,242.288232738
182.252,242.226982796
182.267,242.165430244
182.282,242.103588179
182.297,242.041469802
182.312,241.979088405
182.327,241.916457356
182.342,241.85359009
182.357,241.790500089
182.372,241.727200862
182.387,241.663705928
182.402,241.600028785
182.417,241.536182888
182.432,241.472181614
182.447,241.408038228
182.462,241.343765841
182.477,241.279377366
182.492,241.214885468
182.507,241.150302504
182.522,241.085640463
182.537,241.020910892
182.552,240.956124816
182.567,240.891292647
182.582,240.826424086
182.597,240.761528006
182.612,240.696612327
182.627,240.631683875
182.642,240.566748219
182.657,240.501809491
182.672,240.436870185
182.687,240.371930925
182.702,240.306990205
182.717,240.2420441
182.732,240.177085924
182.747,240.112105855
182.762,240.047090497
182.777,239.98202238
182.792,239.91687939
182.807,239.8516341
182.822,239.786253006
182.837,239.720695627
182.852,239.65491346
182.867,239.588848744
182.882,239.522433006
182.897,239.455585321
182.912,239.388210241
182.927,239.320195298
182.942,239.25140797
182.957,239.181691991
182.972,239.110862804
182.987,239.03870193
183.002,238.964949936
183.017,238.889297586
183.032,238.811374585
183.047,238.730735174
183.062,238.646839478
183.077,238.559029137
183.092,238.46649514
183.107,238.368234873
183.122,238.262994097
183.137,238.149187538
183.152,238.024788711
183.167,237.887174758
183.182,237.73290474
183.197,237.557399
183.212,237.354474785
183.227,237.115695432
183.242,236.829596588
183.257,236.481507979
183.367,236.563149909
183.382,236.891003263
183.397,237.160871028
183.412,237.386694132
183.427,237.579092639
183.442,237.745853568
183.457,237.892695396
183.472,238.023868954
183.487,238.142580181
183.502,238.251281618
183.517,238.351874491
183.532,238.445850646
183.547,238.534393729
183.562,238.618452367
183.577,238.698793833
183.592,238.776043879
183.607,238.850716675
183.622,238.923237535
183.637,238.993960362
183.652,239.063181158
183.667,239.131148597
183.682,239.198072364
183.697,239.264129789
183.712,239.329471176
183.727,239.394224106
183.742,239.458496951
183.757,239.522381748
183.772,239.585956587
183.787,239.649287584
183.802,239.712430545
183.817,239.775432358
183.832,239.838332175
183.847,239.901162424
183.862,239.963949662
183.877,240.026715323
183.892,240.089476351
183.907,240.152245758
183.922,240.215033106
183.937,240.277844923
183.952,240.340685079
183.967,240.403555103
183.982,240.466454474
183.997,240.529380867
184.012,240.592330383
184.027,240.655297738
184.042,240.718276446
184.057,240.78125897
184.072,240.844236864
184.087,240.907200893
184.102,240.970141147
184.117,241.03304714
184.132,241.095907891
184.147,241.158712011
184.162,241.221447769
184.177,241.284103154
184.192,241.346665931
184.207,241.409123693
184.222,241.471463902
184.237,241.53367393
184.252,241.595741095
184.267,241.657652688
184.282,241.719396006
184.297,241.780958371
184.312,241.842327153
184.327,241.903489789
184.342,241.964433801
184.357,242.025146805
184.372,242.085616527
184.387,242.145830813
184.402,242.205777635
184.417,242.265445103
184.432,242.324821465
184.447,242.383895119
184.462,242.44265461
184.477,242.501088637
184.492,242.559186055
184.507,242.616935875
184.522,242.674327266
184.537,242.731349553
184.552,242.78799222
184.56,242.818042836
184.567,242.844244907
184.582,242.900097408
184.597,242.955539674
184.612,243.010561804
184.627,243.065154052
184.642,243.119306818
184.657,243.173010645
184.672,243.226256223
184.687,243.279034382
184.702,243.331336088
184.717,243.383152445
184.732,243.434474687
184.747,243.485294181
184.762,243.535602417
184.777,243.585391014
184.792,243.634651711
184.807,243.683376363
184.822,243.731556947
184.837,243.779185551
184.852,243.826254375
184.867,243.872755729
184.882,243.918682032
184.897,243.964025806
184.912,244.008779675
184.927,244.052936368
184.942,244.096488712
184.957,244.13942963
184.972,244.181752145
184.987,244.223449373
185.002,244.264514523
185.017,244.304940898
185.032,244.344721891
185.047,244.383850988
185.062,244.422321761
185.077,244.460127873
185.092,244.497263076
185.107,244.53372121
185.122,244.569496198
185.137,244.604582057
185.152,244.638972883
185.167,244.672662868
185.182,244.705646282
185.197,244.737917487
185.212,244.76947093
185.227,244.800301145
185.242,244.830402756
185.257,244.859770471
185.272,244.88839909
185.287,244.916283498
185.302,244.943418674
185.31,244.957582708
185.317,244.969799683
185.332,244.995421683
185.347,245.020279921
185.362,245.04436974
185.377,245.067686573
185.392,245.090225948
185.407,245.111983487
185.422,245.132954908
185.437,245.153136025
185.452,245.172522752
185.467,245.191111098
185.482,245.208897172
185.497,245.225877187
185.512,245.242047451
185.527,245.257404381
185.542,245.271944493
185.557,245.285664408
185.572,245.298560854
185.587,245.310630662
185.602,245.321870774
185.617,245.332278238
185.632,245.341850209
185.647,245.350583957
185.662,245.358476858
185.677,245.3655264
185.692,245.371730187
185.707,245.377085933
185.722,245.381591464
185.737,245.385244726
185.752,245.388043775
185.767,245.389986787
185.782,245.391072049
185.797,245.391297971
185.812,245.390663077
185.827,245.389166009
185.842,245.386805527
185.857,245.383580512
185.872,245.37948996
185.887,245.37453299
185.902,245.368708839
185.917,245.362016862
185.932,245.354456537
185.947,245.346027459
185.96,245.338019312
185.962,245.336729345
185.977,245.326562028
185.992,245.315525465
186.007,245.303619731
186.022,245.290845019
186.037,245.277201642
186.052,245.262690033
186.06,245.254595683
186.067,245.247310743
186.082,245.231064439
186.097,245.213951909
186.112,245.195974055
186.127,245.177131899
186.142,245.157426576
186.157,245.136859338
186.172,245.115431552
186.187,245.093144698
186.202,245.070000371
186.217,245.046000277
186.232,245.021146235
186.247,244.995440172
186.262,244.968884129
186.277,244.941480253
186.292,244.913230798
186.307,244.884138128
186.322,244.854204711
186.337,244.823433119
186.352,244.791826028
186.367,244.759386217
186.382,244.726116565
186.397,244.692020052
186.412,244.657099755
186.427,244.621358848
186.442,244.584800603
186.457,244.547428383
186.472,244.509245648
186.487,244.470255948
186.502,244.430462922
186.517,244.389870297
186.532,244.348481893
186.547,244.306301607
186.562,244.263333429
186.577,244.219581425
186.592,244.175049744
186.607,244.129742616
186.622,244.083664349
186.637,244.036819326
186.652,243.989212004
186.667,243.940846916
186.682,243.891728663
186.697,243.841861917
186.71,243.798042289
186.712,243.791251422
186.727,243.739901982
186.742,243.687818471
186.757,243.635005824
186.772,243.581469037
186.787,243.527213168
186.802,243.472243331
186.817,243.416564699
186.832,243.360182498
186.847,243.303102008
186.862,243.245328558
186.877,243.186867533
186.892,243.127724359
186.907,243.067904514
186.922,243.007413519
186.937,242.946256938
186.952,242.884440378
186.967,242.821969482
186.982,242.758849938
186.997,242.695087465
187.012,242.630687822
187.027,242.565656797
187.042,242.500000214
187.057,242.433723925
187.072,242.366833813
187.087,242.299335786
187.102,242.231235781
187.117,242.162539756
187.132,242.093253696
187.147,242.023383603
187.162,241.952935502
187.177,241.881915436
187.192,241.810329466
187.207,241.738183665
187.222,241.665484126
187.237,241.59223695
187.252,241.518448251
187.267,241.444124155
187.282,241.369270796
187.297,241.293894312
187.312,241.218000854
187.327,241.141596574
187.342,241.064687628
187.357,240.987280174
187.372,240.909380372
187.387,240.830994383
187.402,240.752128367
187.417,240.672788482
187.432,240.59298088
187.447,240.51271171
187.46,240.442776489
187.462,240.431987118
187.477,240.35081324
187.492,240.269196206
187.507,240.187142136
187.522,240.104657143
187.537,240.021747327
187.552,239.938418776
187.567,239.854677568
187.582,239.770529763
187.597,239.685981412
187.612,239.601038546
187.627,239.515707183
187.642,239.42999332
187.657,239.343902942
187.672,239.257442009
187.687,239.170616467
187.702,239.083432234
187.717,238.995895217
187.732,238.908011295
187.747,238.819786323
187.762,238.731226136
187.777,238.642336546
187.792,238.553123336
187.807,238.463592269
187.822,238.373749081
187.837,238.283599474
187.852,238.193149134
187.867,238.102403714
187.882,238.011368836
187.897,237.920050101
187.912,237.828453071
187.927,237.736583289
187.942,237.644446258
187.957,237.552047457
187.972,237.45939233
187.987,237.366486291
188.002,237.273334721
188.017,237.179942971
188.032,237.086316355
188.047,236.992460159
188.062,236.898379631
188.077,236.804079986
188.092,236.709566406
188.107,236.61484404
188.122,236.519917997
188.137,236.424793356
188.152,236.329475158
188.167,236.233968409
188.182,236.138278079
188.197,236.0424091
188.21,235.959181934
188.212,235.946366373
188.227,235.850154756
188.242,235.753779075
188.257,235.657244114
188.272,235.560554625
188.287,235.463715322
188.302,235.366730876
188.317,235.26960593
188.332,235.172345081
188.347,235.074952891
188.362,234.977433883
188.377,234.879792546
188.392,234.782033326
188.407,234.684160635
188.422,234.586178841
188.437,234.488092281
188.452,234.389905249
188.467,234.291622
188.482,234.193246755
188.497,234.094783691
188.512,233.996236952
188.527,233.897610638
188.542,233.798908816
188.557,233.700135513
188.572,233.601294715
188.587,233.502390371
188.602,233.403426394
188.617,233.304406657
188.632,233.205334992
188.647,233.106215199
188.66,233.020275353
188.662,233.007051036
188.677,232.907846221
188.692,232.808604439
188.707,232.709329334
188.722,232.610024514
