# 10410 EDZE Essen Observations at 12Z 18 May 2019
Frequency [GHz],TB
175.31,270.400991044
175.322,270.381547465
175.337,270.357133059
175.352,270.33259657
175.367,270.307938068
175.382,270.283157624
175.397,270.258255316
175.412,270.233231221
175.427,270.208085419
175.442,270.182817996
175.457,270.157429037
175.472,270.131918633
175.487,270.106286874
175.502,270.080533858
175.517,270.05465968
175.532,270.028664442
175.547,270.002548247
175.562,269.976311199
175.577,269.949953409
175.592,269.923474986
175.607,269.896876045
175.622,269.870156701
175.637,269.843317074
175.652,269.816357284
175.667,269.789277455
175.682,269.762077714
175.697,269.734758189
175.712,269.707319012
175.727,269.679760315
175.742,269.652082235
175.757,269.624284909
175.772,269.596368479
175.787,269.568333087
175.802,269.540178878
175.817,269.511906
175.832,269.483514601
175.847,269.455004833
175.862,269.42637685
175.877,269.397630808
175.892,269.368766864
175.907,269.339785179
175.922,269.310685913
175.937,269.281469231
175.952,269.252135298
175.967,269.222684281
175.982,269.19311635
175.997,269.163431675
176.012,269.13363043
176.027,269.103712788
176.042,269.073678926
176.057,269.043529021
176.072,269.013263253
176.087,268.982881802
176.102,268.952384851
176.117,268.921772582
176.132,268.891045181
176.147,268.860202834
176.162,268.829245729
176.177,268.798174054
176.192,268.766987999
176.207,268.735687756
176.222,268.704273516
176.237,268.672745473
176.252,268.64110382
176.267,268.609348754
176.282,268.577480469
176.297,268.545499163
176.31,268.517690762
176.312,268.513405033
176.327,268.481198277
176.342,268.448879094
176.357,268.416447684
176.372,268.383904246
176.387,268.351248981
176.402,268.31848209
176.417,268.285603774
176.432,268.252614235
176.447,268.219513673
176.46,268.190736872
176.462,268.186302292
176.477,268.152980294
176.492,268.119547879
176.507,268.086005252
176.522,268.052352612
176.537,268.018590164
176.552,267.984718107
176.567,267.950736645
176.582,267.916645977
176.597,267.882446305
176.612,267.848137829
176.627,267.813720748
176.642,267.779195263
176.657,267.744561571
176.672,267.70981987
176.687,267.674970358
176.702,267.640013231
176.717,267.604948684
176.732,267.569776911
176.747,267.534498105
176.762,267.49911246
176.777,267.463620165
176.792,267.428021411
176.807,267.392316385
176.822,267.356505276
176.837,267.320588267
176.852,267.284565544
176.867,267.248437288
176.882,267.212203681
176.897,267.1758649
176.912,267.139421124
176.927,267.102872528
176.942,267.066219284
176.957,267.029461564
176.972,266.992599537
176.987,266.955633369
177.002,266.918563226
177.017,266.88138927
177.032,266.844111661
177.047,266.806730556
177.062,266.769246109
177.077,266.731658474
177.092,266.6939678
177.107,266.656174234
177.122,266.61827792
177.137,266.580278998
177.152,266.542177608
177.167,266.503973884
177.182,266.465667958
177.197,266.427259959
177.21,266.393890557
177.212,266.388750012
177.227,266.35013824
177.242,266.311424761
177.257,266.272609691
177.272,266.233693142
177.287,266.194675221
177.302,266.155556033
177.31,266.134651094
177.317,266.116335679
177.332,266.077014256
177.347,266.037591856
177.362,265.998068569
177.377,265.95844448
177.392,265.918719669
177.407,265.878894213
177.422,265.838968185
177.437,265.798941652
177.452,265.758814679
177.467,265.718587325
177.482,265.678259644
177.497,265.637831687
177.512,265.597303499
177.527,265.556675121
177.542,265.515946589
177.557,265.475117935
177.572,265.434189184
177.587,265.393160359
177.602,265.352031474
177.617,265.310802542
177.632,265.269473568
177.647,265.228044554
177.66,265.192058482
177.662,265.186515494
177.677,265.144886379
177.692,265.103157193
177.707,265.061327916
177.722,265.019398522
177.737,264.977368978
177.752,264.935239247
177.767,264.893009286
177.782,264.850679046
177.797,264.808248471
177.812,264.765717501
177.827,264.72308607
177.842,264.680354105
177.857,264.637521527
177.872,264.594588251
177.887,264.551554185
177.902,264.508419234
177.917,264.465183293
177.932,264.421846253
177.947,264.378407997
177.96,264.340679541
177.962,264.334868402
177.977,264.29122734
177.992,264.247484675
178.007,264.203640265
178.022,264.159693961
178.037,264.115645607
178.052,264.071495041
178.067,264.027242094
178.082,263.98288659
178.097,263.938428348
178.112,263.893867176
178.127,263.849202878
178.142,263.804435251
178.157,263.759564085
178.172,263.714589162
178.187,263.669510256
178.202,263.624327136
178.217,263.579039563
178.232,263.53364729
178.247,263.488150064
178.262,263.442547624
178.277,263.396839701
178.292,263.351026019
178.307,263.305106295
178.322,263.25908024
178.337,263.212947553
178.352,263.16670793
178.367,263.120361057
178.382,263.073906614
178.397,263.027344271
178.41,262.986902702
178.412,262.980673693
178.427,262.933894535
178.442,262.887006446
178.457,262.840009065
178.472,262.792902027
178.487,262.745684956
178.502,262.698357468
178.517,262.650919173
178.532,262.603369672
178.547,262.555708558
178.562,262.507935417
178.577,262.460049826
178.592,262.412051354
178.607,262.363939562
178.622,262.315714003
178.637,262.267374223
178.652,262.218919759
178.667,262.170350139
178.682,262.121664884
178.697,262.072863507
178.712,262.023945511
178.727,261.974910394
178.742,261.925757642
178.757,261.876486737
178.772,261.827097148
178.787,261.77758834
178.802,261.727959767
178.817,261.678210876
178.832,261.628341104
178.847,261.578349883
178.862,261.528236634
178.877,261.47800077
178.892,261.427641695
178.907,261.377158808
178.922,261.326551496
178.937,261.275819138
178.952,261.224961107
178.967,261.173976766
178.982,261.12286547
178.997,261.071626565
179.012,261.020259389
179.027,260.968763272
179.042,260.917137536
179.057,260.865381493
179.072,260.813494449
179.087,260.761475699
179.102,260.709324532
179.117,260.657040228
179.132,260.604622057
179.147,260.552069283
179.16,260.506414091
179.162,260.499381161
179.177,260.446556937
179.192,260.393595849
179.207,260.340497128
179.222,260.287259996
179.237,260.233883666
179.252,260.180367343
179.267,260.126710225
179.282,260.0729115
179.297,260.018970351
179.312,259.964885951
179.327,259.910657463
179.342,259.856284045
179.357,259.801764847
179.372,259.747099008
179.387,259.692285664
179.402,259.637323938
179.417,259.582212948
179.432,259.526951805
179.447,259.47153961
179.462,259.415975459
179.477,259.360258437
179.492,259.304387624
179.507,259.248362092
179.522,259.192180906
179.537,259.135843122
179.552,259.07934779
179.567,259.022693953
179.582,258.965880647
179.597,258.908906899
179.612,258.85177173
179.627,258.794474156
179.642,258.737013184
179.657,258.679387814
179.672,258.621597041
179.687,258.563639852
179.702,258.505515228
179.717,258.447222144
179.732,258.388759568
179.747,258.330126463
179.762,258.271321784
179.777,258.212344483
179.792,258.153193502
179.807,258.093867781
179.822,258.034366253
179.837,257.974687845
179.852,257.914831479
179.867,257.854796073
179.882,257.794580539
179.897,257.734183782
179.91,257.68169249
179.912,257.673604707
179.927,257.612842209
179.942,257.551895183
179.957,257.490762516
179.972,257.429443094
179.987,257.367935796
180.002,257.306239501
180.017,257.24435308
180.032,257.182275403
180.047,257.120005337
180.062,257.057541744
180.077,256.994883485
180.092,256.932029418
180.107,256.868978397
180.122,256.805729274
180.137,256.742280901
180.152,256.678632125
180.167,256.614781794
180.182,256.550728753
180.197,256.486471846
180.212,256.422009916
180.227,256.357341804
180.242,256.292466354
180.257,256.227382405
180.272,256.162088799
180.287,256.096584377
180.302,256.030867982
180.317,255.964938454
180.332,255.898794638
180.347,255.832435378
180.362,255.765859519
180.377,255.699065908
180.392,255.632053396
180.407,255.564820833
180.422,255.497367074
180.437,255.429690975
180.452,255.361791395
180.467,255.293667198
180.482,255.225317251
180.497,255.156740423
180.512,255.087935589
180.527,255.018901627
180.542,254.949637422
180.557,254.880141862
180.56,254.866214889
180.572,254.810413839
180.587,254.740452254
180.602,254.670256011
180.617,254.599824021
180.632,254.529155201
180.647,254.458248474
180.66,254.396602711
180.662,254.387102771
180.677,254.315717031
180.692,254.244090197
180.707,254.172221222
180.722,254.100109066
180.737,254.027752699
180.752,253.955151096
180.767,253.882303243
180.782,253.809208134
180.797,253.735864773
180.812,253.66227217
180.827,253.588429348
180.842,253.514335339
180.857,253.439989182
180.872,253.36538993
180.887,253.290536643
180.902,253.215428392
180.917,253.140064259
180.932,253.064443338
180.947,252.988564729
180.962,252.912427548
180.977,252.836030919
180.992,252.759373978
181.007,252.68245587
181.022,252.605275755
181.037,252.527832801
181.052,252.450126188
181.067,252.372155107
181.082,252.293918761
181.097,252.215416364
181.112,252.13664714
181.127,252.057610327
181.142,251.97830517
181.157,251.89873093
181.172,251.818886874
181.187,251.738772284
181.202,251.658386452
181.217,251.577728678
181.232,251.496798277
181.247,251.415594571
181.262,251.334116896
181.277,251.252364596
181.292,251.170337025
181.307,251.08803355
181.31,251.071539691
181.322,251.005453545
181.337,250.922596397
181.352,250.839461502
181.367,250.756048265
181.382,250.672356103
181.397,250.588384441
181.412,250.504132715
181.427,250.419600373
181.442,250.334786871
181.457,250.249691674
181.472,250.164314263
181.487,250.078654124
181.502,249.992710758
181.517,249.906483676
181.532,249.819972402
181.547,249.733176472
181.562,249.646095436
181.577,249.558728858
181.592,249.471076317
181.607,249.383137407
181.622,249.294911741
181.637,249.206398949
181.652,249.117598684
181.667,249.028510617
181.682,248.939134445
181.697,248.849469891
181.712,248.759516703
181.727,248.669274663
181.742,248.578743586
181.757,248.487923322
181.772,248.396813761
181.787,248.305414839
181.802,248.213726537
181.817,248.12174889
181.832,248.02948199
181.847,247.936925989
181.862,247.844081109
181.877,247.750947646
181.892,247.657525977
181.907,247.563816565
181.922,247.469819971
181.937,247.375536857
181.952,247.280967999
181.967,247.186114297
181.982,247.090976779
181.997,246.995556619
182.012,246.899855146
182.027,246.803873853
182.042,246.707614415
182.057,246.6110787
182.06,246.591738582
182.072,246.514268784
182.087,246.417186968
182.102,246.319835793
182.117,246.222218055
182.132,246.12433683
182.147,246.026195485
182.162,245.927797705
182.177,245.829147508
182.192,245.730249273
182.207,245.631107757
182.222,245.531728125
182.237,245.43211597
182.252,245.33227734
182.267,245.232218767
182.282,245.131947292
182.297,245.031470494
182.312,244.93079652
182.327,244.829934112
182.342,244.728892641
182.357,244.627682137
182.372,244.526313315
182.387,244.424797613
182.402,244.323147219
182.417,244.221375102
182.432,244.119495045
182.447,244.01752167
182.462,243.91547047
182.477,243.813357832
182.492,243.711201066
182.507,243.609018425
182.522,243.506829124
182.537,243.404653355
182.552,243.302512304
182.567,243.20042815
182.582,243.098424074
182.597,242.996524245
182.612,242.894753815
182.627,242.793138893
182.642,242.691706513
182.657,242.590484596
182.672,242.489501888
182.687,242.388787899
182.702,242.288372812
182.717,242.188287389
182.732,242.088562843
182.747,241.989230706
182.762,241.890322661
182.777,241.791870358
182.792,241.6939052
182.807,241.596458108
182.822,241.49955925
182.837,241.403237746
182.852,241.307521349
182.867,241.212436086
182.882,241.118005892
182.897,241.024252215
182.912,240.931193613
182.927,240.838845365
182.942,240.747219096
182.957,240.656322473
182.972,240.566158991
182.987,240.47672793
183.002,240.388024567
183.017,240.300040766
183.032,240.212766123
183.047,240.126189919
183.062,240.040304199
183.077,239.955108461
183.092,239.870616541
183.107,239.78686652
183.122,239.703934647
183.137,239.621954493
183.152,239.541142592
183.167,239.46183163
183.182,239.384511394
183.197,239.309875712
183.212,239.238869963
183.227,239.172727905
183.242,239.112979136
183.257,239.061402274
183.367,239.06211042
183.382,239.112944503
183.397,239.171502033
183.412,239.236059899
183.427,239.305161661
183.442,239.377648392
183.457,239.452641832
183.472,239.529503558
183.487,239.607786931
183.502,239.687191398
183.517,239.767523482
183.532,239.848665582
183.547,239.930552086
183.562,240.013151663
183.577,240.096454447
183.592,240.180462975
183.607,240.265185911
183.622,240.35063381
183.637,240.436816348
183.652,240.523740596
183.667,240.611410026
183.682,240.699824026
183.697,240.788977763
183.712,240.878862263
183.727,240.969464657
183.742,241.060768504
183.757,241.152754165
183.772,241.245399204
183.787,241.338678782
183.802,241.432566049
183.817,241.527032509
183.832,241.622048367
183.847,241.717582843
183.862,241.813604467
183.877,241.910081331
183.892,242.006981332
183.907,242.104272369
183.922,242.20192253
183.937,242.29990025
183.952,242.398174443
183.967,242.496714622
183.982,242.595490996
183.997,242.694474551
184.012,242.793637115
184.027,242.892951413
184.042,242.992391106
184.057,243.091930823
184.072,243.191546179
184.087,243.291213788
184.102,243.39091127
184.117,243.490617246
184.132,243.590311332
184.147,243.689974127
184.162,243.789587198
184.177,243.88913306
184.192,243.988595152
184.207,244.087957814
184.222,244.187206261
184.237,244.286326552
184.252,244.385305565
184.267,244.484130964
184.282,244.582791169
184.297,244.681275327
184.312,244.779573277
184.327,244.877675524
184.342,244.975573207
184.357,245.073258067
184.372,245.170722421
184.387,245.267959129
184.402,245.364961569
184.417,245.46172361
184.432,245.558239581
184.447,245.654504251
184.462,245.750512801
184.477,245.846260801
184.492,245.941744185
184.507,246.036959233
184.522,246.131902546
184.537,246.22657103
184.552,246.320961871
184.56,246.371189239
184.567,246.415072523
184.582,246.508900687
184.597,246.602444294
184.612,246.695701492
184.627,246.788670629
184.642,246.88135024
184.657,246.973739034
184.672,247.065835879
184.687,247.157639796
184.702,247.24914994
184.717,247.340365598
184.732,247.431286171
184.747,247.521911173
184.762,247.612240217
184.777,247.702273007
184.792,247.792009334
184.807,247.881449068
184.822,247.970592149
184.837,248.059438583
184.852,248.147988439
184.867,248.236241839
184.882,248.324198956
184.897,248.411860008
184.912,248.499225258
184.927,248.586295006
184.942,248.673069587
184.957,248.759549368
184.972,248.845734745
184.987,248.931626143
185.002,249.017224007
185.017,249.102528809
185.032,249.187541038
185.047,249.272261202
185.062,249.356689826
185.077,249.440827453
185.092,249.524674637
185.107,249.608231946
185.122,249.691499963
185.137,249.774479278
185.152,249.857170495
185.167,249.939574227
185.182,250.021691096
185.197,250.103521734
185.212,250.18506678
185.227,250.266326882
185.242,250.347302696
185.257,250.427994887
185.272,250.508404124
185.287,250.588531086
185.302,250.66837646
185.31,250.71084576
185.317,250.747940937
185.332,250.827225219
185.347,250.906230011
185.362,250.984956029
185.377,251.063403993
185.392,251.141574633
185.407,251.219468684
185.422,251.297086889
185.437,251.374429999
185.452,251.451498772
185.467,251.528293973
185.482,251.604816374
185.497,251.681066758
185.512,251.757045911
185.527,251.83275463
185.542,251.908193719
185.557,251.983363989
185.572,252.058266259
185.587,252.132901359
185.602,252.207270122
185.617,252.281373393
185.632,252.355212022
185.647,252.42878687
185.662,252.502098804
185.677,252.5751487
185.692,252.64793744
185.707,252.720465916
185.722,252.792735028
185.737,252.864745682
185.752,252.936498794
185.767,253.007995285
185.782,253.079236086
185.797,253.150222135
185.812,253.220954376
185.827,253.291433762
185.842,253.361661252
185.857,253.431637813
185.872,253.501364418
185.887,253.570842047
185.902,253.640071687
185.917,253.709054332
185.932,253.77779098
185.947,253.846282638
185.96,253.905444686
185.962,253.914530316
185.977,253.982535034
185.992,254.050297813
186.007,254.117819682
186.022,254.185101674
186.037,254.252144829
186.052,254.31895019
186.06,254.354482846
186.067,254.385518805
186.082,254.451851726
186.097,254.51795001
186.112,254.583814719
186.127,254.649446915
186.142,254.714847669
186.157,254.78001805
186.172,254.844959134
186.187,254.909671999
186.202,254.974157724
186.217,255.038417392
186.232,255.102452089
186.247,255.166262902
186.262,255.229850919
186.277,255.293217232
186.292,255.356362932
186.307,255.419289113
186.322,255.48199687
186.337,255.544487297
186.352,255.60676149
186.367,255.668820546
186.382,255.730665561
186.397,255.792297631
186.412,255.853717853
186.427,255.914927323
186.442,255.975927135
186.457,256.036718386
186.472,256.097302167
186.487,256.157679572
186.502,256.217851691
186.517,256.277819615
186.532,256.337584431
186.547,256.397147227
186.562,256.456509084
186.577,256.515671087
186.592,256.574634315
186.607,256.633399844
186.622,256.69196875
186.637,256.750342104
186.652,256.808520976
186.667,256.86650643
186.682,256.92429953
186.697,256.981901335
186.71,257.031668979
186.712,257.039312901
186.727,257.09653528
186.742,257.153569519
186.757,257.210416665
186.772,257.267077757
186.787,257.323553832
186.802,257.379845922
186.817,257.435955056
186.832,257.491882255
186.847,257.54762854
186.862,257.603194925
186.877,257.658582419
186.892,257.713792027
186.907,257.768824749
186.922,257.82368158
186.937,257.878363509
186.952,257.93287152
186.967,257.987206594
186.982,258.041369704
186.997,258.095361818
187.012,258.1491839
187.027,258.202836907
187.042,258.256321791
187.057,258.309639498
187.072,258.362790969
187.087,258.415777138
187.102,258.468598934
187.117,258.52125728
187.132,258.573753093
187.147,258.626087283
187.162,258.678260757
187.177,258.730274412
187.192,258.782129141
187.207,258.833825831
187.222,258.885365362
187.237,258.936748608
187.252,258.987976437
187.267,259.039049711
187.282,259.089969284
187.297,259.140736006
187.312,259.191350718
187.327,259.241814257
187.342,259.292127452
187.357,259.342291127
187.372,259.392306098
187.387,259.442173176
187.402,259.491893163
187.417,259.541466858
187.432,259.59089505
187.447,259.640178525
187.46,259.682774409
187.462,259.689318059
187.477,259.738314423
187.492,259.787168383
187.507,259.835880696
187.522,259.884452113
187.537,259.932883379
187.552,259.981175233
187.567,260.029328407
187.582,260.077343625
187.597,260.125221605
187.612,260.172963061
187.627,260.220568698
187.642,260.268039214
187.657,260.315375303
187.672,260.362577649
187.687,260.409646933
187.702,260.456583828
187.717,260.503388999
187.732,260.550063108
187.747,260.596606807
187.762,260.643020744
187.777,260.689305559
187.792,260.735461886
187.807,260.781490354
187.822,260.827391584
187.837,260.873166191
187.852,260.918814784
187.867,260.964337966
187.882,261.009736332
187.897,261.055010472
187.912,261.100160971
187.927,261.145188405
187.942,261.190093345
187.957,261.234876358
187.972,261.279538001
187.987,261.324078828
188.002,261.368499385
188.017,261.412800212
188.032,261.456981844
188.047,261.50104481
188.062,261.544989631
188.077,261.588816825
188.092,261.632526902
188.107,261.676120367
188.122,261.719597717
188.137,261.762959447
188.152,261.806206042
188.167,261.849337985
188.182,261.892355751
188.197,261.935259809
188.21,261.972351708
188.212,261.978050623
188.227,262.020728652
188.242,262.063294348
188.257,262.105748159
188.272,262.148090526
188.287,262.190321885
188.302,262.232442666
188.317,262.274453294
188.332,262.316354189
188.347,262.358145765
188.362,262.39982843
188.377,262.441402588
188.392,262.482868637
188.407,262.52422697
188.422,262.565477975
188.437,262.606622033
188.452,262.647659521
188.467,262.688590813
188.482,262.729416275
188.497,262.770136269
188.512,262.810751151
188.527,262.851261274
188.542,262.891666984
188.557,262.931968624
188.572,262.972166531
188.587,263.012261037
188.602,263.05225247
188.617,263.092141152
188.632,263.131927402
188.647,263.171611533
188.66,263.205922082
188.662,263.211193853
188.677,263.250674668
188.692,263.290054275
188.707,263.329332971
188.722,263.368511046
188.737,263.407588786
