# 01004 ENAS Ny-Alesund Ii Observations at 12Z 03 Nov 2019
Frequency [GHz],TB
175.31,225.034974207
175.322,225.106784362
175.337,225.196691831
175.352,225.286759681
175.367,225.376987382
175.382,225.467374394
175.397,225.557920155
175.412,225.648624109
175.427,225.739485668
175.442,225.830504243
175.457,225.921679226
175.472,226.013009994
175.487,226.104495915
175.502,226.196136339
175.517,226.287930611
175.532,226.379878047
175.547,226.471977962
175.562,226.564229647
175.577,226.656632388
175.592,226.749185449
175.607,226.841888082
175.622,226.934739522
175.637,227.027738994
175.652,227.120885699
175.667,227.214178833
175.682,227.307617564
175.697,227.401201059
175.712,227.494928455
175.727,227.588798884
175.742,227.68281145
175.757,227.776965257
175.772,227.87125937
175.787,227.965692861
175.802,228.060264769
175.817,228.154974123
175.832,228.24981993
175.847,228.344801183
175.862,228.439916855
175.877,228.535165907
175.892,228.630547275
175.907,228.726059879
175.922,228.82170262
175.937,228.917474386
175.952,229.013374037
175.967,229.109400421
175.982,229.205552366
175.997,229.30182868
176.012,229.398228151
176.027,229.494749546
176.042,229.591391616
176.057,229.688153091
176.072,229.785032681
176.087,229.882029071
176.102,229.979140934
176.117,230.076366913
176.132,230.173705636
176.147,230.271155713
176.162,230.368715722
176.177,230.466384232
176.192,230.564159781
176.207,230.66204089
176.222,230.760026056
176.237,230.858113759
176.252,230.956302444
176.267,231.054590552
176.282,231.152976482
176.297,231.251458624
176.31,231.336886373
176.312,231.350035339
176.327,231.448704965
176.342,231.547465823
176.357,231.646316193
176.372,231.745254349
176.387,231.84427854
176.402,231.943386978
176.417,232.04257786
176.432,232.141849359
176.447,232.241199618
176.46,232.32736543
176.462,232.340626758
176.477,232.440128873
176.492,232.539704036
176.507,232.639350291
176.522,232.739065655
176.537,232.838848122
176.552,232.938695658
176.567,233.038606204
176.582,233.138577673
176.597,233.238607952
176.612,233.338694899
176.627,233.438836351
176.642,233.539030116
176.657,233.639273963
176.672,233.73956565
176.687,233.839902901
176.702,233.940283405
176.717,234.040704836
176.732,234.141164826
176.747,234.241660987
176.762,234.342190903
176.777,234.442752124
176.792,234.543342171
176.807,234.643958542
176.822,234.744598699
176.837,234.845260081
176.852,234.945940087
176.867,235.046636096
176.882,235.147345453
176.897,235.248065475
176.912,235.348793442
176.927,235.449526614
176.942,235.550262211
176.957,235.650997425
176.972,235.751729419
176.987,235.852455322
177.002,235.953172235
177.017,236.053877225
177.032,236.154567327
177.047,236.255239546
177.062,236.355890852
177.077,236.45651819
177.092,236.557118465
177.107,236.657688553
177.122,236.758225299
177.137,236.858725512
177.152,236.95918597
177.167,237.059603423
177.182,237.159974581
177.197,237.260296123
177.21,237.347198732
177.212,237.360564694
177.227,237.460776911
177.242,237.560929353
177.257,237.661018566
177.272,237.761041066
177.287,237.860993331
177.302,237.960871806
177.31,238.014108918
177.317,238.060672906
177.332,238.160393009
177.347,238.260028462
177.362,238.359575574
177.377,238.459030622
177.392,238.558389852
177.407,238.657649471
177.422,238.756805654
177.437,238.855854547
177.452,238.954792251
177.467,239.053614845
177.482,239.15231836
177.497,239.250898812
177.512,239.349352165
177.527,239.447674356
177.542,239.545861286
177.557,239.64390883
177.572,239.741812817
177.587,239.839569052
177.602,239.937173295
177.617,240.034621288
177.632,240.131908723
177.647,240.229031267
177.66,240.313067386
177.662,240.325984552
177.677,240.422764178
177.692,240.519365707
177.707,240.615784669
177.722,240.712016566
177.737,240.808056857
177.752,240.903900981
177.767,240.99954433
177.782,241.094982275
177.797,241.190210144
177.812,241.285223244
177.827,241.38001684
177.842,241.474586172
177.857,241.568926443
177.872,241.663032825
177.887,241.75690046
177.902,241.850524464
177.917,241.943899911
177.932,242.037021854
177.947,242.129885308
177.96,242.210154008
177.962,242.222485265
177.977,242.314816683
177.992,242.40687449
178.007,242.498653586
178.022,242.590148845
178.037,242.681355106
178.052,242.772267186
178.067,242.862879872
178.082,242.95318792
178.097,243.043186064
178.112,243.132869009
178.127,243.222231438
178.142,243.311267999
178.157,243.399973321
178.172,243.488342011
178.187,243.57636864
178.202,243.664047769
178.217,243.751373929
178.232,243.838341627
178.247,243.924945347
178.262,244.011179559
178.277,244.097038697
178.292,244.182517193
178.307,244.26760944
178.322,244.352309829
178.337,244.436612717
178.352,244.520512453
178.367,244.604003366
178.382,244.687079765
178.397,244.769735942
178.41,244.841026967
178.412,244.851966182
178.427,244.933764746
178.442,245.015125886
178.457,245.09604384
178.472,245.176512832
178.487,245.256527073
178.502,245.336080767
178.517,245.415168109
178.532,245.493783277
178.547,245.57192045
178.562,245.649573792
178.577,245.726737461
178.592,245.803405618
178.607,245.879572408
178.622,245.955231976
178.637,246.030378471
178.652,246.105006029
178.667,246.179108794
178.682,246.252680903
178.697,246.325716501
178.712,246.398209726
178.727,246.47015473
178.742,246.541545664
178.757,246.612376682
178.772,246.682641948
178.787,246.752335633
178.802,246.821451917
178.817,246.889984992
178.832,246.957929052
178.847,247.025278315
178.862,247.092027007
178.877,247.158169366
178.892,247.223699656
178.907,247.288612143
178.922,247.352901124
178.937,247.416560912
178.952,247.47958584
178.967,247.541970267
178.982,247.603708567
178.997,247.664795148
179.012,247.725224444
179.027,247.784990909
179.042,247.844089035
179.057,247.902513343
179.072,247.960258379
179.087,248.017318729
179.102,248.07368901
179.117,248.12936388
179.132,248.184338032
179.147,248.238606196
179.16,248.285063497
179.162,248.292163144
179.177,248.345003692
179.192,248.397122699
179.207,248.448515065
179.222,248.499175741
179.237,248.549099727
179.252,248.598282066
179.267,248.646717858
179.282,248.694402252
179.297,248.741330453
179.312,248.787497722
179.327,248.832899374
179.342,248.877530788
179.357,248.921387397
179.372,248.964464696
179.387,249.00675825
179.402,249.048263682
179.417,249.088976681
179.432,249.128893009
179.447,249.168008489
179.462,249.206319027
179.477,249.243820586
179.492,249.280509214
179.507,249.316381033
179.522,249.351432231
179.537,249.385659087
179.552,249.419057956
179.567,249.451625266
179.582,249.483357539
179.597,249.514251373
179.612,249.544303451
179.627,249.573510548
179.642,249.601869523
179.657,249.629377323
179.672,249.656030985
179.687,249.681827646
179.702,249.706764524
179.717,249.730838938
179.732,249.754048303
179.747,249.776390129
179.762,249.797862022
179.777,249.818461691
179.792,249.838186943
179.807,249.857035684
179.822,249.875005927
179.837,249.892095783
179.852,249.908303473
179.867,249.923627319
179.882,249.938065748
179.897,249.951617301
179.91,249.962643542
179.912,249.964280619
179.927,249.976054453
179.942,249.986937671
179.957,249.996929239
179.972,250.006028243
179.987,250.014233879
180.002,250.021545452
180.017,250.02796238
180.032,250.033484199
180.047,250.03811055
180.062,250.041841198
180.077,250.044676013
180.092,250.046614985
180.107,250.047658221
180.122,250.047805934
180.137,250.047058462
180.152,250.045416253
180.167,250.042879874
180.182,250.039450002
180.197,250.035127436
180.212,250.029913084
180.227,250.023807974
180.242,250.016813243
180.257,250.008930151
180.272,250.000160065
180.287,249.990504471
180.302,249.979964964
180.317,249.968543251
180.332,249.956241158
180.347,249.943060617
180.362,249.929003675
180.377,249.914072485
180.392,249.898269312
180.407,249.881596529
180.422,249.864056618
180.437,249.845652168
180.452,249.826385869
180.467,249.806260523
180.482,249.785279032
180.497,249.763444398
180.512,249.740759729
180.527,249.71722823
180.542,249.692853206
180.557,249.667638057
180.56,249.662494518
180.572,249.641586284
180.587,249.614701475
180.602,249.586987317
180.617,249.558447586
180.632,249.529086148
180.647,249.498906957
180.66,249.472093306
180.662,249.467914052
180.677,249.43611156
180.692,249.403503689
180.707,249.370094728
180.722,249.335889045
180.737,249.300891086
180.752,249.265105375
180.767,249.228536508
180.782,249.19118915
180.797,249.15306804
180.812,249.114177985
180.827,249.074523856
180.842,249.03411059
180.857,248.992943185
180.872,248.951026697
180.887,248.908366247
180.902,248.864967005
180.917,248.820834199
180.932,248.77597311
180.947,248.730389067
180.962,248.684087449
180.977,248.63707368
180.992,248.589353232
181.007,248.540931614
181.022,248.491814385
181.037,248.442007134
181.052,248.391515492
181.067,248.340345125
181.082,248.288501734
181.097,248.235991051
181.112,248.18281884
181.127,248.128990892
181.142,248.074513029
181.157,248.019391098
181.172,247.963630971
181.187,247.907238543
181.202,247.850219736
181.217,247.792580488
181.232,247.734326762
181.247,247.67546454
181.262,247.615999819
181.277,247.55593862
181.292,247.49528698
181.307,247.43405095
181.31,247.421734152
181.322,247.372236601
181.337,247.30985002
181.352,247.24689731
181.367,247.18338459
181.382,247.119317995
181.397,247.054703679
181.412,246.989547809
181.427,246.923856573
181.442,246.857636174
181.457,246.79089284
181.472,246.72363281
181.487,246.655862351
181.502,246.587587749
181.517,246.518815314
181.532,246.44955138
181.547,246.379802312
181.562,246.309574498
181.577,246.238874361
181.592,246.167708357
181.607,246.096082973
181.622,246.02400474
181.637,245.951480225
181.652,245.878516042
181.667,245.80511885
181.682,245.731295359
181.697,245.657052332
181.712,245.582396589
181.727,245.507335014
181.742,245.431874553
181.757,245.356022221
181.772,245.27978511
181.787,245.203170388
181.802,245.126185306
181.817,245.048837204
181.832,244.971133514
181.847,244.893081767
181.862,244.814689596
181.877,244.735964745
181.892,244.656915072
181.907,244.577548553
181.922,244.497873295
181.937,244.417897532
181.952,244.33762964
181.967,244.257078138
181.982,244.176251696
181.997,244.095159138
182.012,244.013809456
182.027,243.932211806
182.042,243.850375522
182.057,243.76831012
182.06,243.751870395
182.072,243.6860253
182.087,243.603530959
182.102,243.52083719
182.117,243.437954292
182.132,243.354892773
182.147,243.271663353
182.162,243.188276974
182.177,243.104744799
182.192,243.021078217
182.207,242.937288846
182.222,242.853388535
182.237,242.769389366
182.252,242.685303653
182.267,242.601143945
182.282,242.516923017
182.297,242.432653876
182.312,242.348349749
182.327,242.264024084
182.342,242.179690534
182.357,242.095362953
182.372,242.011055384
182.387,241.92678204
182.402,241.842557289
182.417,241.758395635
182.432,241.674311689
182.447,241.590320146
182.462,241.506435749
182.477,241.422673253
182.492,241.339047379
182.507,241.255572772
182.522,241.172263937
182.537,241.08913518
182.552,241.006200533
182.567,240.923473676
182.582,240.84096784
182.597,240.758695705
182.612,240.676669279
182.627,240.594899762
182.642,240.513397397
182.657,240.432171296
182.672,240.35122924
182.687,240.27057746
182.702,240.190220383
182.717,240.110160341
182.732,240.030397242
182.747,239.950928194
182.762,239.871747068
182.777,239.792844001
182.792,239.714204823
182.807,239.635810382
182.822,239.557635775
182.837,239.479649439
182.852,239.401812084
182.867,239.324075442
182.882,239.246380777
182.897,239.168657115
182.912,239.09081912
182.927,239.012764529
182.942,238.934371042
182.957,238.85549252
182.972,238.775954295
182.987,238.69554736
183.002,238.614021082
183.017,238.531074012
183.032,238.446342168
183.047,238.359383947
183.062,238.269660495
183.077,238.176509855
183.092,238.0791125
183.107,237.976444718
183.122,237.867214596
183.137,237.749772578
183.152,237.621984048
183.167,237.481043833
183.182,237.323199501
183.197,237.143327472
183.212,236.934265604
183.227,236.685738042
183.242,236.382621694
183.257,236.002399578
183.367,236.091638801
183.382,236.445938745
183.397,236.729739102
183.412,236.963403611
183.427,237.160608958
183.442,237.330704087
183.457,237.480249266
183.472,237.613966941
183.487,237.735334832
183.502,237.84696519
183.517,237.950854086
183.532,238.048549601
183.547,238.14126802
183.562,238.229975813
183.577,238.315448582
183.592,238.398314155
183.607,238.479084574
183.622,238.558180158
183.637,238.63594784
183.652,238.712675298
183.667,238.788601951
183.682,238.863927617
183.697,238.93881938
183.712,239.01341709
183.727,239.087837801
183.742,239.162179381
183.757,239.236523475
183.772,239.310937939
183.787,239.385478873
183.802,239.46019231
183.817,239.535115643
183.832,239.610278826
183.847,239.685705395
183.862,239.761413338
183.877,239.837415846
183.892,239.913721951
183.907,239.990337086
183.922,240.067263564
183.937,240.144500995
183.952,240.222046656
183.967,240.299895805
183.982,240.378041967
183.997,240.456477173
184.012,240.535192183
184.027,240.61417667
184.042,240.693419395
184.057,240.772908348
184.072,240.852630886
184.087,240.932573845
184.102,241.012723643
184.117,241.09306637
184.132,241.173587868
184.147,241.254273804
184.162,241.335109729
184.177,241.416081133
184.192,241.497173495
184.207,241.578372324
184.222,241.659663194
184.237,241.741031779
184.252,241.822463877
184.267,241.903945438
184.282,241.985462581
184.297,242.067001613
184.312,242.148549044
184.327,242.230091596
184.342,242.311616216
184.357,242.393110083
184.372,242.474560614
184.387,242.555955468
184.402,242.637282549
184.417,242.718530009
184.432,242.799686247
184.447,242.880739909
184.462,242.961679889
184.477,243.042495323
184.492,243.123175591
184.507,243.203710308
184.522,243.284089328
184.537,243.36430273
184.552,243.444340822
184.56,243.486952843
184.567,243.524194132
184.582,243.603853402
184.597,243.683309584
184.612,243.762553836
184.627,243.841577512
184.642,243.92037216
184.657,243.998929513
184.672,244.077241486
184.687,244.155300164
184.702,244.233097807
184.717,244.310626831
184.732,244.38787981
184.747,244.464849469
184.762,244.541528675
184.777,244.617910436
184.792,244.693987889
184.807,244.769754301
184.822,244.845203058
184.837,244.920327665
184.852,244.995121733
184.867,245.069578983
184.882,245.143693235
184.897,245.217458403
184.912,245.290868495
184.927,245.363917603
184.942,245.436599903
184.957,245.508909648
184.972,245.580841165
184.987,245.65238885
185.002,245.723547166
185.017,245.79431064
185.032,245.864673855
185.047,245.934631453
185.062,246.004178125
185.077,246.073308617
185.092,246.142017717
185.107,246.21030026
185.122,246.278151123
185.137,246.345565222
185.152,246.412537508
185.167,246.479062972
185.182,246.545136635
185.197,246.610753551
185.212,246.675908804
185.227,246.740597505
185.242,246.804814794
185.257,246.868555835
185.272,246.93181582
185.287,246.994589962
185.302,247.056873499
185.31,247.089889143
185.317,247.118661689
185.332,247.179949814
185.347,247.240733176
185.362,247.301007097
185.377,247.360766922
185.392,247.420008015
185.407,247.478725759
185.422,247.536915558
185.437,247.594572837
185.452,247.651693041
185.467,247.708271636
185.482,247.764304109
185.497,247.819785967
185.512,247.874712741
185.527,247.929079984
185.542,247.982883271
185.557,248.036118203
185.572,248.088780404
185.587,248.140865524
185.602,248.192369241
185.617,248.243287256
185.632,248.293615302
185.647,248.343349142
185.662,248.392484563
185.677,248.441017392
185.692,248.488943482
185.707,248.536258724
185.722,248.582959039
185.737,248.62904039
185.752,248.674498773
185.767,248.719330226
185.782,248.763530823
185.797,248.807096682
185.812,248.850023962
185.827,248.892308867
185.842,248.933947649
185.857,248.974936599
185.872,249.015272063
185.887,249.054950433
185.902,249.093968152
185.917,249.132321716
185.932,249.170007673
185.947,249.207022627
185.96,249.238556902
185.962,249.243363236
185.977,249.279026217
185.992,249.314008343
186.007,249.348306452
186.022,249.381917438
186.037,249.414838259
186.052,249.447065937
186.06,249.463969605
186.067,249.478597558
186.082,249.509430275
186.097,249.539561308
186.112,249.568987944
186.127,249.59770754
186.142,249.625717523
186.157,249.653015396
186.172,249.679598725
186.187,249.705465157
186.202,249.730612413
186.217,249.755038286
186.232,249.778740649
186.247,249.801717447
186.262,249.823966709
186.277,249.845486537
186.292,249.866275119
186.307,249.886330716
186.322,249.905651673
186.337,249.924236418
186.352,249.942083459
186.367,249.959191385
186.382,249.975558873
186.397,249.99118468
186.412,250.006067647
186.427,250.020206701
186.442,250.03360085
186.457,250.046249193
186.472,250.05815091
186.487,250.069305267
186.502,250.079711618
186.517,250.0893694
186.532,250.09827814
186.547,250.106437444
186.562,250.113847013
186.577,250.120506626
186.592,250.126416157
186.607,250.131575556
186.622,250.135984868
186.637,250.139644218
186.652,250.142553818
186.667,250.144713968
186.682,250.146125049
186.697,250.146787532
186.71,250.146756573
186.712,250.146701965
186.727,250.14586899
186.742,250.144289323
186.757,250.14196377
186.772,250.138893221
186.787,250.135078641
186.802,250.130521086
186.817,250.125221683
186.832,250.119181651
186.847,250.112402283
186.862,250.104884954
186.877,250.096631113
186.892,250.087642295
186.907,250.077920107
186.922,250.06746624
186.937,250.056282449
186.952,250.044370575
186.967,250.031732529
186.982,250.0183703
186.997,250.004285942
187.012,249.989481594
187.027,249.973959451
187.042,249.95772179
187.057,249.940770953
187.072,249.923109351
187.087,249.904739461
187.102,249.885663832
187.117,249.86588507
187.132,249.845405857
187.147,249.824228931
187.162,249.802357092
187.177,249.779793206
187.192,249.756540197
187.207,249.732601051
187.222,249.707978812
187.237,249.682676581
187.252,249.656697513
187.267,249.630044823
187.282,249.602721782
187.297,249.574731707
187.312,249.546077968
187.327,249.516763997
187.342,249.486793265
187.357,249.456169294
187.372,249.424895656
187.387,249.392975971
187.402,249.360413902
187.417,249.327213158
187.432,249.293377488
187.447,249.258910692
187.46,249.228531916
187.462,249.223816602
187.477,249.188099093
187.492,249.151762085
187.507,249.114809525
187.522,249.077245408
187.537,249.039073758
187.552,249.000298637
187.567,248.960924139
187.582,248.920954389
187.597,248.880393547
187.612,248.839245804
187.627,248.797515376
187.642,248.755206511
187.657,248.712323483
187.672,248.668870592
187.687,248.624852164
187.702,248.580272549
187.717,248.535136123
187.732,248.489447276
187.747,248.443210427
187.762,248.396430015
187.777,248.349110492
187.792,248.301256335
187.807,248.252872035
187.822,248.2039621
187.837,248.154531053
187.852,248.104583429
187.867,248.054123783
187.882,248.003156676
187.897,247.951686686
187.912,247.899718396
187.927,247.847256406
187.942,247.794305316
187.957,247.740869744
187.972,247.686954307
187.987,247.632563636
188.002,247.577702359
188.017,247.522375118
188.032,247.466586551
188.047,247.410341305
188.062,247.353644027
188.077,247.296499363
188.092,247.238911967
188.107,247.180886485
188.122,247.122427568
188.137,247.063539866
188.152,247.004228022
188.167,246.944496681
188.182,246.884350483
188.197,246.823794063
188.21,246.770983587
188.212,246.762832052
188.227,246.701469077
188.242,246.639709756
188.257,246.577558705
188.272,246.515020525
188.287,246.452099819
188.302,246.388801171
188.317,246.325129167
188.332,246.261088374
188.347,246.196683353
188.362,246.131918652
188.377,246.066798813
188.392,246.001328363
188.407,245.935511814
188.422,245.869353668
188.437,245.802858412
188.452,245.736030528
188.467,245.668874467
188.482,245.601394677
188.497,245.533595592
188.512,245.465481622
188.527,245.397057173
188.542,245.32832662
188.557,245.259294335
188.572,245.189964663
188.587,245.120341933
188.602,245.050430465
188.617,244.980234549
188.632,244.909758458
188.647,244.839006456
188.66,244.777468148
188.662,244.767982778
188.677,244.696691642
188.692,244.625137246
188.707,244.553323768
188.722,244.481255366
188.737,244.408936178
