# 48698 WSSS Singapore Observations at 12Z 12 Sep 2019
Frequency [GHz],TB
175.31,279.418061601
175.322,279.396843913
175.337,279.370257151
175.352,279.343598341
175.367,279.316867297
175.382,279.290063784
175.397,279.263187601
175.412,279.236238524
175.427,279.20921634
175.442,279.18212084
175.457,279.154951796
175.472,279.127708982
175.487,279.100392197
175.502,279.073001197
175.517,279.045535757
175.532,279.017995654
175.547,278.990380675
175.562,278.962690573
175.577,278.934925115
175.592,278.90708408
175.607,278.879167218
175.622,278.851174319
175.637,278.823105118
175.652,278.794959385
175.667,278.766736893
175.682,278.738437378
175.697,278.710060604
175.712,278.681606334
175.727,278.653074323
175.742,278.624464297
175.757,278.595776031
175.772,278.567009272
175.787,278.538163746
175.802,278.509239211
175.817,278.480235405
175.832,278.45115208
175.847,278.421988967
175.862,278.392745804
175.877,278.363422321
175.892,278.334018264
175.907,278.304533351
175.922,278.274967327
175.937,278.245319911
175.952,278.215590833
175.967,278.185779811
175.982,278.155886594
175.997,278.125910869
176.012,278.095852363
176.027,278.065710808
176.042,278.035485913
176.057,278.005177394
176.072,277.974784946
176.087,277.944308309
176.102,277.913747173
176.117,277.883101227
176.132,277.852370208
176.147,277.821553798
176.162,277.790651689
176.177,277.759663608
176.192,277.728589225
176.207,277.697428251
176.222,277.666180364
176.237,277.634845254
176.252,277.60342262
176.267,277.571912136
176.282,277.540313497
176.297,277.508626368
176.31,277.481092371
176.312,277.476850447
176.327,277.444985395
176.342,277.413030897
176.357,277.380986612
176.372,277.348852224
176.387,277.316627403
176.402,277.2843118
176.417,277.251905086
176.432,277.219406933
176.447,277.186816979
176.46,277.158497844
176.462,277.154134896
176.477,277.121360334
176.492,277.088492943
176.507,277.05553237
176.522,277.022478273
176.537,276.98933028
176.552,276.956088054
176.567,276.922751222
176.582,276.889319417
176.597,276.855792283
176.612,276.822169452
176.627,276.788450546
176.642,276.754635206
176.657,276.72072304
176.672,276.686713675
176.687,276.65260674
176.702,276.61840185
176.717,276.584098601
176.732,276.549696632
176.747,276.515195529
176.762,276.480594914
176.777,276.445894374
176.792,276.411093533
176.807,276.376191976
176.822,276.341189292
176.837,276.306085071
176.852,276.270878928
176.867,276.23557041
176.882,276.200159148
176.897,276.164644674
176.912,276.129026599
176.927,276.093304487
176.942,276.057477907
176.957,276.021546429
176.972,275.985509624
176.987,275.949367055
177.002,275.913118262
177.017,275.876762837
177.032,275.840300296
177.047,275.803730211
177.062,275.767052108
177.077,275.730265557
177.092,275.693370087
177.107,275.656365227
177.122,275.619250518
177.137,275.582025492
177.152,275.544689659
177.167,275.507242562
177.182,275.469683718
177.197,275.43201263
177.21,275.399273196
177.212,275.394228819
177.227,275.356331787
177.242,275.318321051
177.257,275.280196099
177.272,275.241956428
177.287,275.203601543
177.302,275.16513093
177.31,275.144565782
177.317,275.126544073
177.332,275.087840466
177.347,275.049019563
177.362,275.010080853
177.377,274.971023809
177.392,274.931847883
177.407,274.892552554
177.422,274.85313727
177.437,274.813601489
177.452,274.773944662
177.467,274.734166229
177.482,274.694265622
177.497,274.6542423
177.512,274.614095685
177.527,274.573825185
177.542,274.533430255
177.557,274.492910293
177.572,274.452264716
177.587,274.411492939
177.602,274.370594358
177.617,274.329568378
177.632,274.288414395
177.647,274.247131784
177.66,274.21124902
177.662,274.205719952
177.677,274.164178274
177.692,274.122506093
177.707,274.08070282
177.722,274.038767795
177.737,273.996700385
177.752,273.95449995
177.767,273.912165819
177.782,273.869697345
177.797,273.827093871
177.812,273.784354706
177.827,273.741479211
177.842,273.698466668
177.857,273.655316414
177.872,273.612027755
177.887,273.568599983
177.902,273.525032405
177.917,273.481324291
177.932,273.43747495
177.947,273.393483648
177.96,273.355242457
177.962,273.349349646
177.977,273.305072227
177.992,273.260650634
178.007,273.216084107
178.022,273.171371918
178.037,273.126513289
178.052,273.081507449
178.067,273.036353626
178.082,272.991051036
178.097,272.945598877
178.112,272.899996367
178.127,272.854242688
178.142,272.808337031
178.157,272.762278582
178.172,272.716066493
178.187,272.669699942
178.202,272.623178083
178.217,272.576500071
178.232,272.529665021
178.247,272.48267208
178.262,272.435520381
178.277,272.388209014
178.292,272.340737099
178.307,272.293103739
178.322,272.245308006
178.337,272.19734899
178.352,272.149225752
178.367,272.100937362
178.382,272.052482863
178.397,272.003861301
178.41,271.961586723
178.412,271.955071706
178.427,271.906113106
178.442,271.8569845
178.457,271.807684892
178.472,271.758213289
178.487,271.708568669
178.502,271.658749988
178.517,271.608756222
178.532,271.558586315
178.547,271.5082392
178.562,271.45771382
178.577,271.407009078
178.592,271.356123875
178.607,271.30505712
178.622,271.253807683
178.637,271.202374446
178.652,271.150756257
178.667,271.098951949
178.682,271.046960373
178.697,270.994780349
178.712,270.942410674
178.727,270.889850151
178.742,270.837097554
178.757,270.784151657
178.772,270.731011215
178.787,270.677674972
178.802,270.624141637
178.817,270.570409941
178.832,270.516478572
178.847,270.462346217
178.862,270.408011559
178.877,270.353473212
178.892,270.29872986
178.907,270.243780099
178.922,270.188622541
178.937,270.133255791
178.952,270.077678409
178.967,270.02188895
178.982,269.965885973
178.997,269.909667994
179.012,269.853233534
179.027,269.796581072
179.042,269.739709075
179.057,269.682616019
179.072,269.625300333
179.087,269.567760433
179.102,269.509994739
179.117,269.452001606
179.132,269.393779414
179.147,269.335326502
179.16,269.284479395
179.162,269.276641201
179.177,269.217721811
179.192,269.158566619
179.207,269.099173892
179.222,269.03954186
179.237,268.979668761
179.252,268.919552794
179.267,268.859192138
179.282,268.798584936
179.297,268.737729338
179.312,268.676623461
179.327,268.615265389
179.342,268.553653186
179.357,268.491784896
179.372,268.429658551
179.387,268.367272133
179.402,268.304623614
179.417,268.24171095
179.432,268.178532053
179.447,268.115084835
179.462,268.05136715
179.477,267.987376849
179.492,267.92311174
179.507,267.858569637
179.522,267.793748281
179.537,267.728645422
179.552,267.663258764
179.567,267.597585986
179.582,267.531624747
179.597,267.46537267
179.612,267.398827342
179.627,267.331986331
179.642,267.264847165
179.657,267.19740736
179.672,267.129664378
179.687,267.061615667
179.702,266.993258635
179.717,266.924590651
179.732,266.855609073
179.747,266.786311213
179.762,266.71669435
179.777,266.646755727
179.792,266.576492553
179.807,266.50590201
179.822,266.434981239
179.837,266.363727356
179.852,266.292137423
179.867,266.220208483
179.882,266.147937525
179.897,266.075321524
179.91,266.012106178
179.912,266.002357395
179.927,265.929042037
179.942,265.855372289
179.957,265.781344962
179.972,265.706956838
179.987,265.632204648
180.002,265.557085063
180.017,265.481594764
180.032,265.405730349
180.047,265.329488381
180.062,265.252865404
180.077,265.175857895
180.092,265.098462296
180.107,265.020675011
180.122,264.942492404
180.137,264.863910782
180.152,264.784926414
180.167,264.705535533
180.182,264.625734307
180.197,264.545518872
180.212,264.464885319
180.227,264.383829698
180.242,264.302347995
180.257,264.220436157
180.272,264.138090097
180.287,264.055305641
180.302,263.972078616
180.317,263.88840476
180.332,263.804279792
180.347,263.71969935
180.362,263.634659063
180.377,263.549154465
180.392,263.463181065
180.407,263.376734313
180.422,263.289809614
180.437,263.202402312
180.452,263.114507699
180.467,263.026121018
180.482,262.93723746
180.497,262.847852156
180.512,262.757960196
180.527,262.667556593
180.542,262.576636334
180.557,262.485194317
180.56,262.466842858
180.572,262.393225419
180.587,262.300724436
180.602,262.207686115
180.617,262.114105152
180.632,262.019976185
180.647,261.925293782
180.66,261.842783814
180.662,261.830052483
180.677,261.734246729
180.692,261.63787094
180.707,261.540919471
180.722,261.44338659
180.737,261.345266532
180.752,261.246553492
180.767,261.147241548
180.782,261.047324798
180.797,260.946797195
180.812,260.845652695
180.827,260.743885173
180.842,260.641488446
180.857,260.538456264
180.872,260.434782338
180.887,260.330460296
180.902,260.225483714
180.917,260.119846127
180.932,260.013540973
180.947,259.906561659
180.962,259.798901528
180.977,259.690553857
180.992,259.58151188
181.007,259.471768741
181.022,259.36131756
181.037,259.250151378
181.052,259.138263179
181.067,259.025645896
181.082,258.91229241
181.097,258.798195517
181.112,258.68334801
181.127,258.567742561
181.142,258.451371845
181.157,258.334228445
181.172,258.216304894
181.187,258.097593708
181.202,257.978087312
181.217,257.857778092
181.232,257.736658388
181.247,257.614720494
181.262,257.491956645
181.277,257.368359052
181.292,257.243919858
181.307,257.118631187
181.31,257.093470814
181.322,256.992485098
181.337,256.865473642
181.352,256.737588787
181.367,256.608822529
181.382,256.47916678
181.397,256.348613459
181.412,256.217154415
181.427,256.08478153
181.442,255.951486623
181.457,255.817261528
181.472,255.682098036
181.487,255.545987951
181.502,255.408923076
181.517,255.270895197
181.532,255.131896117
181.547,254.991917652
181.562,254.850951637
181.577,254.708989926
181.592,254.566024415
181.607,254.422047009
181.622,254.277049689
181.637,254.131024497
181.652,253.983963489
181.667,253.835858842
181.682,253.686702809
181.697,253.536487713
181.712,253.38520599
181.727,253.232850209
181.742,253.079413058
181.757,252.924887372
181.772,252.769266151
181.787,252.612542551
181.802,252.454709946
181.817,252.295761899
181.832,252.135692224
181.847,251.974494961
181.862,251.812164455
181.877,251.648695301
181.892,251.484082453
181.907,251.318321185
181.922,251.151407145
181.937,250.983336398
181.952,250.814105424
181.967,250.64371117
181.982,250.472151063
181.997,250.299423091
182.012,250.125525769
182.027,249.95045828
182.042,249.774220375
182.057,249.596812546
182.06,249.561190691
182.072,249.418236018
182.087,249.23849277
182.102,249.05758564
182.117,248.875518318
182.132,248.692295439
182.147,248.507922631
182.162,248.322406544
182.177,248.135754947
182.192,247.947976765
182.207,247.759082148
182.222,247.569082533
182.237,247.377990695
182.252,247.185820864
182.267,246.992588728
182.282,246.798311544
182.297,246.603008219
182.312,246.406699342
182.327,246.209407292
182.342,246.0111563
182.357,245.811972532
182.372,245.611884138
182.387,245.410921386
182.402,245.209116672
182.417,245.006504623
182.432,244.803122178
182.447,244.59900866
182.462,244.394205831
182.477,244.188757969
182.492,243.982711954
182.507,243.776117305
182.522,243.569026213
182.537,243.361493734
182.552,243.153577609
182.567,242.945338547
182.582,242.736840111
182.597,242.528148796
182.612,242.31933407
182.627,242.110468369
182.642,241.901627115
182.657,241.692888677
182.672,241.484334387
182.687,241.276048484
182.702,241.068118044
182.717,240.860632914
182.732,240.653685619
182.747,240.447371172
182.762,240.241786973
182.777,240.037032501
182.792,239.833209152
182.807,239.63041978
182.822,239.428768374
182.837,239.228359474
182.852,239.029297646
182.867,238.831686514
182.882,238.635628013
182.897,238.441221017
182.912,238.248559962
182.927,238.057732902
182.942,237.86881918
182.957,237.681886479
182.972,237.49698699
182.987,237.314152607
183.002,237.133388595
183.017,236.954665397
183.032,236.777907871
183.047,236.602980865
183.062,236.429669977
183.077,236.257655136
183.092,236.086474308
183.107,235.915472557
183.122,235.743729596
183.137,235.569954978
183.152,235.392333636
183.167,235.20829411
183.182,235.014154463
183.197,234.804573027
183.212,234.571690879
183.227,234.303815991
183.242,233.98357973
183.257,233.586296005
183.367,233.679819938
183.382,234.050771286
183.397,234.351654173
183.412,234.605250652
183.427,234.827291678
183.442,235.028339048
183.457,235.215507165
183.472,235.393648155
183.487,235.566117869
183.502,235.735266641
183.517,235.902756788
183.532,236.069771298
183.547,236.237153533
183.562,236.405502596
183.577,236.57523941
183.592,236.746653426
183.607,236.919936078
183.622,237.095205059
183.637,237.272522289
183.652,237.451907203
183.667,237.63334685
183.682,237.816803516
183.697,238.002220616
183.712,238.189527267
183.727,238.378641799
183.742,238.569474597
183.757,238.761930287
183.772,238.955909481
183.787,239.151310212
183.802,239.348029048
183.817,239.545961968
183.832,239.745005158
183.847,239.945055555
183.862,240.146011344
183.877,240.347772344
183.892,240.550240319
183.907,240.75331924
183.922,240.956915464
183.937,241.160937925
183.952,241.365298243
183.967,241.569910809
183.982,241.774692855
183.997,241.979564545
184.012,242.184448941
184.027,242.38927207
184.042,242.593962908
184.057,242.798453357
184.072,243.002678263
184.087,243.206575351
184.102,243.410085214
184.117,243.613151233
184.132,243.815719595
184.147,244.017739182
184.162,244.219161537
184.177,244.419940798
184.192,244.620033642
184.207,244.819399233
184.222,245.017999095
184.237,245.21579711
184.252,245.412759399
184.267,245.608854279
184.282,245.804052172
184.297,245.998325529
184.312,246.191648776
184.327,246.383998218
184.342,246.575351979
184.357,246.765689926
184.372,246.954993565
184.387,247.143246043
184.402,247.330432002
184.417,247.516537578
184.432,247.701550262
184.447,247.885458892
184.462,248.068253545
184.477,248.249925513
184.492,248.430467238
184.507,248.609872218
184.522,248.788134991
184.537,248.965251051
184.552,249.1412168
184.56,249.234593878
184.567,249.31602951
184.582,249.489687287
184.597,249.662188968
184.612,249.833534112
184.627,250.003723007
184.642,250.172756497
184.657,250.340636086
184.672,250.507363811
184.687,250.672942219
184.702,250.837374362
184.717,251.000663737
184.732,251.162814272
184.747,251.32383026
184.762,251.483716408
184.777,251.642477722
184.792,251.800119521
184.807,251.956647441
184.822,252.112067356
184.837,252.266385393
184.852,252.419607922
184.867,252.571741489
184.882,252.722792852
184.897,252.872768932
184.912,253.021676805
184.927,253.169523697
184.942,253.316316934
184.957,253.462064
184.972,253.606772448
184.987,253.750449908
185.002,253.893104129
185.017,254.034742923
185.032,254.175374129
185.047,254.315005657
185.062,254.453645472
185.077,254.591301567
185.092,254.727981953
185.107,254.863694665
185.122,254.998447762
185.137,255.132249311
185.152,255.265107371
185.167,255.397030006
185.182,255.528025284
185.197,255.658101257
185.212,255.787265947
185.227,255.91552739
185.242,256.04289356
185.257,256.169372456
185.272,256.294972002
185.287,256.419700105
185.302,256.543564669
185.31,256.609275389
185.317,256.666573516
185.332,256.788734474
185.347,256.910055302
185.362,257.030543714
185.377,257.150207406
185.392,257.269054008
185.407,257.387091121
185.422,257.504326269
185.437,257.620766978
185.452,257.736420654
185.467,257.85129472
185.482,257.965396516
185.497,258.07873331
185.512,258.191312356
185.527,258.303140823
185.542,258.414225842
185.557,258.524574472
185.572,258.634193756
185.587,258.743090628
185.602,258.851271973
185.617,258.95874467
185.632,259.065515493
185.647,259.171591143
185.662,259.27697833
185.677,259.381683635
185.692,259.485713633
185.707,259.589074803
185.722,259.691773581
185.737,259.793816364
185.752,259.895209458
185.767,259.995959116
185.782,260.09607155
185.797,260.195552895
185.812,260.294409252
185.827,260.392646629
185.842,260.490271015
185.857,260.587288304
185.872,260.683704355
185.887,260.779524958
185.902,260.874755863
185.917,260.969402747
185.932,261.063471232
185.947,261.156966879
185.96,261.237537338
185.962,261.249895197
185.977,261.34226165
185.992,261.434071632
186.007,261.525330484
186.022,261.6160435
186.037,261.706215897
186.052,261.795852867
186.06,261.843442092
186.067,261.884959527
186.082,261.973540947
186.097,262.061602123
186.112,262.149148046
186.127,262.236183602
186.142,262.322713651
186.157,262.408743005
186.172,262.494276404
186.187,262.579318546
186.202,262.663874079
186.217,262.747947623
186.232,262.831543686
186.247,262.91466678
186.262,262.997321356
186.277,263.079511814
186.292,263.161242495
186.307,263.242517688
186.322,263.323341663
186.337,263.403718612
186.352,263.4836527
186.367,263.563148019
186.382,263.64220865
186.397,263.720838601
186.412,263.799041837
186.427,263.876822302
186.442,263.954183863
186.457,264.031130341
186.472,264.107665561
186.487,264.183793263
186.502,264.259517135
186.517,264.334840848
186.532,264.409768029
186.547,264.484302252
186.562,264.558447055
186.577,264.632205936
186.592,264.705582338
186.607,264.778579697
186.622,264.851201369
186.637,264.9234507
186.652,264.995330989
186.667,265.066845487
186.682,265.137997415
186.697,265.208789962
186.71,265.269855228
186.712,265.279226264
186.727,265.349309443
186.742,265.419042555
186.757,265.488428643
186.772,265.557470704
186.787,265.62617171
186.802,265.694534581
186.817,265.762562216
186.832,265.830257476
186.847,265.897623174
186.862,265.964662132
186.877,266.031377093
186.892,266.097770793
186.907,266.163845919
186.922,266.229605134
186.937,266.29505108
186.952,266.360186357
186.967,266.425013518
186.982,266.489535139
186.997,266.553753696
187.012,266.617671685
187.027,266.681291553
187.042,266.744615735
187.057,266.807646597
187.072,266.870386543
187.087,266.932837879
187.102,266.995002932
187.117,267.056883983
187.132,267.118483278
187.147,267.179803056
187.162,267.240845529
187.177,267.301612853
187.192,267.362107208
187.207,267.422330689
187.222,267.482285439
187.237,267.541973493
187.252,267.601396924
187.267,267.660557772
187.282,267.719458032
187.297,267.778099673
187.312,267.836484677
187.327,267.89461498
187.342,267.952492476
187.357,268.010119071
187.372,268.067496649
187.387,268.124627038
187.402,268.181512066
187.417,268.238153538
187.432,268.29455327
187.447,268.35071299
187.46,268.399191968
187.462,268.406634455
187.477,268.462319407
187.492,268.517769535
187.507,268.572986518
187.522,268.627972036
187.537,268.682727738
187.552,268.737255256
187.567,268.791556185
187.582,268.845632127
187.597,268.899484671
187.612,268.953115355
187.627,269.006525731
187.642,269.059717311
187.657,269.112691604
187.672,269.165450101
187.687,269.217994297
187.702,269.270325611
187.717,269.322445498
187.732,269.374355394
187.747,269.426056689
187.762,269.477550782
187.777,269.528839063
187.792,269.579922894
187.807,269.630803613
187.822,269.681482551
187.837,269.731961032
187.852,269.782240375
187.867,269.832321847
187.882,269.882206747
187.897,269.931896328
187.912,269.981391837
187.927,270.030694537
187.942,270.079805614
187.957,270.128726299
187.972,270.177457789
187.987,270.226001266
188.002,270.274357912
188.017,270.322528874
188.032,270.370515315
188.047,270.418318374
188.062,270.465939161
188.077,270.513378799
188.092,270.560638396
188.107,270.607719025
188.122,270.654621791
188.137,270.701347739
188.152,270.747897956
188.167,270.794273469
188.182,270.840475304
188.197,270.886504516
188.21,270.926257645
188.212,270.932362099
188.227,270.978049071
188.242,271.023566447
188.257,271.068915179
188.272,271.114096244
188.287,271.159110644
188.302,271.203959317
188.317,271.248643207
188.332,271.293163254
188.347,271.337520395
188.362,271.381715548
188.377,271.42574963
188.392,271.469623548
188.407,271.513338197
188.422,271.556894439
188.437,271.60029319
188.452,271.643535292
188.467,271.686621624
188.482,271.729553029
188.497,271.77233037
188.512,271.814954457
188.527,271.857426155
188.542,271.89974626
188.557,271.941915604
188.572,271.983934983
188.587,272.025805205
188.602,272.06752707
188.617,272.109101347
188.632,272.150528832
188.647,272.191810287
188.66,272.227470014
188.662,272.232946477
188.677,272.273938173
188.692,272.314786118
188.707,272.355491053
188.722,272.396053733
188.737,272.436474876
