# 01004 ENAS Ny-Alesund Ii Observations at 12Z 22 Jun 2019
Frequency [GHz],TB
175.31,266.025525744
175.322,266.04447813
175.337,266.068008411
175.352,266.091359722
175.367,266.11453103
175.382,266.137521301
175.397,266.160329501
175.412,266.182954598
175.427,266.205395567
175.442,266.227651375
175.457,266.249720998
175.472,266.271603414
175.487,266.293297598
175.502,266.314802532
175.517,266.336117199
175.532,266.357240579
175.547,266.378171666
175.562,266.398909443
175.577,266.419452906
175.592,266.439801047
175.607,266.459952866
175.622,266.479907362
175.637,266.499663538
175.652,266.519220399
175.667,266.538576959
175.682,266.557732228
175.697,266.576685223
175.712,266.595434964
175.727,266.613980473
175.742,266.632320779
175.757,266.650454911
175.772,266.668381906
175.787,266.686100802
175.802,266.703610645
175.817,266.720910478
175.832,266.737999355
175.847,266.754876331
175.862,266.771540468
175.877,266.787990834
175.892,266.804226494
175.907,266.82024653
175.922,266.836050016
175.937,266.85163604
175.952,266.867003696
175.967,266.882152074
175.982,266.89708028
175.997,266.911787423
176.012,266.926272611
176.027,266.940534966
176.042,266.954573613
176.057,266.968387682
176.072,266.981976308
176.087,266.995338638
176.102,267.008473822
176.117,267.021381013
176.132,267.034059374
176.147,267.046508079
176.162,267.058726298
176.177,267.070713222
176.192,267.082468037
176.207,267.09398994
176.222,267.105278137
176.237,267.116331843
176.252,267.127150275
176.267,267.137732663
176.282,267.148078241
176.297,267.158186249
176.31,267.166753784
176.312,267.168055947
176.327,267.177686587
176.342,267.18707744
176.357,267.196227779
176.372,267.20513689
176.387,267.213804066
176.402,267.22222861
176.417,267.230409827
176.432,267.238347042
176.447,267.246039581
176.46,267.252508016
176.462,267.253486776
176.477,267.260687981
176.492,267.267642545
176.507,267.274349837
176.522,267.280809229
176.537,267.287020106
176.552,267.29298186
176.567,267.298693892
176.582,267.30415562
176.597,267.309366461
176.612,267.314325853
176.627,267.319033232
176.642,267.323488059
176.657,267.327689794
176.672,267.331637907
176.687,267.335331885
176.702,267.338771224
176.717,267.341955426
176.732,267.344884008
176.747,267.347556497
176.762,267.349972428
176.777,267.352131352
176.792,267.354032825
176.807,267.355676417
176.822,267.357061713
176.837,267.358188301
176.852,267.359055786
176.867,267.359663782
176.882,267.360011915
176.897,267.360099824
176.912,267.359927152
176.927,267.359493562
176.942,267.358798728
176.957,267.35784233
176.972,267.356624065
176.987,267.355143634
177.002,267.353400759
177.017,267.351395165
177.032,267.349126598
177.047,267.346594806
177.062,267.343799556
177.077,267.340740623
177.092,267.337417795
177.107,267.333830869
177.122,267.329979656
177.137,267.325863981
177.152,267.321483678
177.167,267.31683859
177.182,267.311928578
177.197,267.306753511
177.21,267.302053959
177.212,267.301313269
177.227,267.295607743
177.242,267.289636838
177.257,267.283400471
177.272,267.27689857
177.287,267.270131069
177.302,267.263097922
177.31,267.259238277
177.317,267.255799091
177.332,267.248234544
177.347,267.24040427
177.362,267.232308259
177.377,267.223946524
177.392,267.215319075
177.407,267.206425943
177.422,267.197267168
177.437,267.187842799
177.452,267.178152898
177.467,267.168197533
177.482,267.157976785
177.497,267.14749075
177.512,267.136739526
177.527,267.125723228
177.542,267.114441978
177.557,267.102895906
177.572,267.091085154
177.587,267.079009877
177.602,267.066670231
177.617,267.054066389
177.632,267.04119853
177.647,267.02806684
177.66,267.016472789
177.662,267.01467152
177.677,267.001012772
177.692,266.987090813
177.707,266.972905862
177.722,266.958458153
177.737,266.943747922
177.752,266.928775414
177.767,266.913540885
177.782,266.898044594
177.797,266.882286809
177.812,266.866267804
177.827,266.849987862
177.842,266.833447267
177.857,266.816646315
177.872,266.799585304
177.887,266.78226454
177.902,266.764684332
177.917,266.746844999
177.932,266.728746856
177.947,266.710390229
177.96,266.694272322
177.962,266.69177545
177.977,266.672902845
177.992,266.653772757
178.007,266.634385523
178.022,266.614741487
178.037,266.594840993
178.052,266.57468439
178.067,266.554272028
178.082,266.53360426
178.097,266.512681439
178.112,266.491503918
178.127,266.470072055
178.142,266.448386203
178.157,266.426446721
178.172,266.404253961
178.187,266.381808282
178.202,266.359110036
178.217,266.336159575
178.232,266.312957253
178.247,266.289503419
178.262,266.265798416
178.277,266.241842589
178.292,266.217636282
178.307,266.193179827
178.322,266.168473562
178.337,266.143517811
178.352,266.118312902
178.367,266.092859151
178.382,266.067156869
178.397,266.041206368
178.41,266.018515381
178.412,266.015007944
178.427,265.988561893
178.442,265.961868503
178.457,265.934928049
178.472,265.907740805
178.487,265.88030703
178.502,265.852626979
178.517,265.824700897
178.532,265.796529014
178.547,265.768111558
178.562,265.739448741
178.577,265.710540763
178.592,265.681387817
178.607,265.651990081
178.622,265.622347721
178.637,265.592460888
178.652,265.562329724
178.667,265.531954356
178.682,265.501334896
178.697,265.470471442
178.712,265.439364074
178.727,265.40801286
178.742,265.376417854
178.757,265.34457909
178.772,265.312496584
178.787,265.280170341
178.802,265.247600341
178.817,265.214786554
178.832,265.181728924
178.847,265.148427382
178.862,265.114881833
178.877,265.081092172
178.892,265.047058265
178.907,265.012779968
178.922,264.978257101
178.937,264.943489475
178.952,264.908476876
178.967,264.873219069
178.982,264.837715794
178.997,264.801966771
179.012,264.765971694
179.027,264.729730237
179.042,264.693242049
179.057,264.656506753
179.072,264.61952395
179.087,264.582293213
179.102,264.544814095
179.117,264.507086121
179.132,264.46910879
179.147,264.430881569
179.16,264.397548759
179.162,264.392403913
179.177,264.353675238
179.192,264.314694936
179.207,264.275462373
179.222,264.235976892
179.237,264.196237798
179.252,264.156244377
179.267,264.11599588
179.282,264.075491537
179.297,264.034730544
179.312,263.993712072
179.327,263.952435258
179.342,263.910899213
179.357,263.869103019
179.372,263.82704573
179.387,263.784726363
179.402,263.742143914
179.417,263.699297344
179.432,263.656185585
179.447,263.61280754
179.462,263.569162081
179.477,263.525248048
179.492,263.481064254
179.507,263.436609477
179.522,263.391882469
179.537,263.34688195
179.552,263.301606609
179.567,263.256055104
179.582,263.210226061
179.597,263.164118081
179.612,263.117729729
179.627,263.071059542
179.642,263.024106025
179.657,262.976867654
179.672,262.929342878
179.687,262.88153011
179.702,262.833427733
179.717,262.785034108
179.732,262.736347556
179.747,262.687366374
179.762,262.638088837
179.777,262.58851317
179.792,262.538637592
179.807,262.488460278
179.822,262.437979382
179.837,262.387193027
179.852,262.336099309
179.867,262.284696293
179.882,262.232982023
179.897,262.180954509
179.91,262.135609063
179.912,262.128611738
179.927,262.075951672
179.942,262.022972243
179.957,261.969671361
179.972,261.916046907
179.987,261.862096737
180.002,261.807818691
180.017,261.753210572
180.032,261.698270169
180.047,261.642995244
180.062,261.587383536
180.077,261.531432764
180.092,261.475140626
180.107,261.418504796
180.122,261.361522926
180.137,261.304192655
180.152,261.246511596
180.167,261.188477345
180.182,261.130087482
180.197,261.071339569
180.212,261.012231149
180.227,260.952759747
180.242,260.89292288
180.257,260.832718043
180.272,260.772142721
180.287,260.711194384
180.302,260.649870487
180.317,260.588168478
180.332,260.526085794
180.347,260.463619856
180.362,260.40076808
180.377,260.337527874
180.392,260.273896638
180.407,260.209871762
180.422,260.145450634
180.437,260.080630633
180.452,260.015409139
180.467,259.949783525
180.482,259.883751165
180.497,259.817309428
180.512,259.750455687
180.527,259.683187316
180.542,259.615501687
180.557,259.547396177
180.56,259.533724461
180.572,259.478868169
180.587,259.40991505
180.602,259.340534212
180.617,259.270723057
180.632,259.200478995
180.647,259.129799447
180.66,259.068189591
180.662,259.058681841
180.677,258.987123628
180.692,258.915122257
180.707,258.842675203
180.722,258.769779959
180.737,258.69643403
180.752,258.622634937
180.767,258.548380233
180.782,258.473667484
180.797,258.398494281
180.812,258.322858241
180.827,258.246757006
180.842,258.170188249
180.857,258.093149666
180.872,258.015638991
180.887,257.937653986
180.902,257.85919245
180.917,257.780252215
180.932,257.700831155
180.947,257.620927173
180.962,257.540538231
180.977,257.459662316
180.992,257.378297471
181.007,257.29644178
181.022,257.214093376
181.037,257.131250443
181.052,257.04791122
181.067,256.964073996
181.082,256.879737123
181.097,256.794899002
181.112,256.709558101
181.127,256.623712954
181.142,256.537362152
181.157,256.450504359
181.172,256.363138307
181.187,256.275262802
181.202,256.186876723
181.217,256.097979027
181.232,256.008568749
181.247,255.918645012
181.262,255.828207016
181.277,255.737254059
181.292,255.645785519
181.307,255.553800876
181.31,255.535341977
181.322,255.461299706
181.337,255.368281682
181.352,255.274746584
181.367,255.180694295
181.382,255.08612481
181.397,254.991038239
181.412,254.895434805
181.427,254.799314857
181.442,254.702678864
181.457,254.605527428
181.472,254.507861284
181.487,254.409681302
181.502,254.310988492
181.517,254.211784017
181.532,254.112069185
181.547,254.01184546
181.562,253.911114477
181.577,253.809878022
181.592,253.708138063
181.607,253.605896748
181.622,253.503156397
181.637,253.39991953
181.652,253.296188863
181.667,253.19196731
181.682,253.087257997
181.697,252.982064269
181.712,252.876389693
181.727,252.770238069
181.742,252.663613439
181.757,252.556520093
181.772,252.448962583
181.787,252.340945721
181.802,252.232474598
181.817,252.123554601
181.832,252.014191401
181.847,251.904390989
181.862,251.794159668
181.877,251.683504079
181.892,251.572431199
181.907,251.460948372
181.922,251.349063302
181.937,251.236784089
181.952,251.124119223
181.967,251.011077611
181.982,250.897668595
181.997,250.783901956
182.012,250.669787945
182.027,250.555337296
182.042,250.440561236
182.057,250.325471521
182.06,250.302417014
182.072,250.210080445
182.087,250.094400858
182.102,249.978446197
182.117,249.862230508
182.132,249.745768462
182.147,249.629075382
182.162,249.512167271
182.177,249.395060841
182.192,249.277773526
182.207,249.160323532
182.222,249.042729835
182.237,248.92501225
182.252,248.80719142
182.267,248.689288882
182.282,248.571327075
182.297,248.453329386
182.312,248.335320181
182.327,248.217324832
182.342,248.099369769
182.357,247.981482496
182.372,247.863691642
182.387,247.746026989
182.402,247.628519519
182.417,247.511201438
182.432,247.394106224
182.447,247.277268667
182.462,247.160724891
182.477,247.044512416
182.492,246.928670169
182.507,246.813238544
182.522,246.698259414
182.537,246.583776189
182.552,246.46983384
182.567,246.356478918
182.582,246.243759615
182.597,246.131725759
182.612,246.020428857
182.627,245.909922124
182.642,245.800260493
182.657,245.691500635
182.672,245.583700979
182.687,245.47692172
182.702,245.371224819
182.717,245.266674024
182.732,245.163334858
182.747,245.061274618
182.762,244.960562369
182.777,244.861268942
182.792,244.763466916
182.807,244.667230612
182.822,244.572636081
182.837,244.479761103
182.852,244.388685192
182.867,244.299489604
182.882,244.212257377
182.897,244.127073393
182.912,244.044024478
182.927,243.963199558
182.942,243.884689903
182.957,243.808589464
182.972,243.734995391
182.987,243.664008726
183.002,243.595735467
183.017,243.530288009
183.032,243.467787267
183.047,243.408365719
183.062,243.352171845
183.077,243.299376692
183.092,243.250183717
183.107,243.204843871
183.122,243.163679194
183.137,243.127120783
183.152,243.095771786
183.167,243.070515758
183.182,243.052711074
183.197,243.044557065
183.212,243.049823363
183.227,243.075398215
183.242,243.134808184
183.257,243.256706214
183.367,243.204967392
183.382,243.099072163
183.397,243.046226597
183.412,243.022879001
183.427,243.017695009
183.442,243.024790274
183.457,243.04088841
183.472,243.064048412
183.487,243.09305486
183.502,243.127107119
183.517,243.165652108
183.532,243.208290011
183.547,243.254718916
183.562,243.304701173
183.577,243.358042315
183.592,243.414577503
183.607,243.474162638
183.622,243.536668401
183.637,243.601976201
183.652,243.669975391
183.667,243.740561341
183.682,243.81363409
183.697,243.889097393
183.712,243.966858065
183.727,244.046825516
183.742,244.128911439
183.757,244.213029589
183.772,244.299095637
183.787,244.387027087
183.802,244.476743215
183.817,244.56816504
183.832,244.661215311
183.847,244.755818507
183.862,244.85190085
183.877,244.949390295
183.892,245.048216559
183.907,245.148311124
183.922,245.249607241
183.937,245.352039943
183.952,245.455546038
183.967,245.560064117
183.982,245.665534537
183.997,245.77189943
184.012,245.879102676
184.027,245.987089889
184.042,246.095808405
184.057,246.20520726
184.072,246.315237161
184.087,246.425850461
184.102,246.53700113
184.117,246.648644727
184.132,246.760738366
184.147,246.87324068
184.162,246.986111784
184.177,247.099313256
184.192,247.212808069
184.207,247.326560589
184.222,247.440536507
184.237,247.554702824
184.252,247.669027797
184.267,247.783480912
184.282,247.89803284
184.297,248.012655402
184.312,248.127321535
184.327,248.24200525
184.342,248.356681596
184.357,248.471326636
184.372,248.585917397
184.387,248.70043185
184.402,248.814848864
184.417,248.929148183
184.432,249.043310398
184.447,249.157316906
184.462,249.271149882
184.477,249.384792264
184.492,249.498227704
184.507,249.611440559
184.522,249.724415858
184.537,249.837139273
184.552,249.949597102
184.56,250.009461469
184.567,250.061776243
184.582,250.173664168
184.597,250.285248904
184.612,250.396519013
184.627,250.507463573
184.642,250.61807215
184.657,250.728334793
184.672,250.838242
184.687,250.947784718
184.702,251.056954312
184.717,251.165742557
184.732,251.27414162
184.747,251.382144044
184.762,251.489742738
184.777,251.596930962
184.792,251.703702308
184.807,251.8100507
184.822,251.915970368
184.837,252.021455846
184.852,252.126501962
184.867,252.231103817
184.882,252.335256786
184.897,252.438956503
184.912,252.542198852
184.927,252.644979963
184.942,252.747296192
184.957,252.849144126
184.972,252.950520567
184.987,253.051422527
185.002,253.151847225
185.017,253.251792063
185.032,253.351254644
185.047,253.450232751
185.062,253.548724339
185.077,253.646727536
185.092,253.744240636
185.107,253.84126209
185.122,253.937790502
185.137,254.033824626
185.152,254.129363365
185.167,254.224405751
185.182,254.318950956
185.197,254.412998287
185.212,254.50654717
185.227,254.599597152
185.242,254.692147904
185.257,254.78419921
185.272,254.875750961
185.287,254.966803159
185.302,255.057355906
185.31,255.105446551
185.317,255.147409407
185.332,255.236963964
185.347,255.326019969
185.362,255.41457791
185.377,255.502638361
185.392,255.590201981
185.407,255.677269513
185.422,255.763841777
185.437,255.849919668
185.452,255.935504164
185.467,256.020596308
185.482,256.105197216
185.497,256.189308069
185.512,256.272930113
185.527,256.356064661
185.542,256.438713081
185.557,256.520876807
185.572,256.602557323
185.587,256.68375617
185.602,256.764474939
185.617,256.844715282
185.632,256.924478886
185.647,257.003767494
185.662,257.082582892
185.677,257.160926909
185.692,257.238801416
185.707,257.316208327
185.722,257.393149591
185.737,257.469627195
185.752,257.545643163
185.767,257.621199554
185.782,257.696298455
185.797,257.770941987
185.812,257.8451323
185.827,257.918871574
185.842,257.992162014
185.857,258.06500585
185.872,258.137405336
185.887,258.209362754
185.902,258.280880401
185.917,258.3519606
185.932,258.422605688
185.947,258.492818023
185.96,258.5533205
185.962,258.562599981
185.977,258.631953948
185.992,258.700882338
186.007,258.769387557
186.022,258.837472046
186.037,258.905138243
186.052,258.972388604
186.06,259.008086281
186.067,259.039225587
186.082,259.105651665
186.097,259.171669319
186.112,259.237281025
186.127,259.302489281
186.142,259.367296581
186.157,259.431705422
186.172,259.495718306
186.187,259.559337735
186.202,259.622566216
186.217,259.685406254
186.232,259.747860353
186.247,259.809931017
186.262,259.871620749
186.277,259.932932049
186.292,259.993867409
186.307,260.054429324
186.322,260.114620278
186.337,260.174442754
186.352,260.233899228
186.367,260.292992167
186.382,260.35172403
186.397,260.410097274
186.412,260.468114342
186.427,260.525777669
186.442,260.583089676
186.457,260.640052782
186.472,260.696669391
186.487,260.752941894
186.502,260.808872669
186.517,260.864464087
186.532,260.919718503
186.547,260.974638258
186.562,261.029225678
186.577,261.083483076
186.592,261.137412753
186.607,261.191016991
186.622,261.244298055
186.637,261.2972582
186.652,261.349899661
186.667,261.402224654
186.682,261.454235381
186.697,261.505934029
186.71,261.550488756
186.712,261.557322757
186.727,261.608403721
186.742,261.659179045
186.757,261.709650842
186.772,261.759821202
186.787,261.809692199
186.802,261.859265885
186.817,261.908544294
186.832,261.957529439
186.847,262.006223311
186.862,262.054627885
186.877,262.102745109
186.892,262.15057692
186.907,262.198125219
186.922,262.245391903
186.937,262.292378833
186.952,262.339087857
186.967,262.385520799
186.982,262.431679459
186.997,262.477565621
187.012,262.523181039
187.027,262.568527449
187.042,262.613606569
187.057,262.658420086
187.072,262.70296967
187.087,262.747256965
187.102,262.791283597
187.117,262.835051168
187.132,262.878561255
187.147,262.921815416
187.162,262.964815181
187.177,263.007562062
187.192,263.050057548
187.207,263.092303103
187.222,263.134300169
187.237,263.176050167
187.252,263.217554495
187.267,263.258814526
187.282,263.299831611
187.297,263.340607084
187.312,263.381142247
187.327,263.42143839
187.342,263.461496772
187.357,263.501318635
187.372,263.540905196
187.387,263.580257653
187.402,263.619377178
187.417,263.658264928
187.432,263.696922029
187.447,263.735349594
187.46,263.768468657
187.462,263.77354871
187.477,263.811520444
187.492,263.849265838
187.507,263.886785924
187.522,263.924081698
187.537,263.961154147
187.552,263.998004234
187.567,264.034632899
187.582,264.071041064
187.597,264.107229634
187.612,264.143199487
187.627,264.178951489
187.642,264.21448648
187.657,264.249805286
187.672,264.284908713
187.687,264.319797541
187.702,264.354472544
187.717,264.388934468
187.732,264.423184043
187.747,264.457221984
187.762,264.491048984
187.777,264.524665722
187.792,264.558072856
187.807,264.59127103
187.822,264.624260871
187.837,264.657042988
187.852,264.689617975
187.867,264.721986411
187.882,264.754148852
187.897,264.786105851
187.912,264.817857931
187.927,264.849405612
187.942,264.880749396
187.957,264.911889765
187.972,264.942827192
187.987,264.973562135
188.002,265.004095039
188.017,265.034426333
188.032,265.064556434
188.047,265.094485746
188.062,265.124214661
188.077,265.153743557
188.092,265.183072799
188.107,265.212202747
188.122,265.24113374
188.137,265.269866107
188.152,265.298400176
188.167,265.326736249
188.182,265.354874629
188.197,265.382815603
188.21,265.406871652
188.212,265.410559453
188.227,265.438106444
188.242,265.465456836
188.257,265.49261088
188.272,265.519568816
188.287,265.546330878
188.302,265.572897289
188.317,265.599268264
188.332,265.625444012
188.347,265.651424729
188.362,265.677210613
188.377,265.702801847
188.392,265.728198609
188.407,265.753401071
188.422,265.778409399
188.437,265.803223752
188.452,265.827844283
188.467,265.85227114
188.482,265.876504466
188.497,265.900544396
188.512,265.924391067
188.527,265.9480446
188.542,265.971505122
188.557,265.994772753
188.572,266.017847602
188.587,266.040729788
188.602,266.063419414
188.617,266.085916583
188.632,266.1082214
188.647,266.13033396
188.66,266.149342741
188.662,266.152254363
188.677,266.173982698
188.692,266.19551906
188.707,266.216863533
188.722,266.238016209
188.737,266.258977171
