# 48698 WSSS Singapore Observations at 12Z 19 Nov 2019
Frequency [GHz],TB
175.31,272.782286233
175.322,272.760964009
175.337,272.734253263
175.352,272.707477923
175.367,272.680637788
175.382,272.653732653
175.397,272.626762314
175.412,272.599726564
175.427,272.572625199
175.442,272.545458011
175.457,272.518224792
175.472,272.490925332
175.487,272.463559421
175.502,272.436126849
175.517,272.408627404
175.532,272.381060872
175.547,272.35342704
175.562,272.325725694
175.577,272.297956617
175.592,272.270119592
175.607,272.242214403
175.622,272.21424083
175.637,272.186198655
175.652,272.158087655
175.667,272.12990761
175.682,272.101658297
175.697,272.073339493
175.712,272.044950973
175.727,272.016492512
175.742,271.987963883
175.757,271.959364859
175.772,271.930695211
175.787,271.90195471
175.802,271.873143124
175.817,271.844260224
175.832,271.815305775
175.847,271.786279544
175.862,271.757181298
175.877,271.728010799
175.892,271.698767812
175.907,271.669452098
175.922,271.64006342
175.937,271.610601535
175.952,271.581066205
175.967,271.551457187
175.982,271.521774238
175.997,271.492017114
176.012,271.46218557
176.027,271.43227936
176.042,271.402298236
176.057,271.37224195
176.072,271.342110252
176.087,271.311902892
176.102,271.281619618
176.117,271.251260178
176.132,271.220824318
176.147,271.190311782
176.162,271.159722315
176.177,271.129055659
176.192,271.098311556
176.207,271.067489747
176.222,271.036589971
176.237,271.005611967
176.252,270.974555471
176.267,270.94342022
176.282,270.912205948
176.297,270.880912391
176.31,270.853726966
176.312,270.849539278
176.327,270.818086344
176.342,270.786553317
176.357,270.754939927
176.372,270.723245901
176.387,270.691470968
176.402,270.659614851
176.417,270.627677277
176.432,270.595657967
176.447,270.563556644
176.46,270.535668942
176.462,270.531373028
176.477,270.499106841
176.492,270.466757799
176.507,270.434325619
176.522,270.40181002
176.537,270.369210714
176.552,270.336527416
176.567,270.303759837
176.582,270.27090769
176.597,270.237970684
176.612,270.204948527
176.627,270.171840927
176.642,270.13864759
176.657,270.105368221
176.672,270.072002524
176.687,270.0385502
176.702,270.005010952
176.717,269.971384479
176.732,269.937670479
176.747,269.903868651
176.762,269.869978688
176.777,269.836000287
176.792,269.801933141
176.807,269.767776941
176.822,269.733531379
176.837,269.699196144
176.852,269.664770924
176.867,269.630255405
176.882,269.595649274
176.897,269.560952214
176.912,269.526163908
176.927,269.491284038
176.942,269.456312283
176.957,269.421248322
176.972,269.386091833
176.987,269.350842491
177.002,269.315499971
177.017,269.280063946
177.032,269.244534087
177.047,269.208910066
177.062,269.173191551
177.077,269.13737821
177.092,269.101469708
177.107,269.065465711
177.122,269.029365881
177.137,268.993169881
177.152,268.956877371
177.167,268.920488009
177.182,268.884001453
177.197,268.847417359
177.21,268.815631981
177.212,268.810735382
177.227,268.773955175
177.242,268.737076388
177.257,268.700098673
177.272,268.663021676
177.287,268.625845046
177.302,268.588568428
177.31,268.568646558
177.317,268.551191466
177.332,268.513713801
177.347,268.476135076
177.362,268.438454928
177.377,268.400672997
177.392,268.362788916
177.407,268.324802322
177.422,268.286712848
177.437,268.248520124
177.452,268.210223779
177.467,268.171823443
177.482,268.133318742
177.497,268.094709298
177.512,268.055994738
177.527,268.017174681
177.542,267.978248748
177.557,267.939216555
177.572,267.900077721
177.587,267.860831858
177.602,267.821478581
177.617,267.782017499
177.632,267.742448223
177.647,267.70277036
177.66,267.668294739
177.662,267.662983516
177.677,267.623087295
177.692,267.583081299
177.707,267.542965128
177.722,267.502738381
177.737,267.462400655
177.752,267.421951545
177.767,267.381390642
177.782,267.340717539
177.797,267.299931825
177.812,267.259033086
177.827,267.218020909
177.842,267.176894875
177.857,267.135654567
177.872,267.094299565
177.887,267.052829445
177.902,267.011243782
177.917,266.96954215
177.932,266.927724119
177.947,266.88578926
177.96,266.84935088
177.962,266.843737139
177.977,266.801567321
177.992,266.759279369
178.007,266.716872842
178.022,266.6743473
178.037,266.631702298
178.052,266.588937391
178.067,266.54605213
178.082,266.503046064
178.097,266.459918741
178.112,266.416669706
178.127,266.3732985
178.142,266.329804663
178.157,266.286187734
178.172,266.242447247
178.187,266.198582735
178.202,266.154593729
178.217,266.110479756
178.232,266.066240341
178.247,266.021875006
178.262,265.977383273
178.277,265.932764658
178.292,265.888018675
178.307,265.843144838
178.322,265.798142655
178.337,265.753011632
178.352,265.707751274
178.367,265.662361081
178.382,265.616840551
178.397,265.57118918
178.41,265.53151843
178.412,265.52540646
178.427,265.479491879
178.442,265.433444924
178.457,265.387265078
178.472,265.340951821
178.487,265.29450463
178.502,265.247922978
178.517,265.201206337
178.532,265.154354172
178.547,265.107365949
178.562,265.060241126
178.577,265.012979162
178.592,264.965579511
178.607,264.918041621
178.622,264.87036494
178.637,264.822548911
178.652,264.774592972
178.667,264.726496559
178.682,264.678259105
178.697,264.629880035
178.712,264.581358776
178.727,264.532694746
178.742,264.483887362
178.757,264.434936035
178.772,264.385840173
178.787,264.33659918
178.802,264.287212455
178.817,264.237679393
178.832,264.187999383
178.847,264.138171813
178.862,264.088196064
178.877,264.038071512
178.892,263.987797529
178.907,263.937373483
178.922,263.886798736
178.937,263.836072644
178.952,263.785194562
178.967,263.734163835
178.982,263.682979806
178.997,263.631641812
179.012,263.580149183
179.027,263.528501246
179.042,263.47669732
179.057,263.424736721
179.072,263.372618757
179.087,263.32034273
179.102,263.267907938
179.117,263.215313671
179.132,263.162559214
179.147,263.109643845
179.16,263.063653135
179.162,263.056566835
179.177,263.00332745
179.192,262.949924949
179.207,262.896358581
179.222,262.842627594
179.237,262.788731224
179.252,262.734668702
179.267,262.68043925
179.282,262.626042085
179.297,262.571476415
179.312,262.516741439
179.327,262.461836352
179.342,262.406760335
179.357,262.351512567
179.372,262.296092215
179.387,262.240498438
179.402,262.184730387
179.417,262.128787203
179.432,262.07266802
179.447,262.016371961
179.462,261.95989814
179.477,261.903245663
179.492,261.846413624
179.507,261.789401107
179.522,261.732207189
179.537,261.674830933
179.552,261.617271393
179.567,261.559527615
179.582,261.501598628
179.597,261.443483456
179.612,261.385181107
179.627,261.32669058
179.642,261.268010862
179.657,261.209140928
179.672,261.150079738
179.687,261.090826244
179.702,261.031379382
179.717,260.971738075
179.732,260.911901236
179.747,260.851867759
179.762,260.791636529
179.777,260.731206416
179.792,260.670576273
179.807,260.609744941
179.822,260.548711244
179.837,260.487473995
179.852,260.426031985
179.867,260.364383994
179.882,260.302528785
179.897,260.240465105
179.91,260.186506968
179.912,260.17819168
179.927,260.115707225
179.942,260.053010434
179.957,259.990099984
179.972,259.926974533
179.987,259.863632723
180.002,259.800073174
180.017,259.736294488
180.032,259.67229525
180.047,259.608074021
180.062,259.543629344
180.077,259.478959741
180.092,259.414063713
180.107,259.348939739
180.122,259.283586275
180.137,259.218001757
180.152,259.152184598
180.167,259.086133186
180.182,259.019845887
180.197,258.953321042
180.212,258.886556968
180.227,258.819551957
180.242,258.752304275
180.257,258.684812164
180.272,258.617073836
180.287,258.54908748
180.302,258.480851256
180.317,258.412363295
180.332,258.343621702
180.347,258.274624552
180.362,258.205369889
180.377,258.135855731
180.392,258.066080061
180.407,257.996040835
180.422,257.925735974
180.437,257.85516337
180.452,257.784320879
180.467,257.713206327
180.482,257.641817504
180.497,257.570152166
180.512,257.498208035
180.527,257.425982796
180.542,257.353474097
180.557,257.280679551
180.56,257.266086127
180.572,257.207596732
180.587,257.134223177
180.602,257.060556383
180.617,256.986593806
180.632,256.912332865
180.647,256.837770935
180.66,256.772905071
180.662,256.762905352
180.677,256.687733406
180.692,256.612252347
180.707,256.536459378
180.722,256.460351661
180.737,256.383926308
180.752,256.307180387
180.767,256.23011092
180.782,256.152714879
180.797,256.074989185
180.812,255.996930715
180.827,255.918536289
180.842,255.839802679
180.857,255.760726603
180.872,255.681304726
180.887,255.601533657
180.902,255.521409951
180.917,255.440930106
180.932,255.36009056
180.947,255.278887694
180.962,255.19731783
180.977,255.115377224
180.992,255.033062075
181.007,254.950368515
181.022,254.86729261
181.037,254.783830363
181.052,254.699977704
181.067,254.615730499
181.082,254.531084541
181.097,254.446035548
181.112,254.360579168
181.127,254.274710971
181.142,254.188426451
181.157,254.101721022
181.172,254.014590017
181.187,253.927028687
181.202,253.839032198
181.217,253.750595628
181.232,253.661713968
181.247,253.572382117
181.262,253.48259488
181.277,253.392346968
181.292,253.301632993
181.307,253.210447466
181.31,253.192153284
181.322,253.118784795
181.337,253.026639284
181.352,252.934005126
181.367,252.840876404
181.382,252.747247085
181.397,252.653111022
181.412,252.558461943
181.427,252.463293456
181.442,252.36759904
181.457,252.271372043
181.472,252.174605679
181.487,252.077293026
181.502,251.979427019
181.517,251.881000446
181.532,251.782005949
181.547,251.682436014
181.562,251.582282971
181.577,251.481538986
181.592,251.380196063
181.607,251.278246031
181.622,251.175680547
181.637,251.072491088
181.652,250.968668946
181.667,250.864205226
181.682,250.759090839
181.697,250.653316499
181.712,250.546872716
181.727,250.439749795
181.742,250.331937827
181.757,250.223426688
181.772,250.114206035
181.787,250.004265297
181.802,249.893593677
181.817,249.782180143
181.832,249.670013426
181.847,249.557082019
181.862,249.443374169
181.877,249.328877878
181.892,249.213580898
181.907,249.097470731
181.922,248.980534625
181.937,248.862759577
181.952,248.744132329
181.967,248.624639368
181.982,248.504266934
181.997,248.383001011
182.012,248.260827342
182.027,248.137731423
182.042,248.013698517
182.057,247.888713656
182.06,247.863601116
182.072,247.762761648
182.087,247.635827094
182.102,247.507894393
182.117,247.378947757
182.132,247.248971231
182.147,247.117948706
182.162,246.985863942
182.177,246.852700592
182.192,246.71844223
182.207,246.583072375
182.222,246.44657453
182.237,246.308932217
182.252,246.170129016
182.267,246.030148613
182.282,245.888974849
182.297,245.746591777
182.312,245.602983718
182.327,245.458135334
182.342,245.312031693
182.357,245.164658355
182.372,245.016001458
182.387,244.866047807
182.402,244.714784982
182.417,244.562201445
182.432,244.408286666
182.447,244.253031245
182.462,244.096427058
182.477,243.938467407
182.492,243.779147182
182.507,243.618463035
182.522,243.456413569
182.537,243.292999536
182.552,243.128224051
182.567,242.962092822
182.582,242.794614389
182.597,242.625800383
182.612,242.455665795
182.627,242.284229265
182.642,242.111513383
182.657,241.937545001
182.672,241.762355569
182.687,241.585981472
182.702,241.408464387
182.717,241.229851651
182.732,241.050196631
182.747,240.869559106
182.762,240.688005654
182.777,240.505610029
182.792,240.322453547
182.807,240.138625453
182.822,239.954223278
182.837,239.769353176
182.852,239.58413023
182.867,239.398678728
182.882,239.213132397
182.897,239.027634588
182.912,238.842338407
182.927,238.657406789
182.942,238.473012516
182.957,238.289338182
182.972,238.10657612
182.987,237.924928325
183.002,237.744606417
183.017,237.565831727
183.032,237.388835632
183.047,237.213860335
183.062,237.041160378
183.077,236.871005312
183.092,236.703684167
183.107,236.539512612
183.122,236.378844125
183.137,236.222086942
183.152,236.06972919
183.167,235.922375177
183.182,235.780796036
183.197,235.645997101
183.212,235.51930104
183.227,235.402437621
183.242,235.297615485
183.257,235.207528532
183.367,235.214235047
183.382,235.304569154
183.397,235.408956532
183.412,235.524823312
183.427,235.650087767
183.442,235.783131986
183.457,235.922722358
183.472,236.067920114
183.487,236.218001864
183.502,236.372396614
183.517,236.530639074
183.532,236.692336509
183.547,236.857145937
183.562,237.024758846
183.577,237.194891181
183.592,237.367276972
183.607,237.541664385
183.622,237.7178134
183.637,237.895494513
183.652,238.074488092
183.667,238.25458413
183.682,238.435582188
183.697,238.617291466
183.712,238.799530874
183.727,238.982129111
183.742,239.164924683
183.757,239.347765881
183.772,239.530510694
183.787,239.713026669
183.802,239.895190715
183.817,240.076888866
183.832,240.258015995
183.847,240.438475509
183.862,240.618179007
183.877,240.797045921
183.892,240.975003154
183.907,241.151984691
183.922,241.327931228
183.937,241.502789785
183.952,241.676513332
183.967,241.849060418
183.982,242.020394811
183.997,242.190485147
184.012,242.359304594
184.027,242.526830525
184.042,242.693044208
184.057,242.85793051
184.072,243.021477617
184.087,243.183676763
184.102,243.344521983
184.117,243.504009869
184.132,243.662139355
184.147,243.818911499
184.162,243.974329289
184.177,244.128397463
184.192,244.281122332
184.207,244.432511625
184.222,244.582574337
184.237,244.731320594
184.252,244.878761524
184.267,245.024909139
184.282,245.169776225
184.297,245.313376243
184.312,245.455723235
184.327,245.59683174
184.342,245.736716713
184.357,245.875393457
184.372,246.012877554
184.387,246.149184809
184.402,246.28433119
184.417,246.418332783
184.432,246.551205748
184.447,246.682966271
184.462,246.813630537
184.477,246.943214688
184.492,247.071734801
184.507,247.199206857
184.522,247.325646716
184.537,247.451070102
184.552,247.575492581
184.56,247.641447297
184.567,247.698929542
184.582,247.821396189
184.597,247.942907525
184.612,248.063478343
184.627,248.183123217
184.642,248.301856493
184.657,248.419692288
184.672,248.536644478
184.687,248.652726702
184.702,248.767952353
184.717,248.882334581
184.732,248.99588629
184.747,249.108620137
184.762,249.220548535
184.777,249.331683652
184.792,249.442037413
184.807,249.551621503
184.822,249.660447369
184.837,249.768526223
184.852,249.875869044
184.867,249.982486583
184.882,250.088389367
184.897,250.193587699
184.912,250.298091669
184.927,250.401911151
184.942,250.50505581
184.957,250.60753511
184.972,250.70935831
184.987,250.810534477
185.002,250.911072486
185.017,251.010981024
185.032,251.110268597
185.047,251.208943532
185.062,251.307013983
185.077,251.404487934
185.092,251.501373203
185.107,251.59767745
185.122,251.693408174
185.137,251.788572725
185.152,251.883178302
185.167,251.977231958
185.182,252.070740608
185.197,252.163711027
185.212,252.256149856
185.227,252.348063606
185.242,252.439458663
185.257,252.530341286
185.272,252.620717615
185.287,252.710593674
185.302,252.79997537
185.31,252.847445475
185.317,252.888868501
185.332,252.977278755
185.347,253.065211716
185.362,253.152672863
185.377,253.239667577
185.392,253.326201138
185.407,253.412278734
185.422,253.497905457
185.437,253.58308631
185.452,253.667826208
185.467,253.752129977
185.482,253.836002361
185.497,253.919448019
185.512,254.002471534
185.527,254.085077405
185.542,254.167270059
185.557,254.249053844
185.572,254.330433037
185.587,254.411411843
185.602,254.491994395
185.617,254.57218476
185.632,254.651986937
185.647,254.731404857
185.662,254.810442389
185.677,254.889103339
185.692,254.967391451
185.707,255.045310407
185.722,255.122863831
185.737,255.200055289
185.752,255.27688829
185.767,255.353366286
185.782,255.429492676
185.797,255.505270805
185.812,255.580703964
185.827,255.655795394
185.842,255.730548284
185.857,255.804965773
185.872,255.879050953
185.887,255.952806867
185.902,256.02623651
185.917,256.099342832
185.932,256.172128738
185.947,256.244597086
185.96,256.307148298
185.962,256.316750694
185.977,256.388592333
185.992,256.460124734
186.007,256.531350587
186.022,256.60227254
186.037,256.6728932
186.052,256.743215137
186.06,256.780598901
186.067,256.813240882
186.082,256.882972926
186.097,256.952413723
186.112,257.021565694
186.127,257.090431218
186.142,257.159012642
186.157,257.227312279
186.172,257.295332405
186.187,257.363075265
186.202,257.430543069
186.217,257.497737995
186.232,257.564662189
186.247,257.631317766
186.262,257.69770681
186.277,257.763831374
186.292,257.829693481
186.307,257.895295127
186.322,257.960638276
186.337,258.025724866
186.352,258.090556806
186.367,258.155135978
186.382,258.219464237
186.397,258.283543413
186.412,258.347375306
186.427,258.410961696
186.442,258.474304334
186.457,258.537404947
186.472,258.60026524
186.487,258.662886892
186.502,258.725271559
186.517,258.787420874
186.532,258.849336449
186.547,258.911019872
186.562,258.972472709
186.577,259.033696508
186.592,259.094692793
186.607,259.155463066
186.622,259.216008813
186.637,259.276331498
186.652,259.336432564
186.667,259.396313437
186.682,259.455975523
186.697,259.515420211
186.71,259.566764149
186.712,259.574648871
186.727,259.633662853
186.742,259.692463494
186.757,259.751052108
186.772,259.809429999
186.787,259.867598449
186.802,259.925558726
186.817,259.98331208
186.832,260.04085975
186.847,260.098202954
186.862,260.155342898
186.877,260.212280773
186.892,260.269017754
186.907,260.325555004
186.922,260.381893669
186.937,260.438034884
186.952,260.493979768
186.967,260.54972943
186.982,260.605284961
186.997,260.660647445
187.012,260.715817948
187.027,260.770797527
187.042,260.825587226
187.057,260.880188077
187.072,260.934601101
187.087,260.988827305
187.102,261.042867688
187.117,261.096723237
187.132,261.150394926
187.147,261.203883721
187.162,261.257190576
187.177,261.310316436
187.192,261.363262234
187.207,261.416028894
187.222,261.46861733
187.237,261.521028449
187.252,261.573263144
187.267,261.625322302
187.282,261.6772068
187.297,261.728917506
187.312,261.780455279
187.327,261.831820971
187.342,261.883015422
187.357,261.934039469
187.372,261.984893935
187.387,262.03557964
187.402,262.086097392
187.417,262.136447995
187.432,262.186632242
187.447,262.236650921
187.46,262.279867119
187.462,262.286504811
187.477,262.336194686
187.492,262.38572131
187.507,262.435085442
187.522,262.484287833
187.537,262.533329229
187.552,262.582210367
187.567,262.63093198
187.582,262.679494793
187.597,262.727899523
187.612,262.776146885
187.627,262.824237585
187.642,262.872172324
187.657,262.919951796
187.672,262.96757669
187.687,263.01504769
187.702,263.062365473
187.717,263.109530712
187.732,263.156544073
187.747,263.203406217
187.762,263.2501178
187.777,263.296679474
187.792,263.343091884
187.807,263.389355671
187.822,263.43547147
187.837,263.481439913
187.852,263.527261625
187.867,263.572937228
187.882,263.618467339
187.897,263.663852569
187.912,263.709093527
187.927,263.754190815
187.942,263.799145033
187.957,263.843956775
187.972,263.888626631
187.987,263.933155187
188.002,263.977543024
188.017,264.021790722
188.032,264.065898853
188.047,264.109867988
188.062,264.153698691
188.077,264.197391526
188.092,264.240947051
188.107,264.28436582
188.122,264.327648385
188.137,264.370795292
188.152,264.413807084
188.167,264.456684302
188.182,264.499427483
188.197,264.542037159
188.21,264.578857965
188.212,264.584513861
188.227,264.626858115
188.242,264.669070443
188.257,264.711151366
188.272,264.7531014
188.287,264.794921057
188.302,264.83661085
188.317,264.878171284
188.332,264.919602863
188.347,264.960906089
188.362,265.002081459
188.377,265.043129468
188.392,265.084050609
188.407,265.12484537
188.422,265.165514238
188.437,265.206057696
188.452,265.246476225
188.467,265.286770303
188.482,265.326940405
188.497,265.366987003
188.512,265.406910568
188.527,265.446711565
188.542,265.486390461
188.557,265.525947717
188.572,265.565383791
188.587,265.604699142
188.602,265.643894224
188.617,265.682969488
188.632,265.721925384
188.647,265.760762359
188.66,265.794325221
188.662,265.799480858
188.677,265.838081323
188.692,265.876564193
188.707,265.914929907
188.722,265.9531789
188.737,265.991311605
