# 48698 WSSS Singapore Observations at 12Z 22 Dec 2019
Frequency [GHz],TB
175.31,275.196711812
175.322,275.175547987
175.337,275.149027769
175.352,275.12243458
175.367,275.095768136
175.382,275.069028151
175.397,275.042214339
175.412,275.015326412
175.427,274.988364078
175.442,274.961327047
175.457,274.934215024
175.472,274.907027714
175.487,274.87976482
175.502,274.852426044
175.517,274.825011084
175.532,274.797519638
175.547,274.769951403
175.562,274.742306072
175.577,274.714583338
175.592,274.686782892
175.607,274.658904422
175.622,274.630947615
175.637,274.602912156
175.652,274.57479773
175.667,274.546604016
175.682,274.518330695
175.697,274.489977445
175.712,274.461543942
175.727,274.433029858
175.742,274.404434868
175.757,274.37575864
175.772,274.347000844
175.787,274.318161145
175.802,274.289239208
175.817,274.260234695
175.832,274.231147268
175.847,274.201976583
175.862,274.1727223
175.877,274.14338407
175.892,274.113961548
175.907,274.084454384
175.922,274.054862226
175.937,274.025184721
175.952,273.995421513
175.967,273.965572245
175.982,273.935636557
175.997,273.905614088
176.012,273.875504472
176.027,273.845307346
176.042,273.815022339
176.057,273.784649083
176.072,273.754187205
176.087,273.723636331
176.102,273.692996083
176.117,273.662266083
176.132,273.63144595
176.147,273.600535301
176.162,273.56953375
176.177,273.53844091
176.192,273.507256391
176.207,273.4759798
176.222,273.444610743
176.237,273.413148824
176.252,273.381593644
176.267,273.349944801
176.282,273.318201892
176.297,273.286364511
176.31,273.258695381
176.312,273.254432249
176.327,273.222404697
176.342,273.190281441
176.357,273.158062066
176.372,273.125746154
176.387,273.093333284
176.402,273.060823036
176.417,273.028214983
176.432,272.995508699
176.447,272.962703753
176.46,272.934192659
176.462,272.929799712
176.477,272.896796143
176.492,272.863692609
176.507,272.830488668
176.522,272.797183879
176.537,272.763777797
176.552,272.730269975
176.567,272.696659962
176.582,272.662947306
176.597,272.629131552
176.612,272.595212242
176.627,272.561188916
176.642,272.52706111
176.657,272.49282836
176.672,272.458490196
176.687,272.424046148
176.702,272.389495741
176.717,272.3548385
176.732,272.320073945
176.747,272.285201595
176.762,272.250220965
176.777,272.215131566
176.792,272.179932909
176.807,272.144624502
176.822,272.109205847
176.837,272.073676447
176.852,272.0380358
176.867,272.002283401
176.882,271.966418744
176.897,271.930441318
176.912,271.894350609
176.927,271.858146102
176.942,271.821827278
176.957,271.785393615
176.972,271.748844589
176.987,271.71217967
177.002,271.675398328
177.017,271.63850003
177.032,271.601484237
177.047,271.564350411
177.062,271.527098008
177.077,271.489726481
177.092,271.452235282
177.107,271.414623858
177.122,271.376891652
177.137,271.339038107
177.152,271.30106266
177.167,271.262964747
177.182,271.224743797
177.197,271.186399241
177.21,271.153066863
177.212,271.147930502
177.227,271.109337004
177.242,271.070618163
177.257,271.031773396
177.272,270.992802114
177.287,270.953703725
177.302,270.914477636
177.31,270.893504633
177.317,270.875123247
177.332,270.835639957
177.347,270.79602716
177.362,270.756284249
177.377,270.716410611
177.392,270.67640563
177.407,270.636268688
177.422,270.595999162
177.437,270.555596426
177.452,270.515059851
177.467,270.474388802
177.482,270.433582643
177.497,270.392640735
177.512,270.351562432
177.527,270.310347087
177.542,270.268994049
177.557,270.227502662
177.572,270.185872268
177.587,270.144102203
177.602,270.102191802
177.617,270.060140395
177.632,270.017947306
177.647,269.97561186
177.66,269.93880546
177.662,269.933133373
177.677,269.890511161
177.692,269.847744533
177.707,269.804832798
177.722,269.761775256
177.737,269.718571208
177.752,269.675219948
177.767,269.631720767
177.782,269.588072952
177.797,269.544275785
177.812,269.500328545
177.827,269.456230507
177.842,269.411980941
177.857,269.367579115
177.872,269.323024289
177.887,269.278315722
177.902,269.233452668
177.917,269.188434377
177.932,269.143260093
177.947,269.09792906
177.96,269.05851478
177.962,269.052440513
177.977,269.006793684
177.992,268.960987803
178.007,268.915022092
178.022,268.868895773
178.037,268.82260806
178.052,268.776158164
178.067,268.729545291
178.082,268.682768644
178.097,268.635827419
178.112,268.588720811
178.127,268.541448006
178.142,268.494008191
178.157,268.446400543
178.172,268.398624238
178.187,268.350678446
178.202,268.302562332
178.217,268.254275058
178.232,268.205815781
178.247,268.157183652
178.262,268.108377817
178.277,268.059397421
178.292,268.010241599
178.307,267.960909485
178.322,267.911400207
178.337,267.861712889
178.352,267.811846648
178.367,267.7618006
178.382,267.711573852
178.397,267.66116551
178.41,267.617330693
178.412,267.610574671
178.427,267.55980043
178.442,267.508841878
178.457,267.457698097
178.472,267.406368169
178.487,267.354851168
178.502,267.303146163
178.517,267.25125222
178.532,267.199168397
178.547,267.146893751
178.562,267.09442733
178.577,267.04176818
178.592,266.98891534
178.607,266.935867845
178.622,266.882624725
178.637,266.829185005
178.652,266.775547704
178.667,266.721711836
178.682,266.667676412
178.697,266.613440436
178.712,266.559002907
178.727,266.504362819
178.742,266.449519162
178.757,266.39447092
178.772,266.339217071
178.787,266.28375659
178.802,266.228088446
178.817,266.172211603
178.832,266.116125019
178.847,266.059827647
178.862,266.003318437
178.877,265.946596333
178.892,265.889660272
178.907,265.832509188
178.922,265.77514201
178.937,265.717557661
178.952,265.65975506
178.967,265.601733119
178.982,265.543490748
178.997,265.485026851
179.012,265.426340325
179.027,265.367430065
179.042,265.308294959
179.057,265.248933891
179.072,265.189345741
179.087,265.129529383
179.102,265.069483687
179.117,265.009207518
179.132,264.948699735
179.147,264.887959195
179.16,264.83512823
179.162,264.826984748
179.177,264.76577524
179.192,264.704329514
179.207,264.642646406
179.222,264.58072475
179.237,264.518563374
179.252,264.456161103
179.267,264.393516755
179.282,264.330629147
179.297,264.26749709
179.312,264.204119392
179.327,264.140494856
179.342,264.07662228
179.357,264.012500461
179.372,263.948128191
179.387,263.883504257
179.402,263.818627442
179.417,263.753496529
179.432,263.688110294
179.447,263.622467511
179.462,263.556566949
179.477,263.490407377
179.492,263.423987558
179.507,263.357306253
179.522,263.290362221
179.537,263.223154216
179.552,263.155680991
179.567,263.087941296
179.582,263.019933878
179.597,262.951657484
179.612,262.883110854
179.627,262.814292731
179.642,262.745201853
179.657,262.675836957
179.672,262.606196779
179.687,262.536280051
179.702,262.466085507
179.717,262.395611878
179.732,262.324857893
179.747,262.253822281
179.762,262.182503771
179.777,262.110901091
179.792,262.039012967
179.807,261.966838125
179.822,261.894375294
179.837,261.8216232
179.852,261.748580569
179.867,261.675246129
179.882,261.601618608
179.897,261.527696735
179.91,261.463392032
179.912,261.45347924
179.927,261.378964853
179.942,261.304152307
179.957,261.229040335
179.972,261.153627673
179.987,261.077913058
180.002,261.001895231
180.017,260.925572933
180.032,260.848944909
180.047,260.772009906
180.062,260.694766675
180.077,260.617213969
180.092,260.539350545
180.107,260.461175163
180.122,260.382686589
180.137,260.30388359
180.152,260.224764938
180.167,260.145329411
180.182,260.065575791
180.197,259.985502863
180.212,259.905109419
180.227,259.824394257
180.242,259.743356176
180.257,259.661993987
180.272,259.580306501
180.287,259.498292538
180.302,259.415950923
180.317,259.333280488
180.332,259.250280071
180.347,259.166948516
180.362,259.083284675
180.377,258.999287404
180.392,258.91495557
180.407,258.830288043
180.422,258.745283703
180.437,258.659941436
180.452,258.574260134
180.467,258.488238698
180.482,258.401876035
180.497,258.31517106
180.512,258.228122695
180.527,258.14072987
180.542,258.05299152
180.557,257.964906587
180.56,257.947247919
180.572,257.876474023
180.587,257.787692785
180.602,257.698561834
180.617,257.609080141
180.632,257.519246682
180.647,257.429060437
180.66,257.350612878
180.662,257.338520395
180.677,257.247625546
180.692,257.156374887
180.707,257.06476742
180.722,256.97280215
180.737,256.880478085
180.752,256.787794236
180.767,256.694749616
180.782,256.601343239
180.797,256.507574121
180.812,256.413441277
180.827,256.318943719
180.842,256.224080462
180.857,256.128850513
180.872,256.033252878
180.887,255.937286557
180.902,255.840950543
180.917,255.744243823
180.932,255.647165374
180.947,255.549714161
180.962,255.45188914
180.977,255.35368925
180.992,255.255113418
181.007,255.15616055
181.022,255.056829537
181.037,254.957119243
181.052,254.857028515
181.067,254.756556168
181.082,254.655700993
181.097,254.554461749
181.112,254.452837161
181.127,254.350825918
181.142,254.248426669
181.157,254.145638024
181.172,254.042458542
181.187,253.938886739
181.202,253.834921074
181.217,253.730559953
181.232,253.62580172
181.247,253.520644657
181.262,253.415086975
181.277,253.309126816
181.292,253.202762243
181.307,253.095991237
181.31,253.07458808
181.322,252.988811693
181.337,252.881221416
181.352,252.773218112
181.367,252.664799384
181.382,252.555962729
181.397,252.446705529
181.412,252.337025047
181.427,252.226918419
181.442,252.116382649
181.457,252.0054146
181.472,251.894010992
181.487,251.782168389
181.502,251.669883197
181.517,251.557151651
181.532,251.443969815
181.547,251.330333567
181.562,251.216238593
181.577,251.101680381
181.592,250.986654213
181.607,250.871155151
181.622,250.755178035
181.637,250.638717471
181.652,250.521767822
181.667,250.404323199
181.682,250.286377454
181.697,250.167924169
181.712,250.048956646
181.727,249.929467899
181.742,249.809450647
181.757,249.688897301
181.772,249.567799956
181.787,249.446150384
181.802,249.323940023
181.817,249.201159969
181.832,249.07780097
181.847,248.953853414
181.862,248.829307322
181.877,248.704152346
181.892,248.578377755
181.907,248.451972434
181.922,248.324924876
181.937,248.197223178
181.952,248.068855039
181.967,247.939807752
181.982,247.81006821
181.997,247.679622898
182.012,247.548457898
182.027,247.416558891
182.042,247.283911158
182.057,247.150499591
182.06,247.12372426
182.072,247.016308695
182.087,246.881322601
182.102,246.745525081
182.117,246.608899556
182.132,246.471429119
182.147,246.333096556
182.162,246.193884367
182.177,246.053774797
182.192,245.912749869
182.207,245.770791413
182.222,245.627881116
182.237,245.484000563
182.252,245.339131289
182.267,245.193254836
182.282,245.046352816
182.297,244.898406982
182.312,244.749399304
182.327,244.599312054
182.342,244.448127899
182.357,244.295830002
182.372,244.142402132
182.387,243.987828787
182.402,243.83209532
182.417,243.675188088
182.432,243.517094595
182.447,243.357803667
182.462,243.197305625
182.477,243.035592477
182.492,242.872658125
182.507,242.70849858
182.522,242.543112204
182.537,242.376499956
182.552,242.208665658
182.567,242.03961628
182.582,241.869362236
182.597,241.697917705
182.612,241.525300963
182.627,241.35153473
182.642,241.176646541
182.657,241.000669129
182.672,240.823640822
182.687,240.645605963
182.702,240.466615332
182.717,240.286726592
182.732,240.106004741
182.747,239.924522571
182.762,239.742361136
182.777,239.559610228
182.792,239.376368843
182.807,239.192745656
182.822,239.008859483
182.837,238.824839736
182.852,238.640826857
182.867,238.456972746
182.882,238.273441156
182.897,238.090408073
182.912,237.908062066
182.927,237.726604619
182.942,237.546250444
182.957,237.367227794
182.972,237.189778788
182.987,237.014159782
183.002,236.840641842
183.017,236.669511375
183.032,236.501071029
183.047,236.335640987
183.062,236.173560863
183.077,236.015192426
183.092,235.8609235
183.107,235.711173422
183.122,235.566400552
183.137,235.427112313
183.152,235.293878205
183.167,235.167345934
183.182,235.048260154
183.197,234.937482092
183.212,234.836006324
183.227,234.744968092
183.242,234.665631382
183.257,234.599345926
183.367,234.600719103
183.382,234.666768791
183.397,234.745553228
183.412,234.835741416
183.427,234.936101713
183.442,235.045536031
183.457,235.163085977
183.472,235.287922472
183.487,235.419327856
183.502,235.55667629
183.517,235.699415623
183.532,235.847052065
183.547,235.999137972
183.562,236.155262503
183.577,236.315044682
183.592,236.478128382
183.607,236.644178757
183.622,236.812879757
183.637,236.98393241
183.652,237.157053638
183.667,237.331975446
183.682,237.508444334
183.697,237.686220864
183.712,237.865079306
183.727,238.044807317
183.742,238.225205639
183.757,238.406087786
183.772,238.587279707
183.787,238.768619439
183.802,238.949956725
183.817,239.131152613
183.832,239.312079037
183.847,239.492618377
183.862,239.672663011
183.877,239.85211485
183.892,240.030884874
183.907,240.208892665
183.922,240.38606594
183.937,240.56234009
183.952,240.737657723
183.967,240.911968221
183.982,241.085227305
183.997,241.257396612
184.012,241.428443293
184.027,241.598339613
184.042,241.767062582
184.057,241.934593591
184.072,242.100918068
184.087,242.266025155
184.102,242.429907395
184.117,242.59256044
184.132,242.753982776
184.147,242.914175457
184.162,243.073141866
184.177,243.230887482
184.192,243.387419667
184.207,243.542747463
184.222,243.696881405
184.237,243.849833348
184.252,244.001616305
184.267,244.152244296
184.282,244.30173221
184.297,244.450095677
184.312,244.597350949
184.327,244.743514795
184.342,244.888604395
184.357,245.032637255
184.372,245.17563112
184.387,245.317603902
184.402,245.458573605
184.417,245.598558271
184.432,245.737575914
184.447,245.875644478
184.462,246.012781787
184.477,246.149005502
184.492,246.284333093
184.507,246.418781798
184.522,246.552368601
184.537,246.685110206
184.552,246.817023012
184.56,246.887043189
184.567,246.948123103
184.582,247.078426224
184.597,247.207947773
184.612,247.336702791
184.627,247.464705948
184.642,247.591971546
184.657,247.718513504
184.672,247.844345364
184.687,247.969480282
184.702,248.093931036
184.717,248.217710016
184.732,248.340829238
184.747,248.463300338
184.762,248.58513458
184.777,248.70634286
184.792,248.826935711
184.807,248.946923308
184.822,249.066315478
184.837,249.185121701
184.852,249.303351121
184.867,249.421012554
184.882,249.538114495
184.897,249.654665123
184.912,249.770672316
184.927,249.88614365
184.942,250.001086418
184.957,250.115507628
184.972,250.229414021
184.987,250.342812071
185.002,250.455708001
185.017,250.568107785
185.032,250.680017161
185.047,250.791441636
185.062,250.902386499
185.077,251.012856822
185.092,251.122857474
185.107,251.232393125
185.122,251.341468256
185.137,251.450087167
185.152,251.55825398
185.167,251.665972653
185.182,251.773246979
185.197,251.8800806
185.212,251.986477011
185.227,252.092439564
185.242,252.197971477
185.257,252.303075841
185.272,252.407755623
185.287,252.512013674
185.302,252.615852734
185.31,252.671063158
185.317,252.719275436
185.332,252.822284314
185.347,252.924881806
185.362,253.027070258
185.377,253.128851932
185.392,253.230229006
185.407,253.331203584
185.422,253.431777695
185.437,253.531953299
185.452,253.631732292
185.467,253.731116508
185.482,253.830107724
185.497,253.928707661
185.512,254.026917991
185.527,254.124740337
185.542,254.222176277
185.557,254.319227348
185.572,254.415895047
185.587,254.512180835
185.602,254.608086137
185.617,254.70361235
185.632,254.798760837
185.647,254.893532939
185.662,254.987929967
185.677,255.081953212
185.692,255.175603942
185.707,255.268883406
185.722,255.361792836
185.737,255.454333446
185.752,255.546506437
185.767,255.638312995
185.782,255.729754297
185.797,255.820831504
185.812,255.911545773
185.827,256.001898251
185.842,256.091890074
185.857,256.181522378
185.872,256.270796289
185.887,256.359712929
185.902,256.448273418
185.917,256.536478873
185.932,256.624330407
185.947,256.711829133
185.96,256.787376838
185.962,256.798976162
185.977,256.885772605
185.992,256.972219574
186.007,257.058318182
186.022,257.144069539
186.037,257.229474762
186.052,257.314534967
186.06,257.359759721
186.067,257.399251271
186.082,257.483624797
186.097,257.567656667
186.112,257.651348009
186.127,257.734699952
186.142,257.817713629
186.157,257.900390179
186.172,257.982730739
186.187,258.064736456
186.202,258.146408477
186.217,258.227747955
186.232,258.308756045
186.247,258.389433907
186.262,258.469782707
186.277,258.549803611
186.292,258.629497794
186.307,258.70886643
186.322,258.787910701
186.337,258.86663179
186.352,258.945030886
186.367,259.023109182
186.382,259.100867872
186.397,259.178308157
186.412,259.25543124
186.427,259.332238326
186.442,259.408730626
186.457,259.484909354
186.472,259.560775724
186.487,259.636330957
186.502,259.711576274
186.517,259.786512901
186.532,259.861142064
186.547,259.935464994
186.562,260.009482922
186.577,260.083197083
186.592,260.156608713
186.607,260.22971905
186.622,260.302529334
186.637,260.375040806
186.652,260.447254709
186.667,260.519172286
186.682,260.590794784
186.697,260.662123447
186.71,260.723704906
186.712,260.733159523
186.727,260.803904258
186.742,260.874358901
186.757,260.944524699
186.772,261.014402901
186.787,261.083994756
186.802,261.15330151
186.817,261.222324413
186.832,261.291064711
186.847,261.359523651
186.862,261.427702479
186.877,261.495602442
186.892,261.563224781
186.907,261.630570742
186.922,261.697641566
186.937,261.764438493
186.952,261.830962763
186.967,261.897215611
186.982,261.963198275
186.997,262.028911988
187.012,262.094357981
187.027,262.159537484
187.042,262.224451724
187.057,262.289101926
187.072,262.353489313
187.087,262.417615104
187.102,262.481480517
187.117,262.545086766
187.132,262.608435063
187.147,262.671526617
187.162,262.734362633
187.177,262.796944313
187.192,262.859272858
187.207,262.921349462
187.222,262.983175318
187.237,263.044751616
187.252,263.106079541
187.267,263.167160275
187.282,263.227994997
187.297,263.28858488
187.312,263.348931095
187.327,263.40903481
187.342,263.468897186
187.357,263.528519383
187.372,263.587902555
187.387,263.647047853
187.402,263.705956423
187.417,263.764629408
187.432,263.823067946
187.447,263.881273169
187.46,263.931529844
187.462,263.939246208
187.477,263.996988186
187.492,264.054500224
187.507,264.111783439
187.522,264.168838941
187.537,264.225667836
187.552,264.282271228
187.567,264.338650214
187.582,264.394805886
187.597,264.450739332
187.612,264.506451637
187.627,264.561943878
187.642,264.61721713
187.657,264.672272461
187.672,264.727110937
187.687,264.781733616
187.702,264.836141553
187.717,264.890335798
187.732,264.944317396
187.747,264.998087387
187.762,265.051646806
187.777,265.104996683
187.792,265.158138044
187.807,265.211071909
187.822,265.263799294
187.837,265.316321208
187.852,265.368638658
187.867,265.420752645
187.882,265.472664163
187.897,265.524374204
187.912,265.575883754
187.927,265.627193793
187.942,265.678305297
187.957,265.729219237
187.972,265.77993658
187.987,265.830458286
188.002,265.880785312
188.017,265.930918608
188.032,265.980859121
188.047,266.030607792
188.062,266.080165558
188.077,266.129533351
188.092,266.178712096
188.107,266.227702717
188.122,266.276506129
188.137,266.325123245
188.152,266.373554971
188.167,266.421802211
188.182,266.469865862
188.197,266.517746817
188.21,266.55909655
188.212,266.565445963
188.227,266.612964184
188.242,266.660302358
188.257,266.707461359
188.272,266.754442055
188.287,266.801245312
188.302,266.847871987
188.317,266.894322936
188.332,266.94059901
188.347,266.986701053
188.362,267.032629905
188.377,267.078386405
188.392,267.123971382
188.407,267.169385664
188.422,267.214630074
188.437,267.259705428
188.452,267.304612542
188.467,267.349352222
188.482,267.393925274
188.497,267.438332497
188.512,267.482574687
188.527,267.526652634
188.542,267.570567126
188.557,267.614318944
188.572,267.657908866
188.587,267.701337665
188.602,267.744606111
188.617,267.787714968
188.632,267.830664997
188.647,267.873456953
188.66,267.910416035
188.662,267.91609159
188.677,267.958569654
188.692,268.000891889
188.707,268.043059035
188.722,268.085071825
188.737,268.126930993
