# 10410 EDZE Essen Observations at 12Z 18 Sep 2019
Frequency [GHz],TB
175.31,270.063193481
175.322,270.062289844
175.337,270.061001835
175.352,270.059537387
175.367,270.057896152
175.382,270.056077761
175.397,270.054081852
175.412,270.051908076
175.427,270.049556093
175.442,270.047025568
175.457,270.044316168
175.472,270.041427562
175.487,270.038359444
175.502,270.035111486
175.517,270.031683396
175.532,270.028074865
175.547,270.02428561
175.562,270.02031534
175.577,270.01616378
175.592,270.011830652
175.607,270.007315702
175.622,270.002618667
175.637,269.997739289
175.652,269.992677337
175.667,269.987432568
175.682,269.982004756
175.697,269.976393679
175.712,269.970599116
175.727,269.964620876
175.742,269.958458739
175.757,269.952112534
175.772,269.945582065
175.787,269.93886715
175.802,269.931967644
175.817,269.924883361
175.832,269.917614164
175.847,269.910159904
175.862,269.902520436
175.877,269.894695643
175.892,269.886685389
175.907,269.878489582
175.922,269.870108098
175.937,269.861540851
175.952,269.852787748
175.967,269.843848713
175.982,269.834723673
175.997,269.825412562
176.012,269.815915326
176.027,269.806231918
176.042,269.796362303
176.057,269.786306455
176.072,269.776064344
176.087,269.765635965
176.102,269.755021302
176.117,269.744220376
176.132,269.733233198
176.147,269.722059786
176.162,269.710700166
176.177,269.699154392
176.192,269.687422498
176.207,269.675504548
176.222,269.663400613
176.237,269.651110762
176.252,269.638635081
176.267,269.625973665
176.282,269.613126614
176.297,269.60009404
176.31,269.588649167
176.312,269.586876064
176.327,269.573472811
176.342,269.559884423
176.357,269.54611104
176.372,269.532152832
176.387,269.518009944
176.402,269.503682564
176.417,269.48917087
176.432,269.474475058
176.447,269.459595322
176.46,269.44655094
176.462,269.444531875
176.477,269.429284932
176.492,269.413854723
176.507,269.398241482
176.522,269.382445461
176.537,269.366466904
176.552,269.350306084
176.567,269.333963263
176.582,269.31743873
176.597,269.300732764
176.612,269.283845673
176.627,269.266777757
176.642,269.249529326
176.657,269.232100718
176.672,269.214492255
176.687,269.196704276
176.702,269.178737143
176.717,269.160591203
176.732,269.142266821
176.747,269.123764378
176.762,269.105084246
176.777,269.08622683
176.792,269.06719252
176.807,269.047981727
176.822,269.028594866
176.837,269.00903235
176.852,268.989294619
176.867,268.969382111
176.882,268.949295271
176.897,268.929034549
176.912,268.908600413
176.927,268.887993331
176.942,268.867213769
176.957,268.846262224
176.972,268.825139174
176.987,268.803845126
177.002,268.782380585
177.017,268.760746049
177.032,268.738942048
177.047,268.716969101
177.062,268.694827743
177.077,268.67251851
177.092,268.650041938
177.107,268.627398587
177.122,268.604589012
177.137,268.58161377
177.152,268.558473419
177.167,268.535168552
177.182,268.511699737
177.197,268.488067559
177.21,268.467454638
177.212,268.464272594
177.227,268.440315452
177.242,268.416196733
177.257,268.391917027
177.272,268.367476943
177.287,268.342877109
177.302,268.318118123
177.31,268.304848472
177.317,268.293200615
177.332,268.268125204
177.347,268.242892517
177.362,268.217503198
177.377,268.191957858
177.392,268.16625716
177.407,268.140401732
177.422,268.114392215
177.437,268.088229261
177.452,268.061913516
177.467,268.035445633
177.482,268.00882626
177.497,267.982056054
177.512,267.955135666
177.527,267.928065763
177.542,267.900846995
177.557,267.873480026
177.572,267.845965515
177.587,267.818304118
177.602,267.79049651
177.617,267.76254333
177.632,267.734445261
177.647,267.706202947
177.66,267.68161011
177.662,267.677817049
177.677,267.64928824
177.692,267.620617164
177.707,267.591804481
177.722,267.562850844
177.737,267.533756909
177.752,267.504523326
177.767,267.475150742
177.782,267.445639806
177.797,267.415991156
177.812,267.386205438
177.827,267.356283281
177.842,267.326225327
177.857,267.296032197
177.872,267.265704516
177.887,267.235242916
177.902,267.204648
177.917,267.17392039
177.932,267.14306068
177.947,267.112069478
177.96,267.085104535
177.962,267.080947381
177.977,267.049694969
177.992,267.018312829
178.007,266.986801542
178.022,266.955161665
178.037,266.923393771
178.052,266.891498408
178.067,266.859476127
178.082,266.827327461
178.097,266.795052952
178.112,266.762653108
178.127,266.73012845
178.142,266.697479483
178.157,266.664706701
178.172,266.631810589
178.187,266.598791618
178.202,266.56565026
178.217,266.532386962
178.232,266.499002178
178.247,266.465496334
178.262,266.431869849
178.277,266.398123142
178.292,266.364256603
178.307,266.330270612
178.322,266.296165562
178.337,266.261941794
178.352,266.227599662
178.367,266.193139499
178.382,266.158561625
178.397,266.12386635
178.41,266.093702365
178.412,266.089053958
178.427,266.054124736
178.442,266.01907894
178.457,265.983916815
178.472,265.948638606
178.487,265.913244508
178.502,265.877734741
178.517,265.842109485
178.532,265.8063689
178.547,265.770513139
178.562,265.734542341
178.577,265.698456626
178.592,265.66225608
178.607,265.625940793
178.622,265.589510827
178.637,265.552966216
178.652,265.516307007
178.667,265.479533184
178.682,265.442644747
178.697,265.405641661
178.712,265.368523872
178.727,265.331291312
178.742,265.293943884
178.757,265.256481475
178.772,265.218903956
178.787,265.181211165
178.802,265.143402929
178.817,265.105479047
178.832,265.067439302
178.847,265.029283452
178.862,264.991011228
178.877,264.952622342
178.892,264.914116488
178.907,264.875493328
178.922,264.836752504
178.937,264.797893639
178.952,264.758916332
178.967,264.719820142
178.982,264.680604616
178.997,264.641269287
179.012,264.60181364
179.027,264.562237151
179.042,264.522539261
179.057,264.482719397
179.072,264.44277695
179.087,264.402711287
179.102,264.36252175
179.117,264.32220765
179.132,264.281768286
179.147,264.241202909
179.16,264.205943725
179.162,264.200510748
179.177,264.159691018
179.192,264.118742895
179.207,264.077665526
179.222,264.03645804
179.237,263.995119514
179.252,263.953649024
179.267,263.912045605
179.282,263.870308264
179.297,263.82843597
179.312,263.786427675
179.327,263.744282287
179.342,263.701998709
179.357,263.659575788
179.372,263.617012353
179.387,263.57430719
179.402,263.531459065
179.417,263.488466721
179.432,263.445328853
179.447,263.402044123
179.462,263.35861118
179.477,263.315028622
179.492,263.271295031
179.507,263.227408938
179.522,263.183368853
179.537,263.139173253
179.552,263.094820569
179.567,263.050309222
179.582,263.005637589
179.597,262.960803996
179.612,262.91580676
179.627,262.870644149
179.642,262.825314396
179.657,262.779815707
179.672,262.734146253
179.687,262.688304158
179.702,262.642287534
179.717,262.596094427
179.732,262.549722867
179.747,262.50317085
179.762,262.456436316
179.777,262.4095172
179.792,262.362411362
179.807,262.315116657
179.822,262.267630883
179.837,262.219951817
179.852,262.172077192
179.867,262.124004685
179.882,262.075731968
179.897,262.027256649
179.91,261.985078953
179.912,261.978576307
179.927,261.929688485
179.942,261.880590683
179.957,261.831280357
179.972,261.781754943
179.987,261.732011812
180.002,261.682048312
180.017,261.63186174
180.032,261.581449375
180.047,261.530808428
180.062,261.479936081
180.077,261.428829487
180.092,261.377485737
180.107,261.325901894
180.122,261.274074975
180.137,261.222001962
180.152,261.169679784
180.167,261.117105342
180.182,261.064275486
180.197,261.011187019
180.212,260.957836717
180.227,260.904221295
180.242,260.850337435
180.257,260.796181787
180.272,260.74175094
180.287,260.687041434
180.302,260.632049801
180.317,260.576772483
180.332,260.52120592
180.347,260.465346468
180.362,260.409190477
180.377,260.352734232
180.392,260.29597397
180.407,260.238905891
180.422,260.181526158
180.437,260.123830873
180.452,260.065816101
180.467,260.007477868
180.482,259.948812136
180.497,259.88981484
180.512,259.83048186
180.527,259.770809037
180.542,259.71079217
180.557,259.650426981
180.56,259.638311777
180.572,259.589709199
180.587,259.528634459
180.602,259.467198371
180.617,259.405396503
180.632,259.343224363
180.647,259.28067743
180.66,259.226163383
180.662,259.217751123
180.677,259.15444081
180.692,259.090741835
180.707,259.026649473
180.722,258.962158965
180.737,258.897265508
180.752,258.831964245
180.767,258.766250269
180.782,258.700118648
180.797,258.633564371
180.812,258.56658242
180.827,258.499167701
180.842,258.431315082
180.857,258.363019399
180.872,258.294275429
180.887,258.225077899
180.902,258.155421515
180.917,258.085300917
180.932,258.014710693
180.947,257.943645424
180.962,257.872099618
180.977,257.800067743
180.992,257.727544223
181.007,257.654523465
181.022,257.580999798
181.037,257.506967527
181.052,257.432420922
181.067,257.357354204
181.082,257.28176156
181.097,257.205637125
181.112,257.128975019
181.127,257.051769307
181.142,256.974014026
181.157,256.895703172
181.172,256.816830708
181.187,256.737390569
181.202,256.657376645
181.217,256.576782815
181.232,256.495602911
181.247,256.413830745
181.262,256.331460085
181.277,256.248484706
181.292,256.164898324
181.307,256.080694665
181.31,256.063779301
181.322,255.995867408
181.337,255.910410225
181.352,255.824316769
181.367,255.737580674
181.382,255.650195581
181.397,255.562155088
181.412,255.47345282
181.427,255.384082368
181.442,255.294037344
181.457,255.203311338
181.472,255.111897961
181.487,255.019790833
181.502,254.926983563
181.517,254.833469805
181.532,254.739243198
181.547,254.64429743
181.562,254.548626196
181.577,254.452223231
181.592,254.355082309
181.607,254.257197232
181.622,254.158561854
181.637,254.059170087
181.652,253.959015875
181.667,253.858093254
181.682,253.756396309
181.697,253.653919219
181.712,253.550656215
181.727,253.446601647
181.742,253.341749943
181.757,253.236095648
181.772,253.129633418
181.787,253.022358034
181.802,252.914264393
181.817,252.805347556
181.832,252.695602725
181.847,252.585025269
181.862,252.473610732
181.877,252.361354833
181.892,252.248253501
181.907,252.134302886
181.922,252.019499347
181.937,251.903839484
181.952,251.787320166
181.967,251.669938522
181.982,251.551691978
181.997,251.432578255
182.012,251.312595409
182.027,251.191741842
182.042,251.070016306
182.057,250.947417963
182.06,250.922793507
182.072,250.823946352
182.087,250.699601462
182.102,250.574383747
182.117,250.448294124
182.132,250.321334044
182.147,250.193505465
182.162,250.064810942
182.177,249.935253617
182.192,249.804837266
182.207,249.673566338
182.222,249.541445988
182.237,249.40848211
182.252,249.274681385
182.267,249.140051314
182.282,249.004600285
182.297,248.868337583
182.312,248.731273469
182.327,248.593419243
182.342,248.454787232
182.357,248.315390928
182.372,248.175245004
182.387,248.03436537
182.402,247.892769264
182.417,247.750475296
182.432,247.607503537
182.447,247.46387558
182.462,247.319614626
182.477,247.174745556
182.492,247.02929502
182.507,246.883291527
182.522,246.736765505
182.537,246.589749446
182.552,246.442277946
182.567,246.294387835
182.582,246.146118273
182.597,245.99751082
182.612,245.84860957
182.627,245.699461251
182.642,245.550115286
182.657,245.400623931
182.672,245.25104235
182.687,245.101428703
182.702,244.95184422
182.717,244.8023533
182.732,244.653023522
182.747,244.503925745
182.762,244.355134079
182.777,244.206725909
182.792,244.058781875
182.807,243.911385802
182.822,243.764624581
182.837,243.618588059
182.852,243.473368796
182.867,243.329061814
182.882,243.185764266
182.897,243.043574994
182.912,242.902594055
182.927,242.762922061
182.942,242.624659499
182.957,242.487905894
182.972,242.352758889
182.987,242.219313187
183.002,242.087659473
183.017,241.95788335
183.032,241.830064248
183.047,241.704274658
183.062,241.580579817
183.077,241.459038189
183.092,241.339703467
183.107,241.222628715
183.122,241.107874316
183.137,240.995521421
183.152,240.885693742
183.167,240.778591822
183.182,240.674544659
183.197,240.574084448
183.212,240.478048717
183.227,240.38770702
183.242,240.304892043
183.257,240.232081775
183.367,240.234033311
183.382,240.30564034
183.397,240.38658949
183.412,240.47456856
183.427,240.567898435
183.442,240.665431459
183.457,240.766418235
183.472,240.870386221
183.487,240.977044789
183.502,241.08621681
183.517,241.197791948
183.532,241.311696022
183.547,241.427871568
183.562,241.54626601
183.577,241.666824863
183.592,241.789488163
183.607,241.914188961
183.622,242.040853036
183.637,242.169399377
183.652,242.29974108
183.667,242.431786351
183.682,242.565439665
183.697,242.700602802
183.712,242.837175882
183.727,242.975058276
183.742,243.114149368
183.757,243.254349286
183.772,243.395559479
183.787,243.537683171
183.802,243.680625833
183.817,243.824295421
183.832,243.968602687
183.847,244.113461361
183.862,244.258788262
183.877,244.40450341
183.892,244.550530087
183.907,244.696794838
183.922,244.843227479
183.937,244.989761066
183.952,245.136331855
183.967,245.282879217
183.982,245.429345606
183.997,245.575676425
184.012,245.721819982
184.027,245.867727367
184.042,246.01335239
184.057,246.158651428
184.072,246.303583375
184.087,246.448109508
184.102,246.592193418
184.117,246.735800883
184.132,246.878899796
184.147,247.021460044
184.162,247.163453449
184.177,247.304853658
184.192,247.445636062
184.207,247.585777718
184.222,247.725257261
184.237,247.864054838
184.252,248.002152031
184.267,248.139531786
184.282,248.276178335
184.297,248.412077162
184.312,248.547214905
184.327,248.681579314
184.342,248.815159216
184.357,248.947944414
184.372,249.079925691
184.387,249.211094702
184.402,249.341443987
184.417,249.470966889
184.432,249.599657518
184.447,249.727510728
184.462,249.854522044
184.477,249.980687684
184.492,250.106004453
184.507,250.230469757
184.522,250.354081578
184.537,250.476838408
184.552,250.598739247
184.56,250.663402822
184.567,250.719783565
184.582,250.839971284
184.597,250.959302749
184.612,251.077778709
184.627,251.195400275
184.642,251.312168937
184.657,251.428086504
184.672,251.543155127
184.687,251.657377219
184.702,251.770755519
184.717,251.883292993
184.732,251.994992881
184.747,252.105858655
184.762,252.215893996
184.777,252.325102804
184.792,252.433489167
184.807,252.541057363
184.822,252.647811829
184.837,252.753757161
184.852,252.858898124
184.867,252.963239589
184.882,253.066786582
184.897,253.169544242
184.912,253.271517803
184.927,253.372712629
184.942,253.473134151
184.957,253.572787901
184.972,253.671679486
184.987,253.769814592
185.002,253.867198965
185.017,253.963838412
185.032,254.059738801
185.047,254.154906032
185.062,254.249346066
185.077,254.3430649
185.092,254.436068547
185.107,254.528363066
185.122,254.619954542
185.137,254.710849066
185.152,254.801052759
185.167,254.89057175
185.182,254.979412166
185.197,255.067580174
185.212,255.155081892
185.227,255.241923487
185.242,255.328111093
185.257,255.413650854
185.272,255.498548889
185.287,255.582811328
185.302,255.666444269
185.31,255.710793214
185.317,255.749453806
185.332,255.83184601
185.347,255.91362694
185.362,255.994802632
185.377,256.075379085
185.392,256.1553623
185.407,256.234758228
185.422,256.313572809
185.437,256.391811946
185.452,256.469481513
185.467,256.546587365
185.482,256.623135309
185.497,256.699131126
185.512,256.774580562
185.527,256.849489328
185.542,256.923863106
185.557,256.997707533
185.572,257.071028202
185.587,257.143830693
185.602,257.216120518
185.617,257.287903177
185.632,257.359184104
185.647,257.429968718
185.662,257.500262379
185.677,257.570070415
185.692,257.639398108
185.707,257.708250697
185.722,257.776633382
185.737,257.844551337
185.752,257.912009658
185.767,257.979013423
185.782,258.045567659
185.797,258.111677363
185.812,258.177347465
185.827,258.24258287
185.842,258.30738843
185.857,258.371768957
185.872,258.435729227
185.887,258.499273951
185.902,258.562407825
185.917,258.625135466
185.932,258.687461485
185.947,258.749390424
185.96,258.802744452
185.962,258.81092678
185.977,258.872075024
185.992,258.932839567
186.007,258.993224784
186.022,259.053235004
186.037,259.112874515
186.052,259.172147562
186.06,259.20361146
186.067,259.23105834
186.082,259.289611009
186.097,259.347809683
186.112,259.405658425
186.127,259.463161269
186.142,259.520322194
186.157,259.577145157
186.172,259.63363404
186.187,259.689792705
186.202,259.745624972
186.217,259.801134615
186.232,259.856325356
186.247,259.911200904
186.262,259.965764892
186.277,260.020020933
186.292,260.073972604
186.307,260.127623407
186.322,260.180976851
186.337,260.234036376
186.352,260.286805384
186.367,260.339287235
186.382,260.391485267
186.397,260.443402764
186.412,260.495042968
186.427,260.546409092
186.442,260.597504298
186.457,260.648331727
186.472,260.698894459
186.487,260.749195559
186.502,260.79923805
186.517,260.849024893
186.532,260.898559044
186.547,260.947843398
186.562,260.996880828
186.577,261.045674153
186.592,261.094226189
186.607,261.142539682
186.622,261.190617351
186.637,261.238461887
186.652,261.286075934
186.667,261.33346212
186.682,261.380623016
186.697,261.427561174
186.71,261.468062682
186.712,261.474279097
186.727,261.520779272
186.742,261.567064138
186.757,261.613136099
186.772,261.658997537
186.787,261.704650795
186.802,261.750098177
186.817,261.795341962
186.832,261.840384394
186.847,261.885227677
186.862,261.929874005
186.877,261.974325519
186.892,262.018584333
186.907,262.062652534
186.922,262.10653217
186.937,262.150225267
186.952,262.193733819
186.967,262.237059787
186.982,262.280205094
186.997,262.32317166
187.012,262.365961332
187.027,262.408575971
187.042,262.451017377
187.057,262.493287348
187.072,262.535387628
187.087,262.577319944
187.102,262.619085999
187.117,262.660687462
187.132,262.702125973
187.147,262.743403155
187.162,262.784520583
187.177,262.825479821
187.192,262.866282413
187.207,262.906929854
187.222,262.947423627
187.237,262.987765186
187.252,263.027955963
187.267,263.067997356
187.282,263.10789074
187.297,263.147637476
187.312,263.187238884
187.327,263.22669626
187.342,263.266010897
187.357,263.305184035
187.372,263.3442169
187.387,263.383110708
187.402,263.421866636
187.417,263.460485832
187.432,263.49896944
187.447,263.537318568
187.46,263.570446541
187.462,263.575534304
187.477,263.613617714
187.492,263.651569844
187.507,263.689391703
187.522,263.727084308
187.537,263.764648621
187.552,263.802085603
187.567,263.839396196
187.582,263.876581299
187.597,263.913641808
187.612,263.950578602
187.627,263.987392525
187.642,264.02408441
187.657,264.060655069
187.672,264.097105289
187.687,264.133435847
187.702,264.169647488
187.717,264.205740946
187.732,264.241716945
187.747,264.277576169
187.762,264.313319292
187.777,264.348946984
187.792,264.384459869
187.807,264.419858582
187.822,264.455143716
187.837,264.49031587
187.852,264.525375604
187.867,264.560323477
187.882,264.595160016
187.897,264.629885745
187.912,264.664501162
187.927,264.699006753
187.942,264.73340299
187.957,264.767690327
187.972,264.801869203
187.987,264.835940037
188.002,264.869903231
188.017,264.90375918
188.032,264.937508268
188.047,264.971150852
188.062,265.004687283
188.077,265.038117894
188.092,265.071443002
188.107,265.10466291
188.122,265.137777918
188.137,265.170788297
188.152,265.203694316
188.167,265.236496225
188.182,265.26919426
188.197,265.30178866
188.21,265.329953465
188.212,265.334279628
188.227,265.366667372
188.242,265.398952072
188.257,265.431133917
188.272,265.463213064
188.287,265.495189672
188.302,265.527063886
188.317,265.558835835
188.332,265.59050564
188.347,265.62207341
188.362,265.653539254
188.377,265.684903249
188.392,265.716165479
188.407,265.747326015
188.422,265.778384915
188.437,265.809342233
188.452,265.840198003
188.467,265.870952258
188.482,265.901605023
188.497,265.932156313
188.512,265.962606128
188.527,265.992954464
188.542,266.023201314
188.557,266.053346656
188.572,266.083390457
188.587,266.113332688
188.602,266.143173302
188.617,266.172912248
188.632,266.202549472
188.647,266.232084906
188.66,266.257599892
188.662,266.26151848
188.677,266.290850113
188.692,266.320079718
188.707,266.34920721
188.722,266.378232491
188.737,266.407155454
