# 10410 EDZE Essen Observations at 12Z 24 Aug 2019
Frequency [GHz],TB
175.31,283.739257902
175.322,283.740838821
175.337,283.742640522
175.352,283.744247817
175.367,283.745660093
175.382,283.746876742
175.397,283.74789716
175.412,283.748720746
175.427,283.749346906
175.442,283.749775049
175.457,283.750004587
175.472,283.75003494
175.487,283.74986553
175.502,283.749495784
175.517,283.748925136
175.532,283.748153022
175.547,283.747178885
175.562,283.746002171
175.577,283.744622334
175.592,283.743038829
175.607,283.741251121
175.622,283.739258676
175.637,283.737060968
175.652,283.734657474
175.667,283.73204768
175.682,283.729231073
175.697,283.72620715
175.712,283.72297541
175.727,283.719535359
175.742,283.71588651
175.757,283.71202838
175.772,283.707960491
175.787,283.703682375
175.802,283.699193565
175.817,283.694493602
175.832,283.689582035
175.847,283.684458416
175.862,283.679122304
175.877,283.673573266
175.892,283.667810874
175.907,283.661834705
175.922,283.655644344
175.937,283.649239383
175.952,283.642619418
175.967,283.635784052
175.982,283.628732899
175.997,283.621465572
176.012,283.613981697
176.027,283.606280904
176.042,283.59836283
176.057,283.590227117
176.072,283.581873418
176.087,283.573301388
176.102,283.564510693
176.117,283.555501004
176.132,283.546271997
176.147,283.536823358
176.162,283.52715478
176.177,283.517265961
176.192,283.507156607
176.207,283.496826431
176.222,283.486275153
176.237,283.475502501
176.252,283.464508209
176.267,283.453292018
176.282,283.441853677
176.297,283.430192942
176.31,283.419906896
176.312,283.418309576
176.327,283.40620335
176.342,283.39387404
176.357,283.381321432
176.372,283.368545318
176.387,283.355545497
176.402,283.342321777
176.417,283.32887397
176.432,283.315201898
176.447,283.301305389
176.46,283.289080076
176.462,283.287184279
176.477,283.272838411
176.492,283.258267634
176.507,283.243471808
176.522,283.228450795
176.537,283.213204468
176.552,283.197732706
176.567,283.182035395
176.582,283.166112428
176.597,283.149963707
176.612,283.133589139
176.627,283.116988637
176.642,283.100162126
176.657,283.083109532
176.672,283.065830792
176.687,283.048325849
176.702,283.030594652
176.717,283.012637159
176.732,282.994453331
176.747,282.97604314
176.762,282.957406562
176.777,282.938543581
176.792,282.919454187
176.807,282.900138377
176.822,282.880596155
176.837,282.860827529
176.852,282.840832515
176.867,282.820611137
176.882,282.800163424
176.897,282.779489409
176.912,282.758589133
176.927,282.737462644
176.942,282.716109995
176.957,282.694531243
176.972,282.672726453
176.987,282.650695696
177.002,282.628439047
177.017,282.605956588
177.032,282.583248403
177.047,282.560314585
177.062,282.537155234
177.077,282.513770447
177.092,282.490160333
177.107,282.466325005
177.122,282.442264578
177.137,282.417979172
177.152,282.393468914
177.167,282.368733934
177.182,282.343774365
177.197,282.318590346
177.21,282.296582749
177.212,282.293182018
177.227,282.267549527
177.242,282.241693023
177.257,282.215612659
177.272,282.189308591
177.287,282.162780978
177.302,282.136029984
177.31,282.121671506
177.317,282.109055774
177.332,282.081858515
177.347,282.054438379
177.362,282.026795541
177.377,281.998930172
177.392,281.970842453
177.407,281.942532563
177.422,281.914000682
177.437,281.885246995
177.452,281.856271684
177.467,281.827074935
177.482,281.797656934
177.497,281.768017869
177.512,281.738157926
177.527,281.708077296
177.542,281.677776163
177.557,281.64725472
177.572,281.616513151
177.587,281.585551647
177.602,281.554370393
177.617,281.522969575
177.632,281.491349381
177.647,281.459509993
177.66,281.431738693
177.662,281.427451593
177.677,281.395174362
177.692,281.362678481
177.707,281.329964125
177.722,281.297031469
177.737,281.263880684
177.752,281.230511941
177.767,281.196925404
177.782,281.163121238
177.797,281.129099599
177.812,281.094860645
177.827,281.060404527
177.842,281.025731391
177.857,280.990841382
177.872,280.955734636
177.887,280.920411287
177.902,280.884871462
177.917,280.849115285
177.932,280.813142871
177.947,280.776954331
177.96,280.745416191
177.962,280.740549772
177.977,280.703929288
177.992,280.667092973
178.007,280.630040911
178.022,280.592773179
178.037,280.555289846
178.052,280.517590976
178.067,280.479676621
178.082,280.441546828
178.097,280.403201632
178.112,280.364641066
178.127,280.325865145
178.142,280.286873882
178.157,280.247667277
178.172,280.208245322
178.187,280.168607996
178.202,280.128755272
178.217,280.088687109
178.232,280.048403457
178.247,280.007904254
178.262,279.967189428
178.277,279.926258895
178.292,279.885112558
178.307,279.843750308
178.322,279.802172027
178.337,279.760377581
178.352,279.718366825
178.367,279.676139599
178.382,279.633695733
178.397,279.591035041
178.41,279.5538869
178.412,279.548157324
178.427,279.505062369
178.442,279.46174995
178.457,279.418219824
178.472,279.374471737
178.487,279.330505417
178.502,279.286320578
178.517,279.24191692
178.532,279.197294124
178.547,279.152451861
178.562,279.107389779
178.577,279.062107517
178.592,279.016604692
178.607,278.970880907
178.622,278.92493575
178.637,278.878768788
178.652,278.832379574
178.667,278.785767642
178.682,278.73893251
178.697,278.691873678
178.712,278.644590626
178.727,278.597082819
178.742,278.549349702
178.757,278.501390702
178.772,278.45320523
178.787,278.404792673
178.802,278.356152405
178.817,278.307283775
178.832,278.258186119
178.847,278.20885875
178.862,278.159300963
178.877,278.109512033
178.892,278.059491215
178.907,278.009237745
178.922,277.958750838
178.937,277.908029693
178.952,277.857073482
178.967,277.805881363
178.982,277.754452472
178.997,277.702785921
179.012,277.650880807
179.027,277.598736205
179.042,277.546351166
179.057,277.493724725
179.072,277.440855894
179.087,277.387743662
179.102,277.334387003
179.117,277.280784863
179.132,277.226936174
179.147,277.172839842
179.16,277.125755179
179.162,277.118494754
179.177,277.063899776
179.192,277.009053753
179.207,276.953955507
179.222,276.898603842
179.237,276.84299754
179.252,276.787135361
179.267,276.731016043
179.282,276.674638305
179.297,276.618000846
179.312,276.561102341
179.327,276.503941444
179.342,276.446516791
179.357,276.388826996
179.372,276.330870649
179.387,276.272646325
179.402,276.214152572
179.417,276.155387923
179.432,276.096350885
179.447,276.03703995
179.462,275.977453585
179.477,275.917590238
179.492,275.857448339
179.507,275.797026295
179.522,275.736322492
179.537,275.6753353
179.552,275.614063066
179.567,275.552504118
179.582,275.490656765
179.597,275.428519295
179.612,275.366089979
179.627,275.303367067
179.642,275.240348789
179.657,275.177033359
179.672,275.11341897
179.687,275.049503797
179.702,274.985285996
179.717,274.920763707
179.732,274.855935047
179.747,274.790798121
179.762,274.725351012
179.777,274.659591787
179.792,274.593518495
179.807,274.527129169
179.822,274.460421826
179.837,274.393394461
179.852,274.326045058
179.867,274.258371582
179.882,274.190371986
179.897,274.122044198
179.91,274.062559706
179.912,274.05338614
179.927,273.984395714
179.942,273.915070806
179.957,273.845409292
179.972,273.775409027
179.987,273.705067855
180.002,273.634383605
180.017,273.563354094
180.032,273.491977123
180.047,273.420250478
180.062,273.348171939
180.077,273.275739265
180.092,273.202950206
180.107,273.129802501
180.122,273.056293874
180.137,272.982422039
180.152,272.908184701
180.167,272.833579548
180.182,272.75860426
180.197,272.683256509
180.212,272.607533953
180.227,272.531434243
180.242,272.454955016
180.257,272.378093905
180.272,272.300848529
180.287,272.223216502
180.302,272.145195427
180.317,272.066782899
180.332,271.987976506
180.347,271.908773829
180.362,271.82917244
180.377,271.749169903
180.392,271.668763778
180.407,271.587951618
180.422,271.506730967
180.437,271.425099366
180.452,271.343054348
180.467,271.260593444
180.482,271.177714176
180.497,271.094414063
180.512,271.01069062
180.527,270.926541355
180.542,270.841963774
180.557,270.75695538
180.56,270.739901783
180.572,270.671513668
180.587,270.585636135
180.602,270.49932027
180.617,270.412563562
180.632,270.325363496
180.647,270.237717552
180.66,270.161395122
180.662,270.149623211
180.677,270.061077951
180.692,269.972079245
180.707,269.882624567
180.722,269.792711386
180.737,269.70233717
180.752,269.611499388
180.767,269.520195501
180.782,269.428422976
180.797,269.336179271
180.812,269.243461846
180.827,269.150268159
180.842,269.056595665
180.857,268.962441817
180.872,268.86780407
180.887,268.772679872
180.902,268.67706667
180.917,268.580961911
180.932,268.484363037
180.947,268.387267491
180.962,268.289672709
180.977,268.191576128
180.992,268.092975178
181.007,267.993867288
181.022,267.894249885
181.037,267.794120389
181.052,267.693476216
181.067,267.592314778
181.082,267.490633484
181.097,267.388429736
181.112,267.285700929
181.127,267.182444455
181.142,267.078657694
181.157,266.974338028
181.172,266.869482824
181.187,266.764089443
181.202,266.65815524
181.217,266.55167756
181.232,266.444653737
181.247,266.337081098
181.262,266.22895696
181.277,266.120278626
181.292,266.011043391
181.307,265.901248539
181.31,265.879222174
181.322,265.79089134
181.337,265.679969054
181.352,265.568478927
181.367,265.456418193
181.382,265.34378407
181.397,265.230573767
181.412,265.116784476
181.427,265.002413379
181.442,264.88745764
181.457,264.771914412
181.472,264.655780833
181.487,264.539054029
181.502,264.421731111
181.517,264.30380918
181.532,264.185285323
181.547,264.066156616
181.562,263.946420126
181.577,263.826072908
181.592,263.70511201
181.607,263.583534474
181.622,263.461337335
181.637,263.338517627
181.652,263.21507238
181.667,263.090998626
181.682,262.966293402
181.697,262.840953747
181.712,262.714976716
181.727,262.588359373
181.742,262.461098801
181.757,262.3331921
181.772,262.204636403
181.787,262.07542887
181.802,261.945566697
181.817,261.815047126
181.832,261.683867444
181.847,261.552024998
181.862,261.419517195
181.877,261.286341518
181.892,261.152495527
181.907,261.017976874
181.922,260.882783309
181.937,260.746912692
181.952,260.61036301
181.967,260.473132377
181.982,260.335219057
181.997,260.196621474
182.012,260.057338226
182.027,259.917368102
182.042,259.776710095
182.057,259.635363423
182.06,259.607011396
182.072,259.493327542
182.087,259.350602169
182.102,259.2071873
182.117,259.06308323
182.132,258.918290574
182.147,258.772810293
182.162,258.626643712
182.177,258.47979255
182.192,258.332258939
182.207,258.184045458
182.222,258.035155154
182.237,257.88559157
182.252,257.735358779
182.267,257.584461408
182.282,257.432904672
182.297,257.280694402
182.312,257.127837079
182.327,256.974339864
182.342,256.820210628
182.357,256.665457989
182.372,256.510091339
182.387,256.354120876
182.402,256.197557635
182.417,256.040413516
182.432,255.882701312
182.447,255.72443473
182.462,255.565628416
182.477,255.406297973
182.492,255.246459973
182.507,255.08613196
182.522,254.925332455
182.537,254.764080944
182.552,254.602397859
182.567,254.440304542
182.582,254.277823202
182.597,254.114976842
182.612,253.951789171
182.627,253.788284489
182.642,253.624487536
182.657,253.460423308
182.672,253.296116821
182.687,253.131592825
182.702,252.966875456
182.717,252.801987799
182.732,252.636951373
182.747,252.471785491
182.762,252.306506499
182.777,252.141126845
182.792,251.975653964
182.807,251.810088923
182.822,251.644424799
182.837,251.4786447
182.852,251.312719388
182.867,251.146604391
182.882,250.980236495
182.897,250.81352948
182.912,250.646368905
182.927,250.478605716
182.942,250.310048383
182.957,250.140453166
182.972,249.969512011
182.987,249.7968374
183.002,249.621943272
183.017,249.44422079
183.032,249.262907339
183.047,249.077046502
183.062,248.88543588
183.077,248.68655842
183.092,248.478491024
183.107,248.258781696
183.122,248.0242826
183.137,247.770921131
183.152,247.493383768
183.167,247.184678822
183.182,246.835537359
183.197,246.433620321
183.212,245.962569726
183.227,245.401221274
183.242,244.724248827
183.257,243.9085065
183.367,244.109181321
183.382,244.883521692
183.397,245.524011265
183.412,246.055583832
183.427,246.502745206
183.442,246.885396672
183.457,247.218779064
183.472,247.514362833
183.487,247.780769368
183.502,248.024513236
183.517,248.250556015
183.532,248.462708957
183.547,248.663924007
183.562,248.856504855
183.577,249.042261173
183.592,249.22262242
183.607,249.398722725
183.622,249.571464847
183.637,249.741568903
183.652,249.909609835
183.667,250.076046503
183.682,250.241244467
183.697,250.405493971
183.712,250.569024245
183.727,250.732014951
183.742,250.894605398
183.757,251.056902004
183.772,251.218984363
183.787,251.380910205
183.802,251.542719449
183.817,251.70443755
183.832,251.866078245
183.847,252.027645831
183.862,252.189137033
183.877,252.350542577
183.892,252.511848463
183.907,252.673037041
183.922,252.834087899
183.937,252.994978585
183.952,253.155685223
183.967,253.316183002
183.982,253.476446593
183.997,253.636450481
184.012,253.796169241
184.027,253.955577752
184.042,254.114651386
184.057,254.273366138
184.072,254.431698742
184.087,254.589626755
184.102,254.747128618
184.117,254.904183702
184.132,255.060772337
184.147,255.216875834
184.162,255.372476487
184.177,255.527557574
184.192,255.68210335
184.207,255.836099034
184.222,255.989530787
184.237,256.142385691
184.252,256.294651732
184.267,256.446317758
184.282,256.597373463
184.297,256.747809354
184.312,256.897616712
184.327,257.046787576
184.342,257.195314695
184.357,257.343191506
184.372,257.490412104
184.387,257.636971201
184.402,257.782864108
184.417,257.928086694
184.432,258.072635362
184.447,258.21650702
184.462,258.359699055
184.477,258.5022093
184.492,258.644036014
184.507,258.785177853
184.522,258.925633849
184.537,259.065403384
184.552,259.204486166
184.56,259.278382839
184.567,259.342882213
184.582,259.480591831
184.597,259.617615586
184.612,259.753954299
184.627,259.889609016
184.642,260.024580997
184.657,260.158871701
184.672,260.292482767
184.687,260.425416
184.702,260.557673359
184.717,260.689256944
184.732,260.820168981
184.747,260.950411815
184.762,261.079987892
184.777,261.208899757
184.792,261.337150041
184.807,261.464741447
184.822,261.591676752
184.837,261.717958789
184.852,261.843590447
184.867,261.96857466
184.882,262.092914401
184.897,262.216612679
184.912,262.33967253
184.927,262.462097016
184.942,262.583889218
184.957,262.705052228
184.972,262.825589154
184.987,262.94550311
185.002,263.064797213
185.017,263.183474582
185.032,263.301538337
185.047,263.418991592
185.062,263.535837458
185.077,263.652079034
185.092,263.767719417
185.107,263.882761685
185.122,263.997208911
185.137,264.111064152
185.152,264.224330451
185.167,264.337010838
185.182,264.449108326
185.197,264.560625911
185.212,264.671566578
185.227,264.781933289
185.242,264.891728992
185.257,265.00095662
185.272,265.109619087
185.287,265.217719288
185.302,265.325260105
185.31,265.382387472
185.317,265.432244402
185.332,265.538675026
185.347,265.644554809
185.362,265.749886564
185.377,265.854673092
185.392,265.958917177
185.407,266.062621589
185.422,266.165789081
185.437,266.268422397
185.452,266.370524261
185.467,266.472097388
185.482,266.573144479
185.497,266.673668224
185.512,266.773671298
185.527,266.873156366
185.542,266.972126083
185.557,267.070583093
185.572,267.168530029
185.587,267.265969515
185.602,267.362904164
185.617,267.459336581
185.632,267.555269364
185.647,267.650705099
185.662,267.745646368
185.677,267.840095743
185.692,267.934055788
185.707,268.027529062
185.722,268.120518117
185.737,268.213025498
185.752,268.305053742
185.767,268.396605384
185.782,268.487682948
185.797,268.578288957
185.812,268.668425928
185.827,268.758096369
185.842,268.847302788
185.857,268.936047682
185.872,269.02433355
185.887,269.112162881
185.902,269.199538162
185.917,269.286461872
185.932,269.37293649
185.947,269.458964486
185.96,269.533162724
185.962,269.544548329
185.977,269.629690482
185.992,269.714393403
186.007,269.798659545
186.022,269.882491358
186.037,269.965891287
186.052,270.048861771
186.06,270.09293794
186.067,270.131405244
186.082,270.213524137
186.097,270.295220876
186.112,270.37649788
186.127,270.457357564
186.142,270.537802338
186.157,270.617834606
186.172,270.697456768
186.187,270.776671215
186.202,270.855480337
186.217,270.933886513
186.232,271.011892121
186.247,271.089499528
186.262,271.166711098
186.277,271.243529187
186.292,271.319956145
186.307,271.395994314
186.322,271.471646031
186.337,271.546913623
186.352,271.621799412
186.367,271.696305711
186.382,271.770434826
186.397,271.844189055
186.412,271.917570687
186.427,271.990582004
186.442,272.063225278
186.457,272.135502773
186.472,272.207416745
186.487,272.278969441
186.502,272.350163094
186.517,272.420999936
186.532,272.491482183
186.547,272.561612043
186.562,272.631391714
186.577,272.700823383
186.592,272.769909228
186.607,272.838651417
186.622,272.907052106
186.637,272.975113439
186.652,273.042837551
186.667,273.110226565
186.682,273.177282593
186.697,273.244007734
186.71,273.301570154
186.712,273.310404079
186.727,273.376473701
186.742,273.442218667
186.757,273.507641028
186.772,273.572742825
186.787,273.637526084
186.802,273.701992821
186.817,273.766145038
186.832,273.829984723
186.847,273.893513852
186.862,273.956734389
186.877,274.019648282
186.892,274.082257468
186.907,274.144563869
186.922,274.206569395
186.937,274.268275939
186.952,274.329685383
186.967,274.390799594
186.982,274.451620424
186.997,274.512149712
187.012,274.572389284
187.027,274.632340948
187.042,274.692006499
187.057,274.751387719
187.072,274.810486372
187.087,274.869304212
187.102,274.927842974
187.117,274.986104378
187.132,275.044090133
187.147,275.101801928
187.162,275.159241441
187.177,275.216410333
187.192,275.273310248
187.207,275.329942818
187.222,275.386309658
187.237,275.442412367
187.252,275.498252531
187.267,275.553831716
187.282,275.609151478
187.297,275.664213354
187.312,275.719018867
187.327,275.773569521
187.342,275.827866811
187.357,275.881912208
187.372,275.935707176
187.387,275.989253156
187.402,276.042551579
187.417,276.095603856
187.432,276.148411384
187.447,276.200975547
187.46,276.246335353
187.462,276.253297708
187.477,276.305379218
187.492,276.357221413
187.507,276.408825611
187.522,276.460193115
187.537,276.511325213
187.552,276.562223177
187.567,276.612888265
187.582,276.663321717
187.597,276.71352476
187.612,276.763498603
187.627,276.813244442
187.642,276.862763456
187.657,276.912056811
187.672,276.961125654
187.687,277.00997112
187.702,277.058594327
187.717,277.106996381
187.732,277.155178369
187.747,277.203141365
187.762,277.250886429
187.777,277.298414603
187.792,277.34572692
187.807,277.392824391
187.822,277.439708018
187.837,277.486378787
187.852,277.532837668
187.867,277.579085619
187.882,277.625123583
187.897,277.670952486
187.912,277.716573245
187.927,277.76198676
187.942,277.807193916
187.957,277.852195588
187.972,277.896992633
187.987,277.941585898
188.002,277.985976215
188.017,278.030164401
188.032,278.074151262
188.047,278.117937592
188.062,278.161524168
188.077,278.204911757
188.092,278.248101113
188.107,278.291092976
188.122,278.333888075
188.137,278.376487124
188.152,278.418890828
188.167,278.461099879
188.182,278.503114954
188.197,278.54493672
188.21,278.581026395
188.212,278.586565835
188.227,278.62800294
188.242,278.669248669
188.257,278.710303642
188.272,278.751168467
188.287,278.791843745
188.302,278.832330061
188.317,278.872627992
188.332,278.912738104
188.347,278.952660951
188.362,278.992397079
188.377,279.031947021
188.392,279.071311301
188.407,279.110490433
188.422,279.149484923
188.437,279.188295263
188.452,279.226921939
188.467,279.265365426
188.482,279.303626191
188.497,279.341704688
188.512,279.379601369
188.527,279.417316669
188.542,279.454851021
188.557,279.492204846
188.572,279.529378556
188.587,279.566372559
188.602,279.603187248
188.617,279.639823015
188.632,279.67628024
188.647,279.712559298
188.66,279.743857312
188.662,279.748660552
188.677,279.784584363
188.692,279.820331081
188.707,279.855901052
188.722,279.891294611
188.737,279.92651209
