# 48698 WSSS Singapore Observations at 12Z 15 Feb 2019
Frequency [GHz],TB
175.31,276.470535478
175.322,276.453163183
175.337,276.431403109
175.352,276.409593179
175.367,276.387733251
175.382,276.365823201
175.397,276.343862827
175.412,276.321852036
175.427,276.299790627
175.442,276.27767845
175.457,276.25551539
175.472,276.233301229
175.487,276.211035848
175.502,276.188719087
175.517,276.16635076
175.532,276.143930743
175.547,276.121458842
175.562,276.098934902
175.577,276.076358768
175.592,276.053730283
175.607,276.03104925
175.622,276.008315549
175.637,275.985528975
175.652,275.96268935
175.667,275.939796553
175.682,275.916850377
175.697,275.893850667
175.712,275.870797229
175.727,275.847689918
175.742,275.824528528
175.757,275.801312925
175.772,275.778042907
175.787,275.754718289
175.802,275.731338903
175.817,275.707904572
175.832,275.684415118
175.847,275.660870347
175.862,275.637270086
175.877,275.613614177
175.892,275.589902386
175.907,275.566134547
175.922,275.5423105
175.937,275.518429999
175.952,275.494492917
175.967,275.470499052
175.982,275.446448191
175.997,275.42234014
176.012,275.398174736
176.027,275.373951755
176.042,275.349671005
176.057,275.325332321
176.072,275.30093549
176.087,275.276480316
176.102,275.251966554
176.117,275.227394083
176.132,275.202762632
176.147,275.178072046
176.162,275.153322094
176.177,275.128512568
176.192,275.103643296
176.207,275.078714041
176.222,275.053724612
176.237,275.028674766
176.252,275.003564341
176.267,274.978393088
176.282,274.953160809
176.297,274.927867299
176.31,274.905896537
176.312,274.902512325
176.327,274.877095681
176.342,274.851617117
176.357,274.826076496
176.372,274.800473518
176.387,274.774807979
176.402,274.749079683
176.417,274.723288382
176.432,274.69743387
176.447,274.671515912
176.46,274.649002171
176.462,274.645534277
176.477,274.619488735
176.492,274.59337905
176.507,274.567205017
176.522,274.54096638
176.537,274.514662907
176.552,274.488294377
176.567,274.46186056
176.582,274.435361171
176.597,274.408796026
176.612,274.382164867
176.627,274.355467452
176.642,274.328703526
176.657,274.301872854
176.672,274.274975191
176.687,274.248010288
176.702,274.220977886
176.717,274.193877766
176.732,274.166709649
176.747,274.139473321
176.762,274.112168458
176.777,274.084794884
176.792,274.057352266
176.807,274.02984041
176.822,274.00225905
176.837,273.974607881
176.852,273.946886668
176.867,273.919095152
176.882,273.891233051
176.897,273.863300123
176.912,273.83529609
176.927,273.807220645
176.942,273.779073551
176.957,273.750854559
176.972,273.722563347
176.987,273.694199666
177.002,273.665763226
177.017,273.63725376
177.032,273.608670986
177.047,273.580014605
177.062,273.551284335
177.077,273.522479919
177.092,273.493601018
177.107,273.464647395
177.122,273.435618737
177.137,273.406514727
177.152,273.37733513
177.167,273.348079583
177.182,273.318747813
177.197,273.289339562
177.21,273.263790237
177.212,273.259854442
177.227,273.230292233
177.242,273.200652581
177.257,273.170935182
177.272,273.141139761
177.287,273.111265949
177.302,273.081313487
177.31,273.065306562
177.317,273.051282027
177.332,273.021171279
177.347,272.990980885
177.362,272.960710574
177.377,272.930359969
177.392,272.899928774
177.407,272.869416664
177.422,272.838823271
177.437,272.808148323
177.452,272.777391447
177.467,272.746552314
177.482,272.715630584
177.497,272.684625907
177.512,272.653537981
177.527,272.622366395
177.542,272.591110849
177.557,272.559770968
177.572,272.528346406
177.587,272.496836821
177.602,272.465241827
177.617,272.43356108
177.632,272.401794202
177.647,272.369940862
177.66,272.342264373
177.662,272.338000646
177.677,272.305973219
177.692,272.273858164
177.707,272.241655142
177.722,272.209363762
177.737,272.176983622
177.752,272.144514365
177.767,272.111955592
177.782,272.079306893
177.797,272.04656787
177.812,272.013738152
177.827,271.980817304
177.842,271.947804975
177.857,271.914700672
177.872,271.881504057
177.887,271.848214669
177.902,271.814832114
177.917,271.781355957
177.932,271.747785771
177.947,271.714121118
177.96,271.684868362
177.962,271.680361587
177.977,271.646506711
177.992,271.612556059
178.007,271.57850918
178.022,271.544365638
178.037,271.510124968
178.052,271.475786712
178.067,271.441350399
178.082,271.406815558
178.097,271.372181758
178.112,271.337448446
178.127,271.302615203
178.142,271.267681519
178.157,271.232646908
178.172,271.197510872
178.187,271.162272901
178.202,271.126932501
178.217,271.091489131
178.232,271.055942332
178.247,271.020291499
178.262,270.984536178
178.277,270.948675785
178.292,270.9127098
178.307,270.87663768
178.322,270.840458885
178.337,270.804172804
178.352,270.767778915
178.367,270.731276638
178.382,270.694665392
178.397,270.657944597
178.41,270.626030853
178.412,270.62111366
178.427,270.584172003
178.442,270.547118957
178.457,270.509953965
178.472,270.472676395
178.487,270.435285599
178.502,270.397780975
178.517,270.36016186
178.532,270.322427582
178.547,270.284577529
178.562,270.24661098
178.577,270.208527294
178.592,270.170325768
178.607,270.132005711
178.622,270.093566431
178.637,270.055007202
178.652,270.01632729
178.667,269.977526009
178.682,269.938602555
178.697,269.899556213
178.712,269.860386213
178.727,269.821091785
178.742,269.781672123
178.757,269.742126471
178.772,269.702453996
178.787,269.662653876
178.802,269.622725313
178.817,269.58266745
178.832,269.542479419
178.847,269.502160377
178.862,269.461709416
178.877,269.421125683
178.892,269.380408271
178.907,269.339556222
178.922,269.298568646
178.937,269.257444589
178.952,269.2161831
178.967,269.174783172
178.982,269.133243858
178.997,269.091564132
179.012,269.049743004
179.027,269.007779395
179.042,268.965672298
179.057,268.923420616
179.072,268.881023285
179.087,268.838479216
179.102,268.795787269
179.117,268.752946319
179.132,268.709955221
179.147,268.666812803
179.16,268.629299376
179.162,268.623517859
179.177,268.580069212
179.192,268.53646562
179.207,268.492705832
179.222,268.448788601
179.237,268.404712621
179.252,268.3604766
179.267,268.316079208
179.282,268.271519096
179.297,268.226794869
179.312,268.181905182
179.327,268.136848567
179.342,268.091623612
179.357,268.046228867
179.372,268.000662807
179.387,267.954923953
179.402,267.909010759
179.417,267.862921674
179.432,267.816655096
179.447,267.770209421
179.462,267.723582991
179.477,267.676774161
179.492,267.629781244
179.507,267.582602506
179.522,267.535236192
179.537,267.487680531
179.552,267.439933721
179.567,267.391993894
179.582,267.343859215
179.597,267.295527756
179.612,267.246997595
179.627,267.198266792
179.642,267.149333316
179.657,267.100195161
179.672,267.050850261
179.687,267.001296505
179.702,266.951531777
179.717,266.901553898
179.732,266.851360682
179.747,266.800949869
179.762,266.750319213
179.777,266.699466386
179.792,266.648389018
179.807,266.597084736
179.822,266.545551131
179.837,266.493785712
179.852,266.44178596
179.867,266.389549345
179.882,266.337073264
179.897,266.284355096
179.91,266.238468108
179.912,266.231392152
179.927,266.178181729
179.942,266.124721025
179.957,266.071007281
179.972,266.017037598
179.987,265.962809119
180.002,265.908318848
180.017,265.853563841
180.032,265.798541003
180.047,265.7432473
180.062,265.687679557
180.077,265.631834577
180.092,265.575709149
180.107,265.51929996
180.122,265.462603663
180.137,265.405616889
180.152,265.348336137
180.167,265.290757938
180.182,265.232878772
180.197,265.17469496
180.212,265.116202842
180.227,265.057398711
180.242,264.998278779
180.257,264.938839196
180.272,264.879076077
180.287,264.818985433
180.302,264.758563258
180.317,264.697805464
180.332,264.636707916
180.347,264.575266406
180.362,264.513476635
180.377,264.451334313
180.392,264.388835024
180.407,264.325974262
180.422,264.262747563
180.437,264.1991503
180.452,264.135177799
180.467,264.070825321
180.482,264.006088077
180.497,263.940961215
180.512,263.87543973
180.527,263.809518664
180.542,263.743192913
180.557,263.676457313
180.56,263.663060544
180.572,263.609306617
180.587,263.541735541
180.602,263.473738702
180.617,263.40531062
180.632,263.336445756
180.647,263.267138545
180.66,263.206710074
180.662,263.197383275
180.677,263.127174164
180.692,263.056505364
180.707,262.98537095
180.722,262.913764958
180.737,262.841681242
180.752,262.769113663
180.767,262.696055959
180.782,262.622501795
180.797,262.548444782
180.812,262.473878382
180.827,262.398796021
180.842,262.323191021
180.857,262.247056627
180.872,262.170386029
180.887,262.093172257
180.902,262.015408287
180.917,261.937087052
180.932,261.858201349
180.947,261.778743881
180.962,261.698707305
180.977,261.618084158
180.992,261.536866897
181.007,261.455047886
181.022,261.372619401
181.037,261.289573637
181.052,261.205902689
181.067,261.121598575
181.082,261.03665323
181.097,260.951058465
181.112,260.864806038
181.127,260.777887639
181.142,260.690294789
181.157,260.602019003
181.172,260.513051687
181.187,260.423384137
181.202,260.333007584
181.217,260.241913224
181.232,260.150092052
181.247,260.05753509
181.262,259.964233258
181.277,259.870177351
181.292,259.775358121
181.307,259.679766299
181.31,259.660554374
181.322,259.583392422
181.337,259.486227041
181.352,259.388260642
181.367,259.289483611
181.382,259.189886267
181.397,259.089458914
181.412,258.988191781
181.427,258.886074975
181.442,258.783098691
181.457,258.679252913
181.472,258.574527767
181.487,258.468913165
181.502,258.362399114
181.517,258.2549755
181.532,258.146632286
181.547,258.037359338
181.562,257.927146526
181.577,257.815983755
181.592,257.703860893
181.607,257.590767839
181.622,257.476694515
181.637,257.361630825
181.652,257.245566772
181.667,257.128492349
181.682,257.010397648
181.697,256.891272764
181.712,256.771107956
181.727,256.649893467
181.742,256.527619721
181.757,256.404277194
181.772,256.279856487
181.787,256.154348378
181.802,256.027743765
181.817,255.90003372
181.832,255.771209494
181.847,255.641262531
181.862,255.510184495
181.877,255.377967255
181.892,255.244602971
181.907,255.110084073
181.922,254.974403241
181.937,254.837553525
181.952,254.699528238
181.967,254.560321125
181.982,254.419926293
181.997,254.27833823
182.012,254.135551865
182.027,253.991562646
182.042,253.846366463
182.057,253.699959721
182.06,253.670532821
182.072,253.552339423
182.087,253.403503127
182.102,253.253449028
182.117,253.102176015
182.132,252.949683588
182.147,252.795972047
182.162,252.641042479
182.177,252.484896763
182.192,252.327537612
182.207,252.168968722
182.222,252.00919467
182.237,251.848221138
182.252,251.686054737
182.267,251.522703331
182.282,251.35817586
182.297,251.19248254
182.312,251.025634888
182.327,250.857645747
182.342,250.688529417
182.357,250.518301721
182.372,250.34698002
182.387,250.174583322
182.402,250.001132425
182.417,249.826649925
182.432,249.651160307
182.447,249.474690097
182.462,249.297267916
182.477,249.118924617
182.492,248.939693367
182.507,248.759609737
182.522,248.578711917
182.537,248.397040745
182.552,248.21463988
182.567,248.031555936
182.582,247.847838662
182.597,247.663541021
182.612,247.478719428
182.627,247.293433846
182.642,247.107748057
182.657,246.921729729
182.672,246.735450692
182.687,246.548987139
182.702,246.362419725
182.717,246.175833974
182.732,245.989320358
182.747,245.802974512
182.762,245.616897668
182.777,245.431196651
182.792,245.245984346
182.807,245.061379851
182.822,244.877508812
182.837,244.694503683
182.852,244.51250399
182.867,244.331656721
182.882,244.152116561
182.897,243.974046188
182.912,243.797616647
182.927,243.623007681
182.942,243.450408037
182.957,243.280015813
182.972,243.11203895
182.987,242.946695469
183.002,242.784214062
183.017,242.624834653
183.032,242.468808985
183.047,242.316401613
183.062,242.167891025
183.077,242.023571309
183.092,241.88375453
183.107,241.748773901
183.122,241.618988498
183.137,241.494789662
183.152,241.376609847
183.167,241.264934332
183.182,241.160315996
183.197,241.063392802
183.212,240.974905659
183.227,240.895712208
183.242,240.826787915
183.257,240.769202262
183.367,240.767122747
183.382,240.823623505
183.397,240.891205876
183.412,240.968821814
183.427,241.055525775
183.442,241.150491068
183.457,241.253004691
183.472,241.362452068
183.487,241.478298806
183.502,241.600074063
183.517,241.727356466
183.532,241.859763178
183.547,241.99694177
183.562,242.138564338
183.577,242.284323189
183.592,242.433927953
183.607,242.587103312
183.622,242.743587685
183.637,242.903131978
183.652,243.065498818
183.667,243.230461921
183.682,243.39780556
183.697,243.567324084
183.712,243.738821515
183.727,243.912111295
183.742,244.087015741
183.757,244.263365839
183.772,244.441000914
183.787,244.619768211
183.802,244.799522702
183.817,244.980126686
183.832,245.16144953
183.847,245.343367386
183.862,245.525762859
183.877,245.708524805
183.892,245.891548001
183.907,246.074732841
183.922,246.257985254
183.937,246.441216254
183.952,246.624341836
183.967,246.807282705
183.982,246.989964088
183.997,247.17231549
184.012,247.354270492
184.027,247.535766574
184.042,247.716744974
184.057,247.897150416
184.072,248.076931025
184.087,248.25603814
184.102,248.434426112
184.117,248.612052291
184.132,248.788876711
184.147,248.964862105
184.162,249.139973693
184.177,249.314179122
184.192,249.487448248
184.207,249.659753151
184.222,249.831067987
184.237,250.001368885
184.252,250.170633793
184.267,250.338842458
184.282,250.505976385
184.297,250.672018627
184.312,250.836953801
184.327,251.00076801
184.342,251.163448708
184.357,251.324984703
184.372,251.485366067
184.387,251.644584059
184.402,251.802631073
184.417,251.959500632
184.432,252.115187231
184.447,252.269686357
184.462,252.422994471
184.477,252.575108905
184.492,252.726027738
184.507,252.875749971
184.522,253.024275288
184.537,253.171604093
184.552,253.317737492
184.56,253.395187081
184.567,253.462677183
184.582,253.606425519
184.597,253.748985366
184.612,253.890360174
184.627,254.030553881
184.642,254.169570911
184.657,254.307416136
184.672,254.444094845
184.687,254.579612687
184.702,254.713975764
184.717,254.847190446
184.732,254.979263504
184.747,255.110201915
184.762,255.240013035
184.777,255.368704406
184.792,255.496283861
184.807,255.622759436
184.822,255.748139391
184.837,255.872432139
184.852,255.995646334
184.867,256.117790706
184.882,256.238874227
184.897,256.358905885
184.912,256.477894884
184.927,256.595850499
184.942,256.712782096
184.957,256.828699099
184.972,256.943611055
184.987,257.057527566
185.002,257.170458231
185.017,257.282412721
185.032,257.393400805
185.047,257.503432156
185.062,257.612516575
185.077,257.720663801
185.092,257.827883632
185.107,257.934185823
185.122,258.039580111
185.137,258.144076273
185.152,258.247684001
185.167,258.350413026
185.182,258.452272963
185.197,258.553273491
185.212,258.653424177
185.227,258.752734581
185.242,258.851214205
185.257,258.948872455
185.272,259.045718785
185.287,259.141762488
185.302,259.237012844
185.31,259.287491852
185.317,259.33147911
185.332,259.425170378
185.347,259.518095785
185.362,259.610264296
185.377,259.701684863
185.392,259.792366371
185.407,259.882317607
185.422,259.97154725
185.437,260.060063984
185.452,260.147876364
185.467,260.234992852
185.482,260.321421846
185.497,260.407171674
185.512,260.49225056
185.527,260.576666651
185.542,260.660428044
185.557,260.743542705
185.572,260.826018527
185.587,260.907863334
185.602,260.989084867
185.617,261.069690752
185.632,261.149688555
185.647,261.229085743
185.662,261.307889743
185.677,261.386107818
185.692,261.463747197
185.707,261.540815014
185.722,261.617318356
185.737,261.693264141
185.752,261.768659273
185.767,261.843510571
185.782,261.917824714
185.797,261.99160836
185.812,262.064868051
185.827,262.137610268
185.842,262.209841398
185.857,262.281567737
185.872,262.352795526
185.887,262.4235309
185.902,262.493779928
185.917,262.563548624
185.932,262.632842872
185.947,262.701668527
185.96,262.760942834
185.962,262.770031336
185.977,262.837936969
185.992,262.905391095
186.007,262.972399159
186.022,263.038966664
186.037,263.105099012
186.052,263.170801484
186.06,263.205668868
186.067,263.236079353
186.082,263.300937759
186.097,263.365381793
186.112,263.429416532
186.127,263.493046882
186.142,263.556277786
186.157,263.61911403
186.172,263.681560395
186.187,263.743621546
186.202,263.80530211
186.217,263.866606683
186.232,263.927539725
186.247,263.988105681
186.262,264.048308922
186.277,264.108153778
186.292,264.167644445
186.307,264.226785138
186.322,264.285579982
186.337,264.344033067
186.352,264.40214836
186.367,264.459929819
186.382,264.517381358
186.397,264.574506808
186.412,264.63130994
186.427,264.687794497
186.442,264.743964116
186.457,264.799822463
186.472,264.855373083
186.487,264.910619483
186.502,264.965565112
186.517,265.020213403
186.532,265.074567703
186.547,265.128631324
186.562,265.182407523
186.577,265.235899522
186.592,265.289110494
186.607,265.342043517
186.622,265.3947017
186.637,265.447088049
186.652,265.499205539
186.667,265.551057128
186.682,265.602645671
186.697,265.653974031
186.71,265.698250329
186.712,265.705045025
186.727,265.755861385
186.742,265.806425863
186.757,265.856741112
186.772,265.906809773
186.787,265.956634452
186.802,266.006217712
186.817,266.055562053
186.832,266.104669963
186.847,266.153543893
186.862,266.202186223
186.877,266.250599359
186.892,266.298785588
186.907,266.346747244
186.922,266.39448659
186.937,266.442005816
186.952,266.489307141
186.967,266.536392712
186.982,266.583264688
186.997,266.62992511
187.012,266.676376066
187.027,266.722619591
187.042,266.768657674
187.057,266.81449227
187.072,266.860125346
187.087,266.905558767
187.102,266.950794454
187.117,266.995834228
187.132,267.040679921
187.147,267.085333336
187.162,267.129796202
187.177,267.174070285
187.192,267.218157312
187.207,267.262058916
187.222,267.305776809
187.237,267.349312614
187.252,267.392667892
187.267,267.435844298
187.282,267.478843353
187.297,267.521666582
187.312,267.564315515
187.327,267.606791666
187.342,267.64909644
187.357,267.691231341
187.372,267.733197776
187.387,267.774997146
187.402,267.816630805
187.417,267.858100125
187.432,267.899406478
187.447,267.940551164
187.46,267.976080121
187.462,267.981535472
187.477,268.022360687
187.492,268.063028051
187.507,268.103538839
187.522,268.143894257
187.537,268.184095516
187.552,268.224143785
187.567,268.264040271
187.582,268.303786095
187.597,268.343382403
187.612,268.382830312
187.627,268.42213095
187.642,268.461285359
187.657,268.50029463
187.672,268.539159822
187.687,268.577881988
187.702,268.61646214
187.717,268.65490129
187.732,268.693200395
187.747,268.731360512
187.762,268.76938258
187.777,268.807267529
187.792,268.845016321
187.807,268.882629876
187.822,268.920109114
187.837,268.957454964
187.852,268.994668269
187.867,269.031749921
187.882,269.068700809
187.897,269.105521766
187.912,269.142213645
187.927,269.178777259
187.942,269.215213452
187.957,269.251523011
187.972,269.28770675
187.987,269.323765458
188.002,269.359699911
188.017,269.395510855
188.032,269.431199063
188.047,269.4667653
188.062,269.50221027
188.077,269.53753472
188.092,269.572739377
188.107,269.6078249
188.122,269.642792089
188.137,269.677641538
188.152,269.712373988
188.167,269.746990068
188.182,269.781490507
188.197,269.815875906
188.21,269.845584068
188.212,269.850146942
188.227,269.884304257
188.242,269.918348483
188.257,269.952280245
188.272,269.986100178
188.287,270.019808872
188.302,270.053406947
188.317,270.086895004
188.332,270.120273609
188.347,270.15354336
188.362,270.186704872
188.377,270.219758674
188.392,270.252705339
188.407,270.285545427
188.422,270.31827951
188.437,270.350908086
188.452,270.383431757
188.467,270.415851023
188.482,270.448166434
188.497,270.480378479
188.512,270.512487706
188.527,270.544494598
188.542,270.57639972
188.557,270.608203495
188.572,270.639906493
188.587,270.671509164
188.602,270.703011995
188.617,270.734415486
188.632,270.765720104
188.647,270.796926324
188.66,270.823892475
188.662,270.828034605
188.677,270.859045436
188.692,270.889959238
188.707,270.920776512
188.722,270.951497664
188.737,270.98212316
