# 10410 EDZE Essen Observations at 12Z 17 Nov 2019
Frequency [GHz],TB
175.31,256.341418026
175.322,256.389462775
175.337,256.449420137
175.352,256.509266205
175.367,256.568999072
175.382,256.628616819
175.397,256.688117515
175.412,256.747499216
175.427,256.806759964
175.442,256.865897791
175.457,256.924910714
175.472,256.983796739
175.487,257.042553859
175.502,257.101180053
175.517,257.159673289
175.532,257.218031521
175.547,257.276252693
175.562,257.334334734
175.577,257.39227556
175.592,257.450073076
175.607,257.507725174
175.622,257.565229734
175.637,257.622584622
175.652,257.679787692
175.667,257.736836788
175.682,257.793729737
175.697,257.850464357
175.712,257.907038452
175.727,257.963449816
175.742,258.019696227
175.757,258.075775453
175.772,258.13168525
175.787,258.18742336
175.802,258.242987516
175.817,258.298375434
175.832,258.353584822
175.847,258.408613376
175.862,258.463458776
175.877,258.518118694
175.892,258.572590789
175.907,258.626872708
175.922,258.680962085
175.937,258.734856545
175.952,258.788553699
175.967,258.842051147
175.982,258.895346478
175.997,258.94843727
176.012,259.001321087
176.027,259.053995486
176.042,259.106458008
176.057,259.158706187
176.072,259.210737544
176.087,259.262549588
176.102,259.31413982
176.117,259.365505728
176.132,259.416644789
176.147,259.467554473
176.162,259.518232234
176.177,259.56867552
176.192,259.618881767
176.207,259.668848401
176.222,259.718572838
176.237,259.768052486
176.252,259.817284739
176.267,259.866266985
176.282,259.914996601
176.297,259.963470955
176.31,260.005273541
176.312,260.011687405
176.327,260.0596433
176.342,260.107335983
176.357,260.154762782
176.372,260.201921023
176.387,260.248808018
176.402,260.295421074
176.417,260.341757489
176.432,260.387814552
176.447,260.433589545
176.46,260.473030935
176.462,260.479079741
176.477,260.524282408
176.492,260.569194804
176.507,260.61381418
176.522,260.658137782
176.537,260.702162848
176.552,260.745886608
176.567,260.789306288
176.582,260.832419106
176.597,260.875222274
176.612,260.917712999
176.627,260.959888482
176.642,261.001745918
176.657,261.043282498
176.672,261.084495406
176.687,261.125381824
176.702,261.165938928
176.717,261.206163888
176.732,261.246053873
176.747,261.285606046
176.762,261.324817567
176.777,261.363685594
176.792,261.402207279
176.807,261.440379774
176.822,261.478200227
176.837,261.515665784
176.852,261.552773589
176.867,261.589520783
176.882,261.625904509
176.897,261.661921905
176.912,261.697570109
176.927,261.73284626
176.942,261.767747494
176.957,261.80227095
176.972,261.836413766
176.987,261.870173078
177.002,261.903546027
177.017,261.936529753
177.032,261.969121397
177.047,262.001318102
177.062,262.033117016
177.077,262.064515284
177.092,262.095510059
177.107,262.126098495
177.122,262.156277747
177.137,262.186044979
177.152,262.215397355
177.167,262.244332044
177.182,262.272846222
177.197,262.300937069
177.21,262.324937864
177.212,262.328601768
177.227,262.355837512
177.242,262.382641499
177.257,262.409010932
177.272,262.434943022
177.287,262.460434988
177.302,262.485484056
177.31,262.498661508
177.317,262.510087461
177.332,262.534242445
177.347,262.55794626
177.362,262.581196168
177.377,262.603989439
177.392,262.626323354
177.407,262.648195204
177.422,262.669602293
177.437,262.690541932
177.452,262.711011448
177.467,262.731008178
177.482,262.750529472
177.497,262.769572692
177.512,262.788135216
177.527,262.806214431
177.542,262.823807743
177.557,262.84091257
177.572,262.857526347
177.587,262.87364652
177.602,262.889270557
177.617,262.904395937
177.632,262.919020159
177.647,262.933140737
177.66,262.944969273
177.662,262.946755205
177.677,262.959861112
177.692,262.972456028
177.707,262.98453754
177.722,262.996103255
177.737,263.0071508
177.752,263.017677821
177.767,263.027681986
177.782,263.037160983
177.797,263.046112522
177.812,263.054534334
177.827,263.062424172
177.842,263.069779814
177.857,263.076599058
177.872,263.082879728
177.887,263.088619671
177.902,263.093816756
177.917,263.098468881
177.932,263.102573967
177.947,263.10612996
177.96,263.108766097
177.962,263.109134832
177.977,263.111586584
177.992,263.11348324
178.007,263.114822854
178.022,263.115603506
178.037,263.115823304
178.052,263.115480387
178.067,263.114572918
178.082,263.113099094
178.097,263.111057137
178.112,263.108445303
178.127,263.105261875
178.142,263.101505168
178.157,263.097173528
178.172,263.092265332
178.187,263.086778989
178.202,263.080712939
178.217,263.074065655
178.232,263.066835643
178.247,263.059021441
178.262,263.05062162
178.277,263.041634785
178.292,263.032059576
178.307,263.021894665
178.322,263.011138761
178.337,262.999790604
178.352,262.987848971
178.367,262.975312675
178.382,262.962180564
178.397,262.94845152
178.41,262.936069325
178.412,262.934124461
178.427,262.919198344
178.442,262.903672159
178.457,262.887544934
178.472,262.870815733
178.487,262.853483658
178.502,262.835547846
178.517,262.817007472
178.532,262.79786175
178.547,262.77810993
178.562,262.757751297
178.577,262.736785179
178.592,262.715210936
178.607,262.69302797
178.622,262.67023572
178.637,262.646833661
178.652,262.622821308
178.667,262.598198213
178.682,262.572963966
178.697,262.547118196
178.712,262.520660568
178.727,262.493590788
178.742,262.465908598
178.757,262.437613777
178.772,262.408706144
178.787,262.379185554
178.802,262.349051902
178.817,262.318305118
178.832,262.28694517
178.847,262.254972065
178.862,262.222385846
178.877,262.189186593
178.892,262.155374423
178.907,262.12094949
178.922,262.085911983
178.937,262.05026213
178.952,262.014000194
178.967,261.977126471
178.982,261.939641298
178.997,261.901545042
179.012,261.862838108
179.027,261.823520935
179.042,261.783593997
179.057,261.743057801
179.072,261.701912889
179.087,261.660159835
179.102,261.617799247
179.117,261.574831766
179.132,261.531258066
179.147,261.487078849
179.16,261.448300969
179.162,261.442294854
179.177,261.396906848
179.192,261.350915629
179.207,261.304322026
179.222,261.257126896
179.237,261.209331129
179.252,261.160935639
179.267,261.111941374
179.282,261.062349305
179.297,261.012160433
179.312,260.961375787
179.327,260.909996419
179.342,260.85802341
179.357,260.805457866
179.372,260.752300916
179.387,260.698553716
179.402,260.644217444
179.417,260.589293303
179.432,260.533782516
179.447,260.477686333
179.462,260.421006019
179.477,260.363742868
179.492,260.305898188
179.507,260.247473311
179.522,260.188469586
179.537,260.128888384
179.552,260.068731091
179.567,260.007999114
179.582,259.946693876
179.597,259.884816816
179.612,259.822369391
179.627,259.759353073
179.642,259.695769349
179.657,259.631619721
179.672,259.566905706
179.687,259.501628834
179.702,259.435790648
179.717,259.369392705
179.732,259.302436574
179.747,259.234923835
179.762,259.166856079
179.777,259.098234911
179.792,259.029061944
179.807,258.959338803
179.822,258.88906712
179.837,258.81824854
179.852,258.746884714
179.867,258.674977306
179.882,258.602527983
179.897,258.529538423
179.91,258.465845118
179.912,258.456010314
179.927,258.381945349
179.942,258.307345228
179.957,258.23221166
179.972,258.156546359
179.987,258.080351049
180.002,258.003627457
180.017,257.926377319
180.032,257.848602377
180.047,257.770304378
180.062,257.691485078
180.077,257.612146236
180.092,257.53228962
180.107,257.451917003
180.122,257.371030166
180.137,257.289630892
180.152,257.207720976
180.167,257.125302217
180.182,257.042376419
180.197,256.958945398
180.212,256.875010971
180.227,256.790574968
180.242,256.705639222
180.257,256.620205578
180.272,256.534275886
180.287,256.447852006
180.302,256.360935807
180.317,256.273529166
180.332,256.185633972
180.347,256.097252122
180.362,256.008385524
180.377,255.919036098
180.392,255.829205774
180.407,255.738896495
180.422,255.648110216
180.437,255.556848906
180.452,255.465114547
180.467,255.372909134
180.482,255.280234679
180.497,255.187093208
180.512,255.093486763
180.527,254.999417404
180.542,254.904887207
180.557,254.809898266
180.56,254.790845614
180.572,254.714452694
180.587,254.618552623
180.602,254.522200206
180.617,254.425397614
180.632,254.328147041
180.647,254.230450704
180.66,254.145421701
180.662,254.132310841
180.677,254.033729713
180.692,253.934709605
180.707,253.835252828
180.722,253.735361716
180.737,253.63503863
180.752,253.534285958
180.767,253.433106113
180.782,253.331501536
180.797,253.229474697
180.812,253.127028094
180.827,253.024164253
180.842,252.920885731
180.857,252.817195115
180.872,252.713095019
180.887,252.608588092
180.902,252.50367701
180.917,252.398364485
180.932,252.292653254
180.947,252.186546091
180.962,252.0800458
180.977,251.973155215
180.992,251.865877205
181.007,251.75821467
181.022,251.65017054
181.037,251.541747778
181.052,251.43294938
181.067,251.32377837
181.082,251.214237807
181.097,251.104330778
181.112,250.994060402
181.127,250.883429826
181.142,250.772442228
181.157,250.661100815
181.172,250.549408821
181.187,250.437369508
181.202,250.324986166
181.217,250.212262109
181.232,250.099200678
181.247,249.985805238
181.262,249.872079176
181.277,249.758025902
181.292,249.643648847
181.307,249.528951465
181.31,249.505973854
181.322,249.413937225
181.337,249.298609617
181.352,249.182972146
181.367,249.067028333
181.382,248.950781715
181.397,248.834235841
181.412,248.717394271
181.427,248.600260577
181.442,248.482838342
181.457,248.365131154
181.472,248.247142613
181.487,248.128876321
181.502,248.010335888
181.517,247.891524928
181.532,247.772447057
181.547,247.653105896
181.562,247.533505066
181.577,247.413648193
181.592,247.2935389
181.607,247.173180814
181.622,247.052577564
181.637,246.931732777
181.652,246.810650084
181.667,246.68933312
181.682,246.567785519
181.697,246.446010924
181.712,246.324012981
181.727,246.201795346
181.742,246.079361686
181.757,245.956715677
181.772,245.833861016
181.787,245.710801417
181.802,245.587540616
181.817,245.464082381
181.832,245.340430509
181.847,245.216588838
181.862,245.09256125
181.877,244.968351679
181.892,244.843964118
181.907,244.719402627
181.922,244.594671343
181.937,244.469774488
181.952,244.344716381
181.967,244.219501449
181.982,244.094134237
181.997,243.968619424
182.012,243.842961836
182.027,243.71716646
182.042,243.591238461
182.057,243.465183197
182.06,243.439957359
182.072,243.33900624
182.087,243.21271339
182.102,243.0863107
182.117,242.959804494
182.132,242.833201389
182.147,242.706508319
182.162,242.579732559
182.177,242.452881749
182.192,242.325963922
182.207,242.198987529
182.222,242.071961468
182.237,241.944895114
182.252,241.817798347
182.267,241.690681584
182.282,241.563555809
182.297,241.436432606
182.312,241.309324192
182.327,241.182243446
182.342,241.055203947
182.357,240.928220004
182.372,240.801306687
182.387,240.674479862
182.402,240.547756221
182.417,240.421153312
182.432,240.294689569
182.447,240.168384336
182.462,240.042257894
182.477,239.916331483
182.492,239.790627317
182.507,239.6651686
182.522,239.539979537
182.537,239.415085331
182.552,239.290512186
182.567,239.16628729
182.582,239.0424388
182.597,238.918995804
182.612,238.795988282
182.627,238.673447048
182.642,238.551403672
182.657,238.429890395
182.672,238.308940007
182.687,238.188585714
182.702,238.068860972
182.717,237.949799282
182.732,237.831433961
182.747,237.713797859
182.762,237.596923028
182.777,237.480840338
182.792,237.365579016
182.807,237.251166115
182.822,237.137625883
182.837,237.024979023
182.852,236.913241821
182.867,236.802425112
182.882,236.692533064
182.897,236.583561717
182.912,236.475497245
182.927,236.368313863
182.942,236.261971289
182.957,236.156411654
182.972,236.051555697
182.987,235.94729804
183.002,235.843501272
183.017,235.739988439
183.032,235.636533402
183.047,235.532848298
183.062,235.428566976
183.077,235.323222778
183.092,235.216218212
183.107,235.106782769
183.122,234.993913079
183.137,234.876286123
183.152,234.752130418
183.167,234.619029948
183.182,234.473617554
183.197,234.311081672
183.212,234.124349801
183.227,233.902704662
183.242,233.629432426
183.257,233.278131671
183.367,233.361956796
183.382,233.686835023
183.397,233.941549462
183.412,234.149631148
183.427,234.325977661
183.442,234.480205519
183.457,234.618710439
183.472,234.745875934
183.487,234.86479001
183.502,234.977681197
183.517,235.08619156
183.532,235.191552518
183.547,235.294701109
183.562,235.396358801
183.577,235.497086142
183.592,235.597321483
183.607,235.697408958
183.622,235.797619065
183.637,235.898164084
183.652,235.999209785
183.667,236.100884469
183.682,236.203286024
183.697,236.306487511
183.712,236.410541627
183.727,236.515484315
183.742,236.621337697
183.757,236.728112494
183.772,236.835810016
183.787,236.94442383
183.802,237.053941149
183.817,237.164344004
183.832,237.275610233
183.847,237.387714314
183.862,237.500628082
183.877,237.61432133
183.892,237.728762327
183.907,237.843918253
183.922,237.959755575
183.937,238.076240363
183.952,238.19333856
183.967,238.31101621
183.982,238.429239648
183.997,238.547975662
184.012,238.667191625
184.027,238.786855603
184.042,238.906936447
184.057,239.027403863
184.072,239.148228465
184.087,239.269381817
184.102,239.390836468
184.117,239.512565963
184.132,239.634544861
184.147,239.756748735
184.162,239.879154168
184.177,240.001738745
184.192,240.124481039
184.207,240.247360593
184.222,240.370357898
184.237,240.493454369
184.252,240.616632321
184.267,240.739874936
184.282,240.863166237
184.297,240.986491055
184.312,241.109835002
184.327,241.233184431
184.342,241.356526413
184.357,241.479848695
184.372,241.603139676
184.387,241.726388373
184.402,241.849584385
184.417,241.972717867
184.432,242.095779501
184.447,242.21876046
184.462,242.341652386
184.477,242.464447358
184.492,242.587137866
184.507,242.709716788
184.522,242.832177359
184.537,242.954513153
184.552,243.076718057
184.56,243.141838466
184.567,243.19878625
184.582,243.320712179
184.597,243.442490544
184.612,243.564116276
184.627,243.685584518
184.642,243.806890611
184.657,243.928030075
184.672,244.048998597
184.687,244.169792013
184.702,244.290406297
184.717,244.410837547
184.732,244.531081976
184.747,244.651135898
184.762,244.770995718
184.777,244.890657926
184.792,245.010119083
184.807,245.129375819
184.822,245.24842482
184.837,245.367262824
184.852,245.485886617
184.867,245.604293021
184.882,245.722478896
184.897,245.84044113
184.912,245.958176639
184.927,246.07568236
184.942,246.19295525
184.957,246.309992282
184.972,246.426790443
184.987,246.543346732
185.002,246.659658159
185.017,246.77572174
185.032,246.891534501
185.047,247.007093473
185.062,247.122395692
185.077,247.237438201
185.092,247.352218046
185.107,247.466732279
185.122,247.580977957
185.137,247.694952141
185.152,247.808651898
185.167,247.9220743
185.182,248.035216427
185.197,248.148075364
185.212,248.260648206
185.227,248.372932054
185.242,248.484924021
185.257,248.596621228
185.272,248.708020809
185.287,248.819119911
185.302,248.929915691
185.31,248.988881773
185.317,249.040405324
185.332,249.150585998
185.347,249.260454918
185.362,249.370009307
185.377,249.479246406
185.392,249.588163476
185.407,249.696757797
185.422,249.805026671
185.437,249.912967423
185.452,250.0205774
185.467,250.127853974
185.482,250.234794542
185.497,250.341396526
185.512,250.447657374
185.527,250.553574561
185.542,250.659145592
185.557,250.764367997
185.572,250.869239337
185.587,250.973757202
185.602,251.077919212
185.617,251.181723016
185.632,251.285166296
185.647,251.388246763
185.662,251.490962161
185.677,251.593310263
185.692,251.695288876
185.707,251.796895839
185.722,251.89812902
185.737,251.998986322
185.752,252.099465679
185.767,252.199565057
185.782,252.299282453
185.797,252.398615899
185.812,252.497563454
185.827,252.596123212
185.842,252.694293297
185.857,252.792071864
185.872,252.8894571
185.887,252.98644722
185.902,253.083040472
185.917,253.179235131
185.932,253.275029505
185.947,253.370421927
185.96,253.45276896
185.962,253.465410761
185.977,253.5599944
185.992,253.654171262
186.007,253.747939793
186.022,253.841298468
186.037,253.934245786
186.052,254.026780272
186.06,254.075962694
186.067,254.118900476
186.082,254.210604975
186.097,254.301892366
186.112,254.392761274
186.127,254.483210343
186.142,254.573238242
186.157,254.662843662
186.172,254.752025313
186.187,254.840781929
186.202,254.929112262
186.217,255.017015085
186.232,255.104489188
186.247,255.191533382
186.262,255.278146495
186.277,255.364327373
186.292,255.450074878
186.307,255.53538789
186.322,255.620265304
186.337,255.704706031
186.352,255.788708996
186.367,255.872273139
186.382,255.955397416
186.397,256.038080793
186.412,256.120322253
186.427,256.20212079
186.442,256.283475409
186.457,256.36438513
186.472,256.444848982
186.487,256.524866008
186.502,256.604435259
186.517,256.683555799
186.532,256.7622267
186.547,256.840447047
186.562,256.918215933
186.577,256.99553246
186.592,257.07239574
186.607,257.148804895
186.622,257.224759053
186.637,257.300257354
186.652,257.375298944
186.667,257.44988298
186.682,257.524008623
186.697,257.597675047
186.71,257.661147189
186.712,257.670881431
186.727,257.743626961
186.742,257.815910834
186.757,257.887732252
186.772,257.959090427
186.787,258.029984577
186.802,258.100413927
186.817,258.170377712
186.832,258.239875175
186.847,258.308905563
186.862,258.377468135
186.877,258.445562156
186.892,258.513186899
186.907,258.580341645
186.922,258.647025683
186.937,258.713238312
186.952,258.778978837
186.967,258.844246574
186.982,258.909040845
186.997,258.973360984
187.012,259.037206331
187.027,259.100576236
187.042,259.163470061
187.057,259.225887175
187.072,259.287826957
187.087,259.349288797
187.102,259.410272094
187.117,259.47077626
187.132,259.530800714
187.147,259.590344889
187.162,259.649408229
187.177,259.707990187
187.192,259.766090232
187.207,259.82370784
187.222,259.880842502
187.237,259.937493723
187.252,259.993661018
187.267,260.049343915
187.282,260.104541959
187.297,260.159254704
187.312,260.213481722
187.327,260.267222595
187.342,260.320476923
187.357,260.373244319
187.372,260.425524412
187.387,260.477316846
187.402,260.528621279
187.417,260.579437388
187.432,260.629764862
187.447,260.679603412
187.46,260.722401121
187.462,260.728952759
187.477,260.777812647
187.492,260.826182833
187.507,260.874063095
187.522,260.921453224
187.537,260.968353034
187.552,261.014762354
187.567,261.060681033
187.582,261.106108937
187.597,261.151045954
187.612,261.195491988
187.627,261.239446965
187.642,261.282910827
187.657,261.32588354
187.672,261.368365088
187.687,261.410355475
187.702,261.451854726
187.717,261.492862888
187.732,261.533380024
187.747,261.573406225
187.762,261.612941597
187.777,261.651986271
187.792,261.690540398
187.807,261.728604151
187.822,261.766177725
187.837,261.803261335
187.852,261.839855222
187.867,261.875959644
187.882,261.911574886
187.897,261.946701254
187.912,261.981339073
187.927,262.015488696
187.942,262.049150495
187.957,262.082324865
187.972,262.115012225
187.987,262.147213017
188.002,262.178927704
188.017,262.210156774
188.032,262.240900736
188.047,262.271160124
188.062,262.300935493
188.077,262.330227423
188.092,262.359036515
188.107,262.387363394
188.122,262.41520871
188.137,262.442573132
188.152,262.469457354
188.167,262.495862094
188.182,262.521788092
188.197,262.54723611
188.21,262.568905033
188.212,262.572206934
188.227,262.596701371
188.242,262.620720253
188.257,262.644264433
188.272,262.667334789
188.287,262.689932216
188.302,262.712057638
188.317,262.733711997
188.332,262.754896258
188.347,262.775611409
188.362,262.795858458
188.377,262.815638437
188.392,262.834952399
188.407,262.853801417
188.422,262.872186588
188.437,262.890109028
188.452,262.907569876
188.467,262.92457029
188.482,262.941111451
188.497,262.957194557
188.512,262.972820832
188.527,262.987991515
188.542,263.002707867
188.557,263.016971172
188.572,263.030782728
188.587,263.044143857
188.602,263.057055898
188.617,263.069520211
188.632,263.081538173
188.647,263.093111182
188.66,263.102782298
188.662,263.104240652
188.677,263.114928018
188.692,263.12517473
188.707,263.134982259
188.722,263.144352091
188.737,263.153285732
