# 10410 EDZE Essen Observations at 12Z 23 Oct 2019
Frequency [GHz],TB
175.31,273.754589188
175.322,273.738674604
175.337,273.718679912
175.352,273.698572479
175.367,273.6783523
175.382,273.658019374
175.397,273.637573697
175.412,273.61701527
175.427,273.596344096
175.442,273.57556018
175.457,273.554663527
175.472,273.533654144
175.487,273.51253204
175.502,273.491297226
175.517,273.469949716
175.532,273.448489524
175.547,273.426916666
175.562,273.405231159
175.577,273.383433023
175.592,273.361522279
175.607,273.33949895
175.622,273.317363061
175.637,273.295114636
175.652,273.272753702
175.667,273.250280292
175.682,273.227694432
175.697,273.204996157
175.712,273.182185499
175.727,273.159262495
175.742,273.136227179
175.757,273.113079591
175.772,273.089819768
175.787,273.066447753
175.802,273.042963588
175.817,273.019367316
175.832,272.995658983
175.847,272.971838634
175.862,272.947906316
175.877,272.92386208
175.892,272.899705975
175.907,272.875438052
175.922,272.851058366
175.937,272.826566968
175.952,272.801963913
175.967,272.777249259
175.982,272.752423063
175.997,272.727485383
176.012,272.70243628
176.027,272.677275811
176.042,272.652004043
176.057,272.626621034
176.072,272.601126851
176.087,272.575521558
176.102,272.549805218
176.117,272.523977902
176.132,272.498039675
176.147,272.471990606
176.162,272.445830765
176.177,272.41956022
176.192,272.393179045
176.207,272.366687311
176.222,272.340085089
176.237,272.313372455
176.252,272.28654948
176.267,272.259616239
176.282,272.232572811
176.297,272.20541927
176.31,272.18179719
176.312,272.178155691
176.327,272.150782154
176.342,272.123298736
176.357,272.095705515
176.372,272.068002572
176.387,272.040189982
176.402,272.012267829
176.417,271.984236193
176.432,271.956095154
176.447,271.927844793
176.46,271.903272782
176.462,271.899485193
176.477,271.871016435
176.492,271.842438601
176.507,271.813751775
176.522,271.78495604
176.537,271.756051478
176.552,271.727038174
176.567,271.69791621
176.582,271.66868567
176.597,271.63934664
176.612,271.609899203
176.627,271.580343442
176.642,271.550679443
176.657,271.520907292
176.672,271.491027071
176.687,271.461038863
176.702,271.430942758
176.717,271.400738837
176.732,271.370427184
176.747,271.340007886
176.762,271.309481025
176.777,271.278846687
176.792,271.248104955
176.807,271.217255914
176.822,271.186299648
176.837,271.155236239
176.852,271.124065774
176.867,271.092788332
176.882,271.061403999
176.897,271.029912856
176.912,270.998314988
176.927,270.966610474
176.942,270.934799398
176.957,270.90288184
176.972,270.870857883
176.987,270.838727607
177.002,270.806491091
177.017,270.774148417
177.032,270.741699663
177.047,270.709144909
177.062,270.676484235
177.077,270.643717715
177.092,270.610845432
177.107,270.577867459
177.122,270.544783874
177.137,270.511594753
177.152,270.478300172
177.167,270.444900206
177.182,270.411394928
177.197,270.377784413
177.21,270.34857023
177.212,270.344068733
177.227,270.310247963
177.242,270.276322172
177.257,270.242291432
177.272,270.208155814
177.287,270.173915388
177.302,270.139570221
177.31,270.121209997
177.317,270.105120385
177.332,270.070565945
177.347,270.035906969
177.362,270.001143522
177.377,269.966275671
177.392,269.931303479
177.407,269.89622701
177.422,269.86104633
177.437,269.825761496
177.452,269.790372574
177.467,269.754879623
177.482,269.719282701
177.497,269.683581868
177.512,269.647777182
177.527,269.611868701
177.542,269.575856479
177.557,269.539740573
177.572,269.503521036
177.587,269.467197922
177.602,269.430771282
177.617,269.39424117
177.632,269.357607634
177.647,269.320870724
177.66,269.288948489
177.662,269.284030488
177.677,269.247086975
177.692,269.210040228
177.707,269.172890295
177.722,269.135637219
177.737,269.098281044
177.752,269.060821809
177.767,269.023259558
177.782,268.985594329
177.797,268.947826161
177.812,268.90995509
177.827,268.871981153
177.842,268.833904383
177.857,268.795724817
177.872,268.757442484
177.887,268.719057416
177.902,268.680569644
177.917,268.641979193
177.932,268.603286091
177.947,268.564490365
177.96,268.530784409
177.962,268.525592038
177.977,268.486591131
177.992,268.447487668
178.007,268.408281666
178.022,268.368973142
178.037,268.329562116
178.052,268.2900486
178.067,268.250432607
178.082,268.210714148
178.097,268.170893234
178.112,268.130969871
178.127,268.090944066
178.142,268.050815823
178.157,268.010585142
178.172,267.970252026
178.187,267.92981647
178.202,267.889278473
178.217,267.848638027
178.232,267.807895123
178.247,267.767049751
178.262,267.726101898
178.277,267.685051549
178.292,267.643898685
178.307,267.602643288
178.322,267.561285332
178.337,267.519824794
178.352,267.478261643
178.367,267.436595851
178.382,267.394827381
178.397,267.352956198
178.41,267.316584726
178.412,267.310982263
178.427,267.268905529
178.442,267.226725954
178.457,267.184443486
178.472,267.142058072
178.487,267.099569655
178.502,267.056978175
178.517,267.01428357
178.532,266.97148577
178.547,266.928584704
178.562,266.885580298
178.577,266.842472469
178.592,266.799261135
178.607,266.755946207
178.622,266.712527592
178.637,266.669005193
178.652,266.625378906
178.667,266.581648625
178.682,266.537814237
178.697,266.493875624
178.712,266.449832664
178.727,266.405685227
178.742,266.361433181
178.757,266.317076383
178.772,266.272614691
178.787,266.22804795
178.802,266.183376002
178.817,266.138598684
178.832,266.093715823
178.847,266.048727241
178.862,266.003632752
178.877,265.958432166
178.892,265.91312528
178.907,265.867711888
178.922,265.822191775
178.937,265.776564717
178.952,265.730830483
178.967,265.684988834
178.982,265.639039521
178.997,265.592982285
179.012,265.546816861
179.027,265.500542974
179.042,265.454160337
179.057,265.407668655
179.072,265.361067625
179.087,265.31435693
179.102,265.267536245
179.117,265.220605232
179.132,265.173563545
179.147,265.126410823
179.16,265.085455032
179.162,265.079146698
179.177,265.031770786
179.192,264.984282693
179.207,264.936682011
179.222,264.888968322
179.237,264.841141193
179.252,264.793200176
179.267,264.745144815
179.282,264.696974635
179.297,264.648689148
179.312,264.600287853
179.327,264.551770232
179.342,264.503135753
179.357,264.45438387
179.372,264.405514019
179.387,264.356525619
179.402,264.307418075
179.417,264.258190775
179.432,264.208843089
179.447,264.159374367
179.462,264.109783946
179.477,264.060071141
179.492,264.01023525
179.507,263.960275551
179.522,263.910191304
179.537,263.859981747
179.552,263.809646099
179.567,263.75918356
179.582,263.708593306
179.597,263.657874494
179.612,263.607026258
179.627,263.556047709
179.642,263.504937938
179.657,263.453696012
179.672,263.402320971
179.687,263.350811835
179.702,263.2991676
179.717,263.247387233
179.732,263.195469681
179.747,263.143413861
179.762,263.091218666
179.777,263.038882963
179.792,262.986405588
179.807,262.933785354
179.822,262.881021043
179.837,262.828111409
179.852,262.775055179
179.867,262.721851047
179.882,262.66849768
179.897,262.61499371
179.91,262.568500706
179.912,262.561337744
179.927,262.507528353
179.942,262.453564077
179.957,262.399443422
179.972,262.345164864
179.987,262.290726842
180.002,262.236127763
180.017,262.181365996
180.032,262.126439877
180.047,262.071347705
180.062,262.016087745
180.077,261.960658219
180.092,261.905057316
180.107,261.849283186
180.122,261.793333937
180.137,261.737207641
180.152,261.680902327
180.167,261.624415984
180.182,261.56774656
180.197,261.51089196
180.212,261.453850045
180.227,261.396618636
180.242,261.339195505
180.257,261.281578384
180.272,261.223764955
180.287,261.165752856
180.302,261.107539677
180.317,261.049122962
180.332,260.990500203
180.347,260.931668847
180.362,260.872626287
180.377,260.813369869
180.392,260.753896884
180.407,260.694204574
180.422,260.634290123
180.437,260.574150667
180.452,260.513783283
180.467,260.453184994
180.482,260.392352766
180.497,260.331283508
180.512,260.269974071
180.527,260.208421248
180.542,260.146621769
180.557,260.084572305
180.56,260.072132117
180.572,260.022269467
180.587,259.9597098
180.602,259.896889788
180.617,259.833805849
180.632,259.770454335
180.647,259.706831533
180.66,259.651469409
180.662,259.642933662
180.677,259.578756872
180.692,259.514297244
180.707,259.449550786
180.722,259.384513439
180.737,259.319181067
180.752,259.253549463
180.767,259.187614344
180.782,259.12137135
180.797,259.054816046
180.812,258.987943917
180.827,258.920750369
180.842,258.85323073
180.857,258.785380242
180.872,258.717194069
180.887,258.648667285
180.902,258.579794885
180.917,258.510571775
180.932,258.440992771
180.947,258.371052605
180.962,258.300745915
180.977,258.230067251
180.992,258.159011067
181.007,258.087571725
181.022,258.015743494
181.037,257.943520544
181.052,257.870896949
181.067,257.797866684
181.082,257.724423625
181.097,257.650561547
181.112,257.57627412
181.127,257.501554916
181.142,257.426397397
181.157,257.350794923
181.172,257.274740746
181.187,257.19822801
181.202,257.12124975
181.217,257.043798892
181.232,256.96586825
181.247,256.887450527
181.262,256.808538313
181.277,256.729124083
181.292,256.6492002
181.307,256.56875891
181.31,256.552607873
181.322,256.487792344
181.337,256.406292517
181.352,256.324251327
181.367,256.241660554
181.382,256.158511861
181.397,256.074796794
181.412,255.99050678
181.427,255.90563313
181.442,255.820167035
181.457,255.734099572
181.472,255.647421699
181.487,255.560124259
181.502,255.472197979
181.517,255.383633475
181.532,255.294421247
181.547,255.204551686
181.562,255.114015074
181.577,255.022801583
181.592,254.930901283
181.607,254.838304141
181.622,254.745000026
181.637,254.650978709
181.652,254.55622987
181.667,254.460743101
181.682,254.364507912
181.697,254.267513732
181.712,254.169749919
181.727,254.071205765
181.742,253.971870499
181.757,253.871733301
181.772,253.770783302
181.787,253.669009598
181.802,253.566401258
181.817,253.462947332
181.832,253.358636865
181.847,253.253458905
181.862,253.147402519
181.877,253.040456803
181.892,252.932610898
181.907,252.823854008
181.922,252.714175411
181.937,252.603564483
181.952,252.492010712
181.967,252.379503721
181.982,252.266033289
181.997,252.151589376
182.012,252.036162145
182.027,251.91974199
182.042,251.802319565
182.057,251.683885812
182.06,251.660076927
182.072,251.564431993
182.087,251.443949728
182.102,251.322431026
182.117,251.199868323
182.132,251.076254528
182.147,250.951583061
182.162,250.825847898
182.177,250.699043624
182.192,250.571165477
182.207,250.442209407
182.222,250.312172128
182.237,250.181051182
182.252,250.048844997
182.267,249.915552955
182.282,249.78117546
182.297,249.64571401
182.312,249.509171274
182.327,249.371551169
182.342,249.232858943
182.357,249.093101261
182.372,248.952286293
182.387,248.810423808
182.402,248.667525268
182.417,248.523603928
182.432,248.378674936
182.447,248.232755437
182.462,248.085864681
182.477,247.938024129
182.492,247.789257562
182.507,247.639591193
182.522,247.489053775
182.537,247.337676709
182.552,247.185494153
182.567,247.032543123
182.582,246.878863592
182.597,246.724498578
182.612,246.569494234
182.627,246.41389991
182.642,246.257768216
182.657,246.101155057
182.672,245.944119654
182.687,245.786724531
182.702,245.629035476
182.717,245.47112146
182.732,245.313054514
182.747,245.154909544
182.762,244.996764088
182.777,244.838697985
182.792,244.68079296
182.807,244.523132088
182.822,244.365799125
182.837,244.208877674
182.852,244.052450156
182.867,243.896596537
182.882,243.741392765
182.897,243.586908841
182.912,243.433206443
182.927,243.280335992
182.942,243.12833301
182.957,242.977213573
182.972,242.826968609
182.987,242.677556684
183.002,242.52889479
183.017,242.380846468
183.032,242.233206309
183.047,242.085679466
183.062,241.937854183
183.077,241.789164347
183.092,241.638837563
183.107,241.485821707
183.122,241.328678829
183.137,241.165428222
183.152,240.993308277
183.167,240.808404761
183.182,240.605052733
183.197,240.374842739
183.212,240.10491514
183.227,239.774949774
183.242,239.351803219
183.257,238.780517858
183.367,238.925811359
183.382,239.448593508
183.397,239.839879511
183.412,240.148041721
183.427,240.402284613
183.442,240.620648043
183.457,240.814646011
183.472,240.99186807
183.487,241.157462411
183.502,241.315006962
183.517,241.467037977
183.532,241.615381163
183.547,241.761365384
183.562,241.905964432
183.577,242.049893472
183.592,242.193676179
183.607,242.337692442
183.622,242.482212935
183.637,242.627424574
183.652,242.77344959
183.667,242.920359992
183.682,243.068188697
183.697,243.216938179
183.712,243.366587267
183.727,243.517096522
183.742,243.668412535
183.757,243.820471378
183.772,243.973201387
183.787,244.126525417
183.802,244.280362671
183.817,244.43463019
183.832,244.589244061
183.847,244.744120395
183.862,244.899176121
183.877,245.054329619
183.892,245.209501226
183.907,245.364613636
183.922,245.519592203
183.937,245.674365176
183.952,245.828863868
183.967,245.983022768
183.982,246.136779616
183.997,246.290075439
184.012,246.442854551
184.027,246.595064535
184.042,246.746656201
184.057,246.897583529
184.072,247.047803591
184.087,247.197276476
184.102,247.345965192
184.117,247.493835573
184.132,247.640856173
184.147,247.786998162
184.162,247.932235217
184.177,248.076543418
184.192,248.219901132
184.207,248.362288913
184.222,248.503689388
184.237,248.64408716
184.252,248.7834687
184.267,248.921822248
184.282,249.059137719
184.297,249.195406607
184.312,249.330621892
184.327,249.464777956
184.342,249.597870499
184.357,249.729896454
184.372,249.860853913
184.387,249.99074205
184.402,250.119561056
184.417,250.247312062
184.432,250.373997083
184.447,250.499618953
184.462,250.624181267
184.477,250.747688324
184.492,250.870145077
184.507,250.991557084
184.522,251.111930457
184.537,251.231271819
184.552,251.349588265
184.56,251.412273873
184.567,251.466887317
184.582,251.583176889
184.597,251.698465254
184.612,251.812761006
184.627,251.926073031
184.642,252.038410476
184.657,252.149782724
184.672,252.260199366
184.687,252.369670176
184.702,252.478205089
184.717,252.585814179
184.732,252.692507639
184.747,252.798295763
184.762,252.903188926
184.777,253.007197571
184.792,253.110332191
184.807,253.212603314
184.822,253.314021492
184.837,253.41459729
184.852,253.514341269
184.867,253.61326398
184.882,253.711375952
184.897,253.808687685
184.912,253.905209638
184.927,254.000952225
184.942,254.095925806
184.957,254.190140677
184.972,254.283607073
184.987,254.376335153
185.002,254.468334999
185.017,254.559616613
185.032,254.65018991
185.047,254.740064713
185.062,254.829250756
185.077,254.917757674
185.092,255.005595003
185.107,255.092772179
185.122,255.179298533
185.137,255.26518329
185.152,255.350435571
185.167,255.435064385
185.182,255.519078633
185.197,255.602487106
185.212,255.685298482
185.227,255.767521329
185.242,255.849164101
185.257,255.93023514
185.272,256.010742674
185.287,256.090694821
185.302,256.170099583
185.31,256.212227699
185.317,256.248964851
185.332,256.327298405
185.347,256.40510791
185.362,256.482400923
185.377,256.559184888
185.392,256.635467141
185.407,256.711254908
185.422,256.786555304
185.437,256.861375339
185.452,256.935721917
185.467,257.009601834
185.482,257.08302178
185.497,257.155988346
185.512,257.228508014
185.527,257.300587169
185.542,257.372232093
185.557,257.443448968
185.572,257.51424388
185.587,257.584622816
185.602,257.654591665
185.617,257.724156226
185.632,257.793322199
185.647,257.862095195
185.662,257.930480731
185.677,257.998484237
185.692,258.06611105
185.707,258.133366423
185.722,258.200255519
185.737,258.266783419
185.752,258.332955117
185.767,258.398775524
185.782,258.464249472
185.797,258.529381709
185.812,258.594176906
185.827,258.658639653
185.842,258.722774465
185.857,258.78658578
185.872,258.850077961
185.887,258.913255296
185.902,258.976122003
185.917,259.038682226
185.932,259.100940039
185.947,259.162899446
185.96,259.216359267
185.962,259.224564384
185.977,259.285938721
185.992,259.347026258
186.007,259.407830733
186.022,259.468355817
186.037,259.52860512
186.052,259.588582187
186.06,259.620459848
186.067,259.648290503
186.082,259.707733493
186.097,259.76691452
186.112,259.82583689
186.127,259.884503852
186.142,259.942918596
186.157,260.001084257
186.172,260.059003916
186.187,260.116680596
186.202,260.174117272
186.217,260.231316861
186.232,260.288282231
186.247,260.3450162
186.262,260.401521532
186.277,260.457800945
186.292,260.513857108
186.307,260.56969264
186.322,260.625310114
186.337,260.680712057
186.352,260.73590095
186.367,260.790879229
186.382,260.845649285
186.397,260.900213467
186.412,260.95457408
186.427,261.008733386
186.442,261.062693608
186.457,261.116456925
186.472,261.170025478
186.487,261.223401367
186.502,261.276586654
186.517,261.329583362
186.532,261.382393477
186.547,261.435018946
186.562,261.487461681
186.577,261.539723558
186.592,261.591806417
186.607,261.643712064
186.622,261.695442269
186.637,261.746998769
186.652,261.798383269
186.667,261.849597441
186.682,261.900642922
186.697,261.951521322
186.71,261.995482003
186.712,262.002234215
186.727,262.05278315
186.742,262.103169641
186.757,262.153395174
186.772,262.203461207
186.787,262.253369168
186.802,262.303120457
186.817,262.352716447
186.832,262.402158484
186.847,262.451447885
186.862,262.500585944
186.877,262.549573927
186.892,262.598413074
186.907,262.647104602
186.922,262.695649702
186.937,262.744049541
186.952,262.792305263
186.967,262.840417988
186.982,262.888388814
186.997,262.936218814
187.012,262.983909042
187.027,263.031460528
187.042,263.078874282
187.057,263.126151293
187.072,263.173292528
187.087,263.220298934
187.102,263.267171441
187.117,263.313910956
187.132,263.360518368
187.147,263.406994548
187.162,263.453340349
187.177,263.499556602
187.192,263.545644125
187.207,263.591603717
187.222,263.637436158
187.237,263.683142213
187.252,263.728722632
187.267,263.774178146
187.282,263.81950947
187.297,263.864717308
187.312,263.909802342
187.327,263.954765245
187.342,263.999606672
187.357,264.044327264
187.372,264.088927651
187.387,264.133408444
187.402,264.177770245
187.417,264.222013641
187.432,264.266139206
187.447,264.3101475
187.46,264.348193589
187.462,264.354039074
187.477,264.397814465
187.492,264.441474197
187.507,264.485018783
187.522,264.528448726
187.537,264.571764516
187.552,264.614966632
187.567,264.658055546
187.582,264.701031714
187.597,264.743895586
187.612,264.786647599
187.627,264.829288183
187.642,264.871817757
187.657,264.91423673
187.672,264.956545503
187.687,264.998744468
187.702,265.040834008
187.717,265.082814497
187.732,265.124686302
187.747,265.166449781
187.762,265.208105282
187.777,265.24965315
187.792,265.291093719
187.807,265.332427316
187.822,265.373654261
187.837,265.414774868
187.852,265.455789443
187.867,265.496698285
187.882,265.537501688
187.897,265.578199937
187.912,265.618793315
187.927,265.659282096
187.942,265.699666547
187.957,265.739946932
187.972,265.780123508
187.987,265.820196528
188.002,265.860166237
188.017,265.900032876
188.032,265.939796682
188.047,265.979457887
188.062,266.019016717
188.077,266.058473394
188.092,266.097828136
188.107,266.137081155
188.122,266.176232661
188.137,266.215282858
188.152,266.254231947
188.167,266.293080125
188.182,266.331827584
188.197,266.370474514
188.21,266.403887346
188.212,266.409021099
188.227,266.447467524
188.242,266.485813966
188.257,266.5240606
188.272,266.562207599
188.287,266.600255132
188.302,266.638203364
188.317,266.676052459
188.332,266.713802578
188.347,266.751453877
188.362,266.789006513
188.377,266.826460636
188.392,266.863816397
188.407,266.901073943
188.422,266.93823342
188.437,266.975294969
188.452,267.012258731
188.467,267.049124845
188.482,267.085893447
188.497,267.122564671
188.512,267.15913865
188.527,267.195615514
188.542,267.23199539
188.557,267.268278407
188.572,267.30446469
188.587,267.340554362
188.602,267.376547544
188.617,267.412444358
188.632,267.448244922
188.647,267.483949353
188.66,267.514815522
188.662,267.519557767
188.677,267.55507028
188.692,267.590487005
188.707,267.625808053
188.722,267.661033535
188.737,267.696163563
