# 10410 EDZE Essen Observations at 12Z 30 Oct 2019
Frequency [GHz],TB
175.31,254.269786648
175.322,254.331856882
175.337,254.409436422
175.352,254.48700533
175.367,254.564562032
175.382,254.642104934
175.397,254.719632432
175.412,254.797142906
175.427,254.87463472
175.442,254.952106222
175.457,255.029555748
175.472,255.106981618
175.487,255.184382138
175.502,255.261755596
175.517,255.339100264
175.532,255.416414404
175.547,255.493696261
175.562,255.570944061
175.577,255.648156019
175.592,255.725330329
175.607,255.802465176
175.622,255.879558724
175.637,255.956609126
175.652,256.033614514
175.667,256.110573009
175.682,256.187482715
175.697,256.264341719
175.712,256.341148091
175.727,256.417899889
175.742,256.494595151
175.757,256.5712319
175.772,256.647808146
175.787,256.724321879
175.802,256.800771072
175.817,256.877153689
175.832,256.953467668
175.847,257.029710939
175.862,257.105881411
175.877,257.181976977
175.892,257.257995515
175.907,257.333934885
175.922,257.409792935
175.937,257.48556749
175.952,257.561256362
175.967,257.636857348
175.982,257.712368226
175.997,257.787786758
176.012,257.86311069
176.027,257.938337749
176.042,258.013465649
176.057,258.08849209
176.072,258.163414744
176.087,258.238231278
176.102,258.312939337
176.117,258.387536551
176.132,258.462020532
176.147,258.536388879
176.162,258.610639168
176.177,258.684768964
176.192,258.758775811
176.207,258.832657242
176.222,258.906410773
176.237,258.980033893
176.252,259.053524089
176.267,259.126878822
176.282,259.200095538
176.297,259.273171672
176.31,259.336388603
176.312,259.346104632
176.327,259.418891825
176.342,259.491530626
176.357,259.564018401
176.372,259.636352501
176.387,259.708530261
176.402,259.780548992
176.417,259.852406
176.432,259.924098568
176.447,259.995623964
176.46,260.057475293
176.462,260.066979441
176.477,260.138162234
176.492,260.209169567
176.507,260.279998645
176.522,260.350646656
176.537,260.421110774
176.552,260.49138816
176.567,260.561475955
176.582,260.631371286
176.597,260.701071267
176.612,260.770572995
176.627,260.839873553
176.642,260.908970009
176.657,260.977859412
176.672,261.046538804
176.687,261.115005207
176.702,261.18325563
176.717,261.251287067
176.732,261.319096498
176.747,261.38668089
176.762,261.454037195
176.777,261.52116235
176.792,261.588053282
176.807,261.654706904
176.822,261.721120108
176.837,261.787289783
176.852,261.853212798
176.867,261.918886016
176.882,261.984306279
176.897,262.049470423
176.912,262.114375268
176.927,262.179017623
176.942,262.243394286
176.957,262.307502043
176.972,262.371337665
176.987,262.434897918
177.002,262.498179552
177.017,262.561179305
177.032,262.62389391
177.047,262.686320086
177.062,262.748454539
177.077,262.810293972
177.092,262.871835072
177.107,262.933074519
177.122,262.994008982
177.137,263.054635126
177.152,263.114949601
177.167,263.174949052
177.182,263.234630115
177.197,263.293989417
177.21,263.345171265
177.212,263.35302358
177.227,263.411729216
177.242,263.470102932
177.257,263.528141327
177.272,263.585840992
177.287,263.643198518
177.302,263.70021048
177.31,263.730474383
177.317,263.756873459
177.332,263.813184021
177.347,263.869138735
177.362,263.924734158
177.377,263.979966849
177.392,264.03483336
177.407,264.089330242
177.422,264.143454039
177.437,264.197201296
177.452,264.250568553
177.467,264.303552351
177.482,264.356149226
177.497,264.408355715
177.512,264.460168354
177.527,264.511583678
177.542,264.562598221
177.557,264.613208519
177.572,264.66341111
177.587,264.713202529
177.602,264.762579317
177.617,264.811538014
177.632,264.860075163
177.647,264.908187313
177.66,264.949538065
177.662,264.955871012
177.677,265.003122815
177.692,265.049939279
177.707,265.096316968
177.722,265.142252449
177.737,265.187742296
177.752,265.232783089
177.767,265.277371414
177.782,265.321503863
177.797,265.365177042
177.812,265.408387554
177.827,265.451132019
177.842,265.493407064
177.857,265.535209326
177.872,265.57653545
177.887,265.617382093
177.902,265.657745921
177.917,265.697623616
177.932,265.737011867
177.947,265.775907381
177.96,265.809215717
177.962,265.814306872
177.977,265.852207071
177.992,265.889604724
178.007,265.92649659
178.022,265.962879441
178.037,265.998750072
178.052,266.034105287
178.067,266.068941907
178.082,266.103256777
178.097,266.137046754
178.112,266.170308714
178.127,266.203039552
178.142,266.235236184
178.157,266.266895546
178.172,266.298014594
178.187,266.328590302
178.202,266.358619671
178.217,266.38809972
178.232,266.417027492
178.247,266.445400054
178.262,266.473214495
178.277,266.500467931
178.292,266.527157498
178.307,266.553280361
178.322,266.578833712
178.337,266.603814766
178.352,266.628220765
178.367,266.65204898
178.382,266.675296709
178.397,266.697961278
178.41,266.717130148
178.412,266.720040043
178.427,266.741530388
178.442,266.762429727
178.457,266.782735505
178.472,266.802445197
178.487,266.82155631
178.502,266.84006638
178.517,266.857972978
178.532,266.875273708
178.547,266.891966205
178.562,266.908048136
178.577,266.923517206
178.592,266.938371149
178.607,266.952607739
178.622,266.96622478
178.637,266.979220117
178.652,266.991591624
178.667,267.003337216
178.682,267.014454842
178.697,267.024942489
178.712,267.034798181
178.727,267.044019977
178.742,267.052605978
178.757,267.060554317
178.772,267.067863172
178.787,267.074530753
178.802,267.080555312
178.817,267.08593514
178.832,267.090668565
178.847,267.094753958
178.862,267.098189723
178.877,267.100974311
178.892,267.103106205
178.907,267.104583934
178.922,267.105406065
178.937,267.105571203
178.952,267.105077994
178.967,267.103925126
178.982,267.102111323
178.997,267.099635353
179.012,267.09649602
179.027,267.092692173
179.042,267.088222695
179.057,267.083086513
179.072,267.077282592
179.087,267.070809936
179.102,267.063667589
179.117,267.055854634
179.132,267.047370194
179.147,267.038213428
179.16,267.029733107
179.162,267.028383535
179.177,267.017879751
179.192,267.006701352
179.207,266.994847651
179.222,266.982317995
179.237,266.969111771
179.252,266.9552284
179.267,266.940667341
179.282,266.925428086
179.297,266.909510165
179.312,266.892913138
179.327,266.875636602
179.342,266.857680186
179.357,266.839043551
179.372,266.819726393
179.387,266.799728435
179.402,266.779049433
179.417,266.757689172
179.432,266.735647467
179.447,266.71292416
179.462,266.689519122
179.477,266.665432249
179.492,266.640663466
179.507,266.615212718
179.522,266.589079978
179.537,266.562265241
179.552,266.534768523
179.567,266.506589864
179.582,266.477729322
179.597,266.448186972
179.612,266.417962911
179.627,266.387057252
179.642,266.355470122
179.657,266.323201664
179.672,266.290252033
179.687,266.2566214
179.702,266.222309943
179.717,266.187317851
179.732,266.151645323
179.747,266.115292564
179.762,266.078259784
179.777,266.040547201
179.792,266.002155032
179.807,265.963083501
179.822,265.923332828
179.837,265.882903234
179.852,265.84179494
179.867,265.800008158
179.882,265.757543102
179.897,265.714399972
179.91,265.676460927
179.912,265.670578967
179.927,265.626080271
179.942,265.580904062
179.957,265.535050502
179.972,265.488519739
179.987,265.441311909
180.002,265.393427129
180.017,265.344865495
180.032,265.295627089
180.047,265.245711966
180.062,265.195120162
180.077,265.143851687
180.092,265.091906524
180.107,265.039284629
180.122,264.985985933
180.137,264.932010331
180.152,264.877357688
180.167,264.822027838
180.182,264.766020578
180.197,264.709335669
180.212,264.651972835
180.227,264.593931761
180.242,264.535212089
180.257,264.475813425
180.272,264.415735327
180.287,264.35497731
180.302,264.293538845
180.317,264.231419353
180.332,264.168618211
180.347,264.105134744
180.362,264.040968225
180.377,263.976117881
180.392,263.910582883
180.407,263.844362348
180.422,263.777455341
180.437,263.709860869
180.452,263.641577884
180.467,263.572605282
180.482,263.502941901
180.497,263.432586518
180.512,263.361537856
180.527,263.289794573
180.542,263.21735527
180.557,263.144218487
180.56,263.1295073
180.572,263.070382704
180.587,262.995846337
180.602,262.920607743
180.617,262.844665218
180.632,262.768016996
180.647,262.690661247
180.66,262.62304583
180.662,262.612596083
180.677,262.533819554
180.692,262.454329647
180.707,262.374124293
180.722,262.293201359
180.737,262.211558655
180.752,262.129193932
180.767,262.046104884
180.782,261.962289147
180.797,261.877744301
180.812,261.792467874
180.827,261.706457338
180.842,261.619710117
180.857,261.53222358
180.872,261.443995052
180.887,261.355021809
180.902,261.265301084
180.917,261.174830065
180.932,261.083605902
180.947,260.991625707
180.962,260.898886556
180.977,260.805385494
180.992,260.711119534
181.007,260.616085666
181.022,260.520280854
181.037,260.423702043
181.052,260.326346163
181.067,260.22821013
181.082,260.129290852
181.097,260.029585235
181.112,259.929090182
181.127,259.827802604
181.142,259.725719419
181.157,259.622837561
181.172,259.519153984
181.187,259.414665667
181.202,259.30936962
181.217,259.203262889
181.232,259.096342566
181.247,258.98860579
181.262,258.880049758
181.277,258.770671728
181.292,258.66046903
181.307,258.549439071
181.31,258.527133586
181.322,258.437579344
181.337,258.324887436
181.352,258.211361034
181.367,258.096997936
181.382,257.98179606
181.397,257.865753452
181.412,257.748868294
181.427,257.631138919
181.442,257.512563814
181.457,257.393141636
181.472,257.272871219
181.487,257.151751589
181.502,257.029781971
181.517,256.906961803
181.532,256.783290749
181.547,256.658768708
181.562,256.53339583
181.577,256.407172528
181.592,256.280099491
181.607,256.152177697
181.622,256.023408429
181.637,255.893793288
181.652,255.763334208
181.667,255.632033471
181.682,255.499893725
181.697,255.366917994
181.712,255.233109699
181.727,255.098472675
181.742,254.963011184
181.757,254.826729934
181.772,254.689634097
181.787,254.551729328
181.802,254.413021777
181.817,254.273518115
181.832,254.133225549
181.847,253.992151839
181.862,253.850305321
181.877,253.707694925
181.892,253.564330191
181.907,253.420221294
181.922,253.275379061
181.937,253.129814991
181.952,252.983541276
181.967,252.83657082
181.982,252.688917261
181.997,252.540594989
182.012,252.391619169
182.027,252.242005756
182.042,252.091771523
182.057,251.940934072
182.06,251.910695804
182.072,251.789511859
182.087,251.637524214
182.102,251.484991355
182.117,251.331934412
182.132,251.178375442
182.147,251.024337446
182.162,250.86984439
182.177,250.714921217
182.192,250.559593863
182.207,250.403889275
182.222,250.247835422
182.237,250.091461307
182.252,249.93479698
182.267,249.777873549
182.282,249.620723184
182.297,249.463379129
182.312,249.305875707
182.327,249.148248319
182.342,248.990533451
182.357,248.832768667
182.372,248.674992612
182.387,248.517244999
182.402,248.359566608
182.417,248.201999264
182.432,248.044585828
182.447,247.887370174
182.462,247.730397167
182.477,247.573712629
182.492,247.41736331
182.507,247.261396845
182.522,247.105861709
182.537,246.950807162
182.552,246.796283186
182.567,246.642340419
182.582,246.48903007
182.597,246.336403831
182.612,246.184513771
182.627,246.033412217
182.642,245.883151624
182.657,245.733784417
182.672,245.585362823
182.687,245.437938667
182.702,245.291563154
182.717,245.146286607
182.732,245.002158173
182.747,244.859225485
182.762,244.717534275
182.777,244.577127918
182.792,244.438046914
182.807,244.300328279
182.822,244.164004831
182.837,244.029104357
182.852,243.895648621
182.867,243.763652191
182.882,243.633121036
182.897,243.504050834
182.912,243.376424925
182.927,243.250211817
182.942,243.125362108
182.957,243.001804677
182.972,242.87944191
182.987,242.758143673
183.002,242.637739612
183.017,242.518009213
183.032,242.398668824
183.047,242.279354478
183.062,242.159598852
183.077,242.038799893
183.092,241.916177378
183.107,241.79071167
183.122,241.661055627
183.137,241.525405033
183.152,241.381303194
183.167,241.225337893
183.182,241.052656373
183.197,240.856161404
183.212,240.625127094
183.227,240.342722821
183.242,239.981454908
183.257,239.494904876
183.367,239.614082865
183.382,240.058308822
183.397,240.391445964
183.412,240.654071257
183.427,240.870373355
183.442,241.055310258
183.457,241.2185093
183.472,241.366396835
183.487,241.503399989
183.502,241.632651526
183.517,241.756419015
183.532,241.876375225
183.547,241.993773768
183.562,242.109566334
183.577,242.224482875
183.592,242.339087633
183.607,242.453819085
183.622,242.56901891
183.637,242.684953347
183.652,242.801829176
183.667,242.919805833
183.682,243.039004716
183.697,243.159516416
183.712,243.281406389
183.727,243.404719464
183.742,243.529483445
183.757,243.655712023
183.772,243.783407152
183.787,243.912560991
183.802,244.043157518
183.817,244.175173867
183.832,244.308581449
183.847,244.443346899
183.862,244.579432878
183.877,244.71679875
183.892,244.855401168
183.907,244.995194575
183.922,245.136131634
183.937,245.278163602
183.952,245.421240656
183.967,245.565312172
183.982,245.710326975
183.997,245.856233551
184.012,246.002980241
184.027,246.150515401
184.042,246.298787549
184.057,246.447745495
184.072,246.597338453
184.087,246.747516137
184.102,246.898228851
184.117,247.049427563
184.132,247.20106397
184.147,247.353090561
184.162,247.505460662
184.177,247.658128482
184.192,247.81104915
184.207,247.964178747
184.222,248.117474332
184.237,248.270893966
184.252,248.424396727
184.267,248.577942728
184.282,248.731493124
184.297,248.885010123
184.312,249.038456991
184.327,249.191798053
184.342,249.344998692
184.357,249.498025349
184.372,249.650845519
184.387,249.803427744
184.402,249.955741607
184.417,250.10775772
184.432,250.259447716
184.447,250.41078424
184.462,250.56174093
184.477,250.71229241
184.492,250.862414269
184.507,251.012083053
184.522,251.161276242
184.537,251.309972238
184.552,251.458150347
184.56,251.536960037
184.567,251.605790757
184.582,251.752874529
184.597,251.899383569
184.612,252.045300613
184.627,252.190609212
184.642,252.335293705
184.657,252.479339208
184.672,252.622731587
184.687,252.765457444
184.702,252.907504095
184.717,253.048859553
184.732,253.189512503
184.747,253.329452291
184.762,253.468668899
184.777,253.607152926
184.792,253.744895571
184.807,253.881888616
184.822,254.018124404
184.837,254.153595822
184.852,254.288296283
184.867,254.42221971
184.882,254.555360516
184.897,254.687713587
184.912,254.819274268
184.927,254.950038343
184.942,255.080002019
184.957,255.209161913
184.972,255.337515034
184.987,255.465058767
185.002,255.591790859
185.017,255.717709405
185.032,255.842812832
185.047,255.967099888
185.062,256.090569623
185.077,256.213221381
185.092,256.335054784
185.107,256.456069721
185.122,256.576266333
185.137,256.695645003
185.152,256.814206345
185.167,256.931951192
185.182,257.048880581
185.197,257.16499575
185.212,257.280298121
185.227,257.394789291
185.242,257.508471024
185.257,257.621345243
185.272,257.733414014
185.287,257.844679546
185.302,257.955144174
185.31,258.013732006
185.317,258.064810357
185.332,258.173680664
185.347,258.281757772
185.362,258.389044456
185.377,258.495543579
185.392,258.601258089
185.407,258.706191009
185.422,258.810345434
185.437,258.913724521
185.452,259.016331483
185.467,259.118169587
185.482,259.219242145
185.497,259.319552508
185.512,259.419104062
185.527,259.517900225
185.542,259.615944438
185.557,259.713240164
185.572,259.809790879
185.587,259.905600075
185.602,260.000671247
185.617,260.095007898
185.632,260.188613529
185.647,260.281491635
185.662,260.373645708
185.677,260.465079227
185.692,260.555795658
185.707,260.645798453
185.722,260.735091041
185.737,260.82367683
185.752,260.911559208
185.767,260.998741531
185.782,261.085227129
185.797,261.171019299
185.812,261.256121307
185.827,261.340536383
185.842,261.42426772
185.857,261.507318474
185.872,261.589691761
185.887,261.671390654
185.902,261.752418187
185.917,261.832777345
185.932,261.912471073
185.947,261.991502269
185.96,262.059462262
185.962,262.069873783
185.977,262.147588419
185.992,262.224648932
186.007,262.301058027
186.022,262.376818362
186.037,262.451932542
186.052,262.526403125
186.06,262.565858476
186.067,262.600232615
186.082,262.673423467
186.097,262.745978085
186.112,262.817898822
186.127,262.889187976
186.142,262.959847798
186.157,263.029880486
186.172,263.099288189
186.187,263.168073
186.202,263.236236966
186.217,263.303782081
186.232,263.37071029
186.247,263.43702349
186.262,263.502723524
186.277,263.567812191
186.292,263.632291239
186.307,263.69616237
186.322,263.759427236
186.337,263.822087447
186.352,263.884144562
186.367,263.9456001
186.382,264.006455531
186.397,264.066712285
186.412,264.126371748
186.427,264.185435263
186.442,264.243904133
186.457,264.301779621
186.472,264.359062949
186.487,264.415755303
186.502,264.471857829
186.517,264.527371638
186.532,264.582297806
186.547,264.636637373
186.562,264.690391344
186.577,264.743560695
186.592,264.79614637
186.607,264.848149278
186.622,264.899570304
186.637,264.950410302
186.652,265.000670098
186.667,265.050350494
186.682,265.099452264
186.697,265.147976159
186.71,265.189563329
186.712,265.195922908
186.727,265.243293218
186.742,265.290087773
186.757,265.336307237
186.772,265.381952258
186.787,265.427023464
186.802,265.471521468
186.817,265.515446865
186.832,265.558800238
186.847,265.601582155
186.862,265.643793173
186.877,265.685433835
186.892,265.726504676
186.907,265.76700622
186.922,265.806938984
186.937,265.846303477
186.952,265.885100202
186.967,265.923329657
186.982,265.960992334
186.997,265.998088723
187.012,266.034619311
187.027,266.070584583
187.042,266.105985025
187.057,266.140821121
187.072,266.175093357
187.087,266.208802223
187.102,266.24194821
187.117,266.274531812
187.132,266.306553528
187.147,266.338013864
187.162,266.36891333
187.177,266.399252444
187.192,266.429031734
187.207,266.45825173
187.222,266.486912978
187.237,266.51501603
187.252,266.542561451
187.267,266.569549814
187.282,266.595981708
187.297,266.621857731
187.312,266.647178495
187.327,266.671944628
187.342,266.696156769
187.357,266.719815575
187.372,266.742921715
187.387,266.765475879
187.402,266.787478768
187.417,266.808931103
187.432,266.829833622
187.447,266.850187082
187.46,266.867383215
187.462,266.869992254
187.477,266.889249935
187.492,266.907960934
187.507,266.926126084
187.522,266.943746237
187.537,266.960822264
187.552,266.977355057
187.567,266.993345532
187.582,267.008794619
187.597,267.023703278
187.612,267.038072485
187.627,267.051903239
187.642,267.065196565
187.657,267.077953502
187.672,267.090175123
187.687,267.101862513
187.702,267.113016788
187.717,267.123639082
187.732,267.133730554
187.747,267.143292387
187.762,267.152325786
187.777,267.160831981
187.792,267.168812225
187.807,267.176267794
187.822,267.183199989
187.837,267.189610134
187.852,267.195499577
187.867,267.200869689
187.882,267.205721865
187.897,267.210057524
187.912,267.213878111
187.927,267.21718509
187.942,267.219979952
187.957,267.222264211
187.972,267.224039402
187.987,267.225307088
188.002,267.22606885
188.017,267.226326297
188.032,267.226081058
188.047,267.225334785
188.062,267.224089154
188.077,267.222345863
188.092,267.220106631
188.107,267.217373203
188.122,267.214147342
188.137,267.210430834
188.152,267.20622549
188.167,267.201533138
188.182,267.196355628
188.197,267.190694835
188.21,267.185399353
188.212,267.184552649
188.227,267.177930986
188.242,267.170831777
188.257,267.16325698
188.272,267.155208566
188.287,267.146688529
188.302,267.137698883
188.317,267.128241659
188.332,267.118318909
188.347,267.107932702
188.362,267.097085124
188.377,267.085778282
188.392,267.0740143
188.407,267.061795318
188.422,267.049123493
188.437,267.036001
188.452,267.022430032
188.467,267.008412794
188.482,266.993951509
188.497,266.979048419
188.512,266.963705772
188.527,266.947925843
188.542,266.931710913
188.557,266.915063278
188.572,266.897985253
188.587,266.880479162
188.602,266.862547344
188.617,266.844192149
188.632,266.825415944
188.647,266.806221104
188.66,266.789248794
188.662,266.786610019
188.677,266.766585088
188.692,266.746148722
188.707,266.725303348
188.722,266.704051396
188.737,266.68239531
