# 48698 WSSS Singapore Observations at 12Z 04 Mar 2019
Frequency [GHz],TB
175.31,279.550173015
175.322,279.530359425
175.337,279.505523862
175.352,279.480611781
175.367,279.455622852
175.382,279.430556725
175.397,279.405413122
175.412,279.380191659
175.427,279.354892021
175.442,279.329513859
175.457,279.304056843
175.472,279.278520613
175.487,279.252904832
175.502,279.227209168
175.517,279.201433233
175.532,279.175576686
175.547,279.14963919
175.562,279.123620361
175.577,279.097519836
175.592,279.071337284
175.607,279.045072281
175.622,279.018724522
175.637,278.992293582
175.652,278.965779113
175.667,278.93918072
175.682,278.912498048
175.697,278.885730688
175.712,278.858878257
175.727,278.831940391
175.742,278.804916661
175.757,278.777806712
175.772,278.750610113
175.787,278.72332648
175.802,278.695955412
175.817,278.668496496
175.832,278.640949326
175.847,278.613313492
175.862,278.585588579
175.877,278.557774176
175.892,278.529869847
175.907,278.501875177
175.922,278.473789741
175.937,278.445613108
175.952,278.417344831
175.967,278.388984517
175.982,278.36053169
175.997,278.331985912
176.012,278.303346761
176.027,278.274613751
176.042,278.245786457
176.057,278.216864431
176.072,278.187847183
176.087,278.15873429
176.102,278.129525273
176.117,278.100219644
176.132,278.070816962
176.147,278.041316749
176.162,278.011718509
176.177,277.982021775
176.192,277.952226046
176.207,277.922330858
176.222,277.892335726
176.237,277.862240103
176.252,277.832043569
176.267,277.801745557
176.282,277.771345591
176.297,277.740843165
176.31,277.714324431
176.312,277.710237745
176.327,277.679528829
176.342,277.648715907
176.357,277.617798444
176.372,277.586775911
176.387,277.555647782
176.402,277.524413531
176.417,277.493072613
176.432,277.461624477
176.447,277.43006859
176.46,277.40263258
176.462,277.39840439
176.477,277.366631344
176.492,277.33474888
176.507,277.302756455
176.522,277.270653479
176.537,277.238439392
176.552,277.206113611
176.567,277.173675592
176.582,277.141124734
176.597,277.108460429
176.612,277.075682128
176.627,277.042789221
176.642,277.009781104
176.657,276.976657178
176.672,276.943416852
176.687,276.910059505
176.702,276.876584513
176.717,276.842991274
176.732,276.809279171
176.747,276.775447553
176.762,276.741495811
176.777,276.707423285
176.792,276.673229379
176.807,276.6389134
176.822,276.604474718
176.837,276.569912687
176.852,276.535226634
176.867,276.500415908
176.882,276.465479849
176.897,276.430417781
176.912,276.395229029
176.927,276.359912864
176.942,276.324468677
176.957,276.288895747
176.972,276.253193366
176.987,276.217360846
177.002,276.181397471
177.017,276.145302557
177.032,276.10907536
177.047,276.072715196
177.062,276.036221297
177.077,275.999592976
177.092,275.962829458
177.107,275.925930036
177.122,275.888893964
177.137,275.851720463
177.152,275.81440883
177.167,275.776958265
177.182,275.739368011
177.197,275.701637311
177.21,275.668823148
177.212,275.663765374
177.227,275.625751432
177.242,275.587594694
177.257,275.549294378
177.272,275.510849666
177.287,275.472259784
177.302,275.433523906
177.31,275.4128048
177.317,275.394641239
177.332,275.355610937
177.347,275.316432209
177.362,275.277104219
177.377,275.237626103
177.392,275.197997048
177.407,275.158216216
177.422,275.118282732
177.437,275.078195754
177.452,275.037954426
177.467,274.997557863
177.482,274.95700519
177.497,274.916295563
177.512,274.875428045
177.527,274.834401793
177.542,274.793215875
177.557,274.751869404
177.572,274.710361471
177.587,274.668691153
177.602,274.626857535
177.617,274.584859696
177.632,274.542696695
177.647,274.500367588
177.66,274.4635473
177.662,274.457871448
177.677,274.415207319
177.692,274.372374222
177.707,274.329371233
177.722,274.286197324
177.737,274.242851591
177.752,274.199332993
177.767,274.155640564
177.782,274.111773325
177.797,274.06773026
177.812,274.023510356
177.827,273.97911261
177.842,273.934535996
177.857,273.889779478
177.872,273.844842045
177.887,273.799722661
177.902,273.754420238
177.917,273.70893378
177.932,273.663262186
177.947,273.61740442
177.96,273.57750959
177.962,273.571359382
177.977,273.525126018
177.992,273.478703227
178.007,273.432089932
178.022,273.385285012
178.037,273.338287396
178.052,273.291095936
178.067,273.243709545
178.082,273.196127089
178.097,273.148347432
178.112,273.10036943
178.127,273.052191952
178.142,273.003813826
178.157,272.955233927
178.172,272.906451059
178.187,272.857464069
178.202,272.808271772
178.217,272.75887299
178.232,272.709266515
178.247,272.659451164
178.262,272.609425727
178.277,272.559188995
178.292,272.508739755
178.307,272.458076758
178.322,272.407198801
178.337,272.356104631
178.352,272.304792998
178.367,272.253262669
178.382,272.201512343
178.397,272.149540825
178.41,272.10431889
178.412,272.097346775
178.427,272.044928963
178.442,271.992286074
178.457,271.939416814
178.472,271.886319915
178.487,271.832994039
178.502,271.779437887
178.517,271.725650167
178.532,271.671629534
178.547,271.617374642
178.562,271.562884173
178.577,271.508156782
178.592,271.453191113
178.607,271.397985815
178.622,271.342539521
178.637,271.286850868
178.652,271.23091849
178.667,271.174741
178.682,271.118317006
178.697,271.061645123
178.712,271.004723937
178.727,270.947552075
178.742,270.890128094
178.757,270.832450606
178.772,270.774518173
178.787,270.716329368
178.802,270.657882764
178.817,270.599176924
178.832,270.540210421
178.847,270.480981772
178.862,270.421489553
178.877,270.361732287
178.892,270.301708509
178.907,270.241416785
178.922,270.18085559
178.937,270.120023501
178.952,270.05891898
178.967,269.997540576
178.982,269.935886795
178.997,269.873956121
179.012,269.811747082
179.027,269.749258137
179.042,269.686487803
179.057,269.623434591
179.072,269.560096931
179.087,269.496473328
179.102,269.43256228
179.117,269.368362218
179.132,269.303871662
179.147,269.239089028
179.16,269.182706673
179.162,269.174012825
179.177,269.108641484
179.192,269.042973464
179.207,268.977007241
179.222,268.910741272
179.237,268.844173955
179.252,268.777303815
179.267,268.710129246
179.282,268.642648712
179.297,268.574860648
179.312,268.5067635
179.327,268.438355708
179.342,268.369635716
179.357,268.30060196
179.372,268.231252871
179.387,268.161586891
179.402,268.091602459
179.417,268.021298007
179.432,267.950671958
179.447,267.879722774
179.462,267.808448854
179.477,267.736848648
179.492,267.66492061
179.507,267.59266315
179.522,267.520074701
179.537,267.447153721
179.552,267.373898637
179.567,267.300307889
179.582,267.226379905
179.597,267.152113142
179.612,267.077506031
179.627,267.002557018
179.642,266.927264564
179.657,266.851627085
179.672,266.77564304
179.687,266.699310878
179.702,266.622629063
179.717,266.545596039
179.732,266.46821026
179.747,266.390470194
179.762,266.312374293
179.777,266.23392103
179.792,266.155108843
179.807,266.075936228
179.822,265.996401637
179.837,265.916503542
179.852,265.836240428
179.867,265.755610769
179.882,265.674613048
179.897,265.593245715
179.91,265.522427231
179.912,265.511507271
179.927,265.42939622
179.942,265.346911004
179.957,265.264050145
179.972,265.1808121
179.987,265.097195411
180.002,265.013198512
180.017,264.92881992
180.032,264.844058129
180.047,264.758911613
180.062,264.673378881
180.077,264.587458404
180.092,264.501148688
180.107,264.414448235
180.122,264.327355494
180.137,264.239868997
180.152,264.15198717
180.167,264.063708537
180.182,263.97503155
180.197,263.885954677
180.212,263.796476392
180.227,263.706595159
180.242,263.61630941
180.257,263.525617607
180.272,263.434518184
180.287,263.343009562
180.302,263.251090153
180.317,263.158758385
180.332,263.066012629
180.347,262.972851278
180.362,262.879272679
180.377,262.785275198
180.392,262.690857177
180.407,262.596016921
180.422,262.500752717
180.437,262.405062855
180.452,262.30894557
180.467,262.212399117
180.482,262.115421665
180.497,262.018011414
180.512,261.920166518
180.527,261.82188507
180.542,261.723165168
180.557,261.624004844
180.56,261.604119762
180.572,261.524402133
180.587,261.424354992
180.602,261.323861366
180.617,261.222919137
180.632,261.121526142
180.647,261.019680186
180.66,260.931045551
180.662,260.917379013
180.677,260.814620326
180.692,260.711401762
180.707,260.60772089
180.722,260.503575239
180.737,260.398962268
180.752,260.293879364
180.767,260.188323846
180.782,260.082292985
180.797,259.97578395
180.812,259.86879381
180.827,259.761319614
180.842,259.653358283
180.857,259.544906672
180.872,259.435961538
180.887,259.326519515
180.902,259.216577188
180.917,259.106131004
180.932,258.995177358
180.947,258.883712452
180.962,258.771732445
180.977,258.659233368
180.992,258.546211113
181.007,258.432661479
181.022,258.318580123
181.037,258.203962575
181.052,258.088804215
181.067,257.973100306
181.082,257.856845998
181.097,257.740036239
181.112,257.622665894
181.127,257.504729624
181.142,257.386221966
181.157,257.267137299
181.172,257.147469838
181.187,257.027213623
181.202,256.906362588
181.217,256.784910411
181.232,256.662850673
181.247,256.540176746
181.262,256.416881855
181.277,256.292959007
181.292,256.168401062
181.307,256.04320072
181.31,256.018082906
181.322,255.917350456
181.337,255.790842577
181.352,255.663669227
181.367,255.535822337
181.382,255.407293692
181.397,255.278074848
181.412,255.148157237
181.427,255.017532061
181.442,254.886190342
181.457,254.754122945
181.472,254.621320574
181.487,254.487773724
181.502,254.353472734
181.517,254.218407792
181.532,254.08256888
181.547,253.945945872
181.562,253.808528476
181.577,253.670306244
181.592,253.531268591
181.607,253.391404787
181.622,253.250704007
181.637,253.109155298
181.652,252.966747592
181.667,252.823469722
181.682,252.67931048
181.697,252.534258517
181.712,252.388302457
181.727,252.241430881
181.742,252.09363233
181.757,251.944895328
181.772,251.795208391
181.787,251.64456005
181.802,251.49293888
181.817,251.340333491
181.832,251.186732575
181.847,251.032124883
181.862,250.876499342
181.877,250.719844951
181.892,250.562150906
181.907,250.403406586
181.922,250.243601537
181.937,250.082725588
181.952,249.920768828
181.967,249.757721615
181.982,249.593574665
181.997,249.428319014
182.012,249.261946116
182.027,249.094447834
182.042,248.92581647
182.057,248.756044866
182.06,248.72195313
182.072,248.585126385
182.087,248.413054918
182.102,248.23982501
182.117,248.065431839
182.132,247.889871279
182.147,247.713139992
182.162,247.535235375
182.177,247.356155686
182.192,247.175900055
182.207,246.994468571
182.222,246.8118623
182.237,246.628083399
182.252,246.443135043
182.267,246.257021688
182.282,246.069748931
182.297,245.881323713
182.312,245.691754325
182.327,245.501050513
182.342,245.309223515
182.357,245.116286187
182.372,244.922253029
182.387,244.727140308
182.402,244.530966195
182.417,244.333750742
182.432,244.135516093
182.447,243.936286539
182.462,243.736088643
182.477,243.534951385
182.492,243.33290621
182.507,243.129987288
182.522,242.926231515
182.537,242.721678801
182.552,242.516372138
182.567,242.310357769
182.582,242.103685443
182.597,241.89640854
182.612,241.688584289
182.627,241.480274007
182.642,241.271543287
182.657,241.062462231
182.672,240.85310578
182.687,240.643553859
182.702,240.43389174
182.717,240.224210276
182.732,240.014606228
182.747,239.805182556
182.762,239.596048714
182.777,239.387320969
182.792,239.179122775
182.807,238.971584994
182.822,238.764846272
182.837,238.559053347
182.852,238.3543613
182.867,238.150933784
182.882,237.948943382
182.897,237.748571653
182.912,237.550009365
182.927,237.353456539
182.942,237.159122524
182.957,236.967225865
182.972,236.777994195
182.987,236.591664097
183.002,236.408480671
183.017,236.228697318
183.032,236.052575287
183.047,235.880383535
183.062,235.712398458
183.077,235.548904354
183.092,235.390194359
183.107,235.23657285
183.122,235.088359589
183.137,234.94589717
183.152,234.80956322
183.167,234.679789554
183.182,234.55709125
183.197,234.442108665
183.212,234.335663889
183.227,234.238829377
183.242,234.15299483
183.257,234.079900299
183.367,234.081761822
183.382,234.154257083
183.397,234.239038529
183.412,234.334454738
183.427,234.439201613
183.442,234.552276449
183.457,234.672908768
183.472,234.800493991
183.487,234.934540795
183.502,235.074632637
183.517,235.22040151
183.532,235.371510701
183.547,235.527644174
183.562,235.688499969
183.577,235.853786596
183.592,236.023221147
183.607,236.196528401
183.622,236.373440728
183.637,236.553698217
183.652,236.737048951
183.667,236.923249434
183.682,237.112064856
183.697,237.303269415
183.712,237.496646454
183.727,237.691988694
183.742,237.889098126
183.757,238.087786063
183.772,238.287873063
183.787,238.489188632
183.802,238.691571196
183.817,238.894867726
183.832,239.098933547
183.847,239.303631983
183.862,239.50883411
183.877,239.714418421
183.892,239.920270476
183.907,240.126282591
183.922,240.332353562
183.937,240.538388305
183.952,240.744297593
183.967,240.949997683
183.982,241.155410165
183.997,241.360461524
184.012,241.565083027
184.027,241.769210361
184.042,241.972783486
184.057,242.175746327
184.072,242.378046627
184.087,242.579635715
184.102,242.780468304
184.117,242.980502345
184.132,243.179698817
184.147,243.378021604
184.162,243.575437332
184.177,243.77191519
184.192,243.967426886
184.207,244.161946396
184.222,244.355449993
184.237,244.547915961
184.252,244.73932464
184.267,244.92965828
184.282,245.118900888
184.297,245.307038188
184.312,245.494057569
184.327,245.679947934
184.342,245.864699649
184.357,246.048304484
184.372,246.230755535
184.387,246.41204715
184.402,246.592174866
184.417,246.771135342
184.432,246.948926334
184.447,247.125546597
184.462,247.300995831
184.477,247.47527468
184.492,247.64838462
184.507,247.820327948
184.522,247.991107727
184.537,248.160727716
184.552,248.329192413
184.56,248.418569594
184.567,248.496506877
184.582,248.662676808
184.597,248.827708459
184.612,248.991608591
184.627,249.154384434
184.642,249.316043711
184.657,249.476594501
184.672,249.636045356
184.687,249.794405095
184.702,249.951682873
184.717,250.107888192
184.732,250.263030793
184.747,250.417120629
184.762,250.570167897
184.777,250.722182983
184.792,250.873176424
184.807,251.023158929
184.822,251.172141312
184.837,251.320134481
184.852,251.467149433
184.867,251.613197256
184.882,251.758289037
184.897,251.902435945
184.912,252.045649111
184.927,252.187939724
184.942,252.329318882
184.957,252.469797717
184.972,252.609387269
184.987,252.7480986
185.002,252.885942605
185.017,253.02293018
185.032,253.159072107
185.047,253.294379051
185.062,253.428861631
185.077,253.562530294
185.092,253.695395406
185.107,253.827467159
185.122,253.958755701
185.137,254.089270958
185.152,254.219022745
185.167,254.34802075
185.182,254.476274462
185.197,254.603793247
185.212,254.730586343
185.227,254.856662742
185.242,254.982031377
185.257,255.106700937
185.272,255.230679968
185.287,255.353976879
185.302,255.476599879
185.31,255.541726041
185.317,255.598557011
185.332,255.719856157
185.347,255.840505032
185.362,255.960511186
185.377,256.079882015
185.392,256.198624708
185.407,256.316746311
185.422,256.434253736
185.437,256.551153697
185.452,256.667452763
185.467,256.783157313
185.482,256.898273625
185.497,257.012807806
185.512,257.12676576
185.527,257.240153317
185.542,257.352976144
185.557,257.465239692
185.572,257.576949363
185.587,257.688110386
185.602,257.798727829
185.617,257.908806664
185.632,258.018351728
185.647,258.127367705
185.662,258.235859188
185.677,258.343830622
185.692,258.451286337
185.707,258.558230598
185.722,258.664667463
185.737,258.77060098
185.752,258.876035022
185.767,258.980973423
185.782,259.085419826
185.797,259.189377888
185.812,259.292851067
185.827,259.395842802
185.842,259.498356438
185.857,259.600395213
185.872,259.701962247
185.887,259.803060694
185.902,259.903693498
185.917,260.003863644
185.932,260.103573957
185.947,260.202827256
185.96,260.28847921
185.962,260.301626254
185.977,260.399973626
185.992,260.497871962
186.007,260.595323829
186.022,260.692331702
186.037,260.788898016
186.052,260.885025176
186.06,260.93611423
186.067,260.980715493
186.082,261.075971253
186.097,261.170794714
186.112,261.265188066
186.127,261.359153455
186.142,261.452693037
186.157,261.545808854
186.172,261.638502958
186.187,261.730777361
186.202,261.822634047
186.217,261.914074951
186.232,262.005101999
186.247,262.095717087
186.262,262.185922049
186.277,262.275718738
186.292,262.365108984
186.307,262.454094545
186.322,262.542677223
186.337,262.630858751
186.352,262.718640863
186.367,262.80602527
186.382,262.893013656
186.397,262.979607721
186.412,263.065809127
186.427,263.151619518
186.442,263.237040546
186.457,263.322073809
186.472,263.406720948
186.487,263.490983558
186.502,263.574863229
186.517,263.658361555
186.532,263.741480103
186.547,263.824220453
186.562,263.906584164
186.577,263.988572766
186.592,264.070187855
186.607,264.15143092
186.622,264.232303529
186.637,264.312807222
186.652,264.392943496
186.667,264.472713909
186.682,264.552119946
186.697,264.631163148
186.71,264.699374927
186.712,264.709845008
186.727,264.788167073
186.742,264.866130807
186.757,264.943737738
186.772,265.020989372
186.787,265.097887198
186.802,265.17443272
186.817,265.250627434
186.832,265.326472847
186.847,265.40197045
186.862,265.477121742
186.877,265.551928193
186.892,265.626391326
186.907,265.700512627
186.922,265.774293561
186.937,265.847735654
186.952,265.920840373
186.967,265.993609211
186.982,266.066043668
186.997,266.138145201
187.012,266.209915332
187.027,266.28135554
187.042,266.352467309
187.057,266.423252111
187.072,266.493711454
187.087,266.563846816
187.102,266.63365966
187.117,266.703151498
187.132,266.772323788
187.147,266.841178021
187.162,266.909715682
187.177,266.977938248
187.192,267.045847196
187.207,267.113443998
187.222,267.180730152
187.237,267.247707103
187.252,267.31437634
187.267,267.380739342
187.282,267.446797555
187.297,267.51255248
187.312,267.578005569
187.327,267.643158266
187.342,267.708012073
187.357,267.772568442
187.372,267.836828821
187.387,267.900794662
187.402,267.964467436
187.417,268.027848582
187.432,268.090939546
187.447,268.153741818
187.46,268.207938022
187.462,268.216256797
187.477,268.278485936
187.492,268.340430695
187.507,268.402092492
187.522,268.463472746
187.537,268.524572925
187.552,268.585394434
187.567,268.645938697
187.582,268.706207133
187.597,268.766201167
187.612,268.825922208
187.627,268.885371665
187.642,268.944550958
187.657,269.003461458
187.672,269.062104597
187.687,269.120481745
187.702,269.17859432
187.717,269.236443671
187.732,269.294031205
187.747,269.351358283
187.762,269.408426288
187.777,269.465236603
187.792,269.521790559
187.807,269.578089554
187.822,269.634134907
187.837,269.689927995
187.852,269.745470141
187.867,269.800762689
187.882,269.855807003
187.897,269.910604366
187.912,269.965156134
187.927,270.019463638
187.942,270.073528157
187.957,270.127351019
187.972,270.180933539
187.987,270.234277005
188.002,270.287382701
188.017,270.34025194
188.032,270.392885966
188.047,270.445286117
188.062,270.497453615
188.077,270.549389725
188.092,270.60109573
188.107,270.65257288
188.122,270.70382243
188.137,270.7548456
188.152,270.805643653
188.167,270.856217815
188.182,270.906569291
188.197,270.956699328
188.21,270.999967179
188.212,271.006609137
188.227,271.056299915
188.242,271.10577287
188.257,271.155029214
188.272,271.204070112
188.287,271.252896754
188.302,271.301510328
188.317,271.349912008
188.332,271.398102962
188.347,271.446084337
188.362,271.493857309
188.377,271.541423017
188.392,271.58878259
188.407,271.635937193
188.422,271.682887942
188.437,271.729635955
188.452,271.776182363
188.467,271.822528273
188.482,271.868674786
188.497,271.914623007
188.512,271.96037406
188.527,272.00592898
188.542,272.051288886
188.557,272.096454851
188.572,272.141427929
188.587,272.186209202
188.602,272.23079973
188.617,272.275200549
188.632,272.319412722
188.647,272.363437266
188.66,272.401440928
188.662,272.407275249
188.677,272.450927664
188.692,272.494395561
188.707,272.537679965
188.722,272.580781852
188.737,272.623702253
