# 48698 WSSS Singapore Observations at 12Z 23 Mar 2019
Frequency [GHz],TB
175.31,277.900825149
175.322,277.881286854
175.337,277.856803683
175.352,277.832253254
175.367,277.807635326
175.382,277.782949629
175.397,277.758195886
175.412,277.733373856
175.427,277.708483269
175.442,277.683523851
175.457,277.658495333
175.472,277.633397447
175.487,277.608229925
175.502,277.582992495
175.517,277.557684874
175.532,277.532306784
175.547,277.506857964
175.562,277.481338119
175.577,277.455746979
175.592,277.430084241
175.607,277.40434965
175.622,277.378542889
175.637,277.352663699
175.652,277.326711783
175.667,277.300686831
175.682,277.27458858
175.697,277.248416716
175.712,277.222170942
175.727,277.195850973
175.742,277.1694565
175.757,277.142987233
175.772,277.116442859
175.787,277.08982308
175.802,277.06312758
175.817,277.036356069
175.832,277.009508227
175.847,276.982583738
175.862,276.955582305
175.877,276.928503594
175.892,276.901347313
175.907,276.874113115
175.922,276.846800709
175.937,276.819409747
175.952,276.791939933
175.967,276.764390909
175.982,276.736762373
175.997,276.709053987
176.012,276.681265427
176.027,276.653396363
176.042,276.625446442
176.057,276.597415352
176.072,276.569302745
176.087,276.541108273
176.102,276.512831598
176.117,276.48447239
176.132,276.456030288
176.147,276.427504959
176.162,276.398896031
176.177,276.370203173
176.192,276.341426033
176.207,276.312564241
176.222,276.283617462
176.237,276.254585328
176.252,276.225467467
176.267,276.196263518
176.282,276.166973134
176.297,276.137595943
176.31,276.112065198
176.312,276.108131568
176.327,276.078579641
176.342,276.048939797
176.357,276.019211659
176.372,275.989394849
176.387,275.959488985
176.402,275.929493692
176.417,275.8994086
176.432,275.869233299
176.447,275.838967426
176.46,275.812663435
176.462,275.808610585
176.477,275.778162381
176.492,275.747622425
176.507,275.716990334
176.522,275.686265691
176.537,275.655448114
176.552,275.624537188
176.567,275.593532534
176.582,275.562433729
176.597,275.53124038
176.612,275.499952066
176.627,275.468568381
176.642,275.437088921
176.657,275.40551326
176.672,275.373840984
176.687,275.34207168
176.702,275.310204926
176.717,275.278240298
176.732,275.246177359
176.747,275.214015707
176.762,275.181754901
176.777,275.149394496
176.792,275.116934084
176.807,275.084373214
176.822,275.051711444
176.837,275.018948351
176.852,274.986083483
176.867,274.9531164
176.882,274.920046664
176.897,274.886873813
176.912,274.853597401
176.927,274.82021697
176.942,274.786732084
176.957,274.75314227
176.972,274.719447082
176.987,274.685646049
177.002,274.651738709
177.017,274.617724621
177.032,274.583603288
177.047,274.549374238
177.062,274.515037033
177.077,274.480591175
177.092,274.446036183
177.107,274.411371605
177.122,274.376596948
177.137,274.341711724
177.152,274.306715463
177.167,274.271607675
177.182,274.236387865
177.197,274.201055556
177.21,274.17034283
177.212,274.165610242
177.227,274.130051442
177.242,274.094378639
177.257,274.058591367
177.272,274.022689091
177.287,273.986671342
177.302,273.950537596
177.31,273.931218661
177.317,273.914287346
177.332,273.877920097
177.347,273.841435311
177.362,273.804832506
177.377,273.768111168
177.392,273.731270757
177.407,273.694310773
177.422,273.657230678
177.437,273.620029969
177.452,273.58270811
177.467,273.545264572
177.482,273.507698843
177.497,273.470010376
177.512,273.432198643
177.527,273.394263113
177.542,273.356203249
177.557,273.318018511
177.572,273.279708359
177.587,273.241272248
177.602,273.202709649
177.617,273.16402
177.632,273.125202754
177.647,273.086257368
177.66,273.052400622
177.662,273.04718329
177.677,273.00797996
177.692,272.968646835
177.707,272.929183353
177.722,272.88958895
177.737,272.849863077
177.752,272.810005156
177.767,272.770014636
177.782,272.72989095
177.797,272.689633524
177.812,272.649241804
177.827,272.60871519
177.842,272.568053147
177.857,272.52725507
177.872,272.486320399
177.887,272.445248557
177.902,272.404038962
177.917,272.362691017
177.932,272.321204174
177.947,272.279577823
177.96,272.243388362
177.962,272.237811387
177.977,272.195904289
177.992,272.153855919
178.007,272.111665701
178.022,272.069333047
178.037,272.026857366
178.052,271.984238046
178.067,271.941474506
178.082,271.89856616
178.097,271.855512382
178.112,271.812312596
178.127,271.76896618
178.142,271.72547257
178.157,271.681831121
178.172,271.638041247
178.187,271.594102343
178.202,271.55001379
178.217,271.505774999
178.232,271.461385344
178.247,271.416844223
178.262,271.372151023
178.277,271.327305133
178.292,271.282305931
178.307,271.237152819
178.322,271.191845154
178.337,271.146382341
178.352,271.100763767
178.367,271.05498879
178.382,271.009056817
178.397,270.962967196
178.41,270.922894876
178.412,270.916719328
178.427,270.87031258
178.442,270.823746327
178.457,270.777019952
178.472,270.730132835
178.487,270.683084334
178.502,270.635873831
178.517,270.588500697
178.532,270.540964302
178.547,270.493264016
178.562,270.445399211
178.577,270.397369251
178.592,270.34917351
178.607,270.300811365
178.622,270.252282148
178.637,270.203585264
178.652,270.154720059
178.667,270.105685896
178.682,270.056482144
178.697,270.007108171
178.712,269.957563332
178.727,269.907846989
178.742,269.857958501
178.757,269.807897246
178.772,269.757662551
178.787,269.707253797
178.802,269.656670349
178.817,269.605911537
178.832,269.554976741
178.847,269.503865313
178.862,269.452576589
178.877,269.40110996
178.892,269.349464742
178.907,269.297640287
178.922,269.245635992
178.937,269.193451161
178.952,269.141085167
178.967,269.088537339
178.982,269.035807041
178.997,268.982893618
179.012,268.929796405
179.027,268.876514751
179.042,268.823047999
179.057,268.769395498
179.072,268.715556571
179.087,268.661530562
179.102,268.60731682
179.117,268.552914659
179.132,268.49832343
179.147,268.443542459
179.16,268.395911607
179.162,268.388571061
179.177,268.333408583
179.192,268.278054347
179.207,268.222507668
179.222,268.166767875
179.237,268.110834278
179.252,268.054706197
179.267,267.998382938
179.282,267.941863823
179.297,267.885148151
179.312,267.828235222
179.327,267.771124344
179.342,267.713814803
179.357,267.656305908
179.372,267.598596921
179.387,267.540687161
179.402,267.482575874
179.417,267.42426235
179.432,267.365745867
179.447,267.30702567
179.462,267.248101049
179.477,267.188971227
179.492,267.12963547
179.507,267.070093015
179.522,267.010343103
179.537,266.950384953
179.552,266.890217791
179.567,266.829840836
179.582,266.769253292
179.597,266.708454355
179.612,266.647443218
179.627,266.586219054
179.642,266.524781047
179.657,266.463128346
179.672,266.401260122
179.687,266.339175489
179.702,266.276873613
179.717,266.214353583
179.732,266.151614524
179.747,266.088655515
179.762,266.025475642
179.777,265.962073981
179.792,265.89844959
179.807,265.834601494
179.822,265.770528723
179.837,265.706230294
179.852,265.641705194
179.867,265.576952395
179.882,265.511970847
179.897,265.446759514
179.91,265.390056306
179.912,265.38131729
179.927,265.315643105
179.942,265.249735807
179.957,265.183594282
179.972,265.117217356
179.987,265.050603836
180.002,264.983752529
180.017,264.916662188
180.032,264.849331566
180.047,264.781759379
180.062,264.713944312
180.077,264.645885022
180.092,264.577580151
180.107,264.509028287
180.122,264.440228023
180.137,264.371177891
180.152,264.301876378
180.167,264.232321996
180.182,264.162513166
180.197,264.092448288
180.212,264.022125746
180.227,263.951543856
180.242,263.880700908
180.257,263.809595164
180.272,263.738224825
180.287,263.666588058
180.302,263.594683002
180.317,263.522507717
180.332,263.450060249
180.347,263.377338569
180.362,263.304340618
180.377,263.231064301
180.392,263.157507434
180.407,263.083667805
180.422,263.009543153
180.437,262.93513114
180.452,262.86042939
180.467,262.785435466
180.482,262.71014687
180.497,262.634561037
180.512,262.558675344
180.527,262.48248711
180.542,262.405993582
180.557,262.329191958
180.56,262.313794401
180.572,262.252079328
180.587,262.174652753
180.602,262.096909219
180.617,262.018845614
180.632,261.940458779
180.647,261.861745459
180.66,261.793260598
180.662,261.782702342
180.677,261.703326024
180.692,261.623613029
180.707,261.543559803
180.722,261.463162691
180.737,261.382417977
180.752,261.30132184
180.767,261.219870408
180.782,261.138059661
180.797,261.055885556
180.812,260.973343907
180.827,260.890430463
180.842,260.807140878
180.857,260.723470688
180.872,260.639415371
180.887,260.554970269
180.902,260.470130659
180.917,260.384891691
180.932,260.299248423
180.947,260.213195822
180.962,260.126728723
180.977,260.039841889
180.992,259.952529956
181.007,259.864787463
181.022,259.776608833
181.037,259.687988391
181.052,259.598920321
181.067,259.509398741
181.082,259.419417632
181.097,259.328970848
181.112,259.238052168
181.127,259.146655229
181.142,259.054773542
181.157,258.962400544
181.172,258.869529505
181.187,258.776153611
181.202,258.682265916
181.217,258.587859384
181.232,258.492926816
181.247,258.397460918
181.262,258.30145428
181.277,258.204899356
181.292,258.107788499
181.307,258.010113919
181.31,257.990510667
181.322,257.911867735
181.337,257.813041923
181.352,257.713628337
181.367,257.613618722
181.382,257.513004701
181.397,257.411777769
181.412,257.309929319
181.427,257.207450597
181.442,257.104332737
181.457,257.000566784
181.472,256.896143612
181.487,256.791054005
181.502,256.685288656
181.517,256.578838084
181.532,256.471692719
181.547,256.363842904
181.562,256.255278803
181.577,256.145990512
181.592,256.035968015
181.607,255.925201147
181.622,255.813679673
181.637,255.701393228
181.652,255.588331345
181.667,255.474483422
181.682,255.359838795
181.697,255.244386669
181.712,255.12811615
181.727,255.011016263
181.742,254.893075904
181.757,254.774283891
181.772,254.654628947
181.787,254.53409971
181.802,254.412684702
181.817,254.290372418
181.832,254.167151213
181.847,254.043009393
181.862,253.917935199
181.877,253.791916793
181.892,253.664942278
181.907,253.536999695
181.922,253.408077027
181.937,253.278162246
181.952,253.147243251
181.967,253.015307932
181.982,252.88234415
181.997,252.748339774
182.012,252.613282626
182.027,252.477160591
182.042,252.339961574
182.057,252.201673495
182.06,252.173884119
182.072,252.062284317
182.087,251.921782105
182.102,251.780155014
182.117,251.637391271
182.132,251.493479272
182.147,251.348407535
182.162,251.202164789
182.177,251.054739947
182.192,250.90612217
182.207,250.756300895
182.222,250.605265867
182.237,250.453007192
182.252,250.299515375
182.267,250.144781328
182.282,249.988796517
182.297,249.831552909
182.312,249.673043141
182.327,249.513260503
182.342,249.352199058
182.357,249.189853686
182.372,249.026220239
182.387,248.861295547
182.402,248.695077615
182.417,248.52756563
182.432,248.358760186
182.447,248.188663333
182.462,248.017278791
182.477,247.844612015
182.492,247.670670451
182.507,247.495463644
182.522,247.31900345
182.537,247.141304265
182.552,246.962383198
182.567,246.782260351
182.582,246.600959023
182.597,246.418506
182.612,246.234931853
182.627,246.050271195
182.642,245.864563031
182.657,245.677851078
182.672,245.490184098
182.687,245.3016163
182.702,245.112207685
182.717,244.922024422
182.732,244.731139314
182.747,244.539632117
182.762,244.347590045
182.777,244.155108102
182.792,243.962289505
182.807,243.769246107
182.822,243.57609871
182.837,243.38297741
182.852,243.190021874
182.867,242.997381575
182.882,242.80521584
182.897,242.613693937
182.912,242.4229949
182.927,242.23330724
182.942,242.04482836
182.957,241.857763818
182.972,241.672326121
182.987,241.488733164
183.002,241.30720616
183.017,241.127966962
183.032,240.951234557
183.047,240.777220792
183.062,240.606124932
183.077,240.438127176
183.092,240.273380712
183.107,240.112002691
183.122,239.954064233
183.137,239.799580588
183.152,239.648503768
183.167,239.500722834
183.182,239.356082008
183.197,239.21443753
183.212,239.075792371
183.227,238.940578528
183.242,238.810192373
183.257,238.687879592
183.367,238.701861434
183.382,238.822549881
183.397,238.950291905
183.412,239.082412263
183.427,239.217827306
183.442,239.356252028
183.457,239.497740064
183.472,239.642447213
183.487,239.790521581
183.502,239.942059289
183.517,240.097092211
183.532,240.255590337
183.547,240.417470088
183.562,240.582604333
183.577,240.750832189
183.592,240.921967817
183.607,241.095807954
183.622,241.27213815
183.637,241.450737905
183.652,241.631384783
183.667,241.813857604
183.682,241.997939042
183.697,242.183417568
183.712,242.370088871
183.727,242.557756962
183.742,242.7462349
183.757,242.935345285
183.772,243.124920517
183.787,243.314802896
183.802,243.504844574
183.817,243.694907478
183.832,243.884862979
183.847,244.074591702
183.862,244.263983152
183.877,244.452935336
183.892,244.641354423
183.907,244.829154286
183.922,245.016256111
183.937,245.202588029
183.952,245.388084645
183.967,245.572686712
183.982,245.756340662
183.997,245.938998306
184.012,246.120616445
184.027,246.301156513
184.042,246.48058429
184.057,246.658869536
184.072,246.835985752
184.087,247.011909859
184.102,247.186621944
184.117,247.36010506
184.132,247.532344914
184.147,247.703329727
184.162,247.873050001
184.177,248.041498333
184.192,248.208669213
184.207,248.374558937
184.222,248.539165376
184.237,248.70248789
184.252,248.864527181
184.267,249.025285161
184.282,249.184764857
184.297,249.342970317
184.312,249.49990648
184.327,249.655579157
184.342,249.809994869
184.357,249.963160846
184.372,250.115084883
184.387,250.265775383
184.402,250.415241176
184.417,250.563491576
184.432,250.710536276
184.447,250.856385304
184.462,251.001049001
184.477,251.14453798
184.492,251.286863086
184.507,251.428035363
184.522,251.568066036
184.537,251.706966483
184.552,251.844748192
184.56,251.917778345
184.567,251.981422778
184.582,252.117001924
184.597,252.251497387
184.612,252.384920988
184.627,252.517284527
184.642,252.648599903
184.657,252.778878964
184.672,252.908133586
184.687,253.036375626
184.702,253.163616915
184.717,253.289869251
184.732,253.41514439
184.747,253.539454065
184.762,253.662809928
184.777,253.785223594
184.792,253.90670658
184.807,254.02727039
184.822,254.146926411
184.837,254.265685961
184.852,254.383560292
184.867,254.500560549
184.882,254.616697816
184.897,254.731983068
184.912,254.846427191
184.927,254.960040979
184.942,255.072835129
184.957,255.184820253
184.972,255.296006823
184.987,255.406405255
185.002,255.516025825
185.017,255.624878729
185.032,255.732974062
185.047,255.840321781
185.062,255.946931755
185.077,256.052813745
185.092,256.157977401
185.107,256.262432263
185.122,256.366187752
185.137,256.469253186
185.152,256.571637778
185.167,256.673350618
185.182,256.774400675
185.197,256.874796833
185.212,256.974547842
185.227,257.073662328
185.242,257.172148835
185.257,257.270015772
185.272,257.367271442
185.287,257.46392403
185.302,257.559981608
185.31,257.610971786
185.317,257.655452156
185.332,257.750343483
185.347,257.844663358
185.362,257.938419381
185.377,258.031619082
185.392,258.124269839
185.407,258.216378941
185.422,258.307953568
185.437,258.399000776
185.452,258.489527521
185.467,258.57954063
185.482,258.669046864
185.497,258.758052818
185.512,258.846565022
185.527,258.934589876
185.542,259.022133686
185.557,259.109202628
185.572,259.195802798
185.587,259.281940194
185.602,259.367620676
185.617,259.452850015
185.632,259.537633911
185.647,259.621977899
185.662,259.705887468
185.677,259.789367994
185.692,259.872424736
185.707,259.955062868
185.722,260.03728749
185.737,260.119103544
185.752,260.200515947
185.767,260.281529486
185.782,260.362148869
185.797,260.442378681
185.812,260.52222346
185.827,260.601687642
185.842,260.680775558
185.857,260.759491467
185.872,260.837839547
185.887,260.915823874
185.902,260.993448464
185.917,261.070717217
185.932,261.147634017
185.947,261.224202581
185.96,261.290283178
185.962,261.30042661
185.977,261.376309711
185.992,261.451855425
186.007,261.527067197
186.022,261.601948422
186.037,261.676502408
186.052,261.750732401
186.06,261.790190351
186.067,261.824641575
186.082,261.898233026
186.097,261.971509804
186.112,262.044474884
186.127,262.117131166
186.142,262.189481511
186.157,262.261528701
186.172,262.333275453
186.187,262.404724438
186.202,262.475878265
186.217,262.546739493
186.232,262.617310609
186.247,262.687594053
186.262,262.75759223
186.277,262.827307456
186.292,262.896742037
186.307,262.965898203
186.322,263.034778147
186.337,263.103384001
186.352,263.17171787
186.367,263.239781799
186.382,263.307577793
186.397,263.37510783
186.412,263.44237382
186.427,263.509377641
186.442,263.576121147
186.457,263.642606126
186.472,263.708834357
186.487,263.774807559
186.502,263.840527424
186.517,263.905995625
186.532,263.971213763
186.547,264.036183443
186.562,264.100906223
186.577,264.165383624
186.592,264.229617151
186.607,264.293608267
186.622,264.357358406
186.637,264.420868991
186.652,264.484141399
186.667,264.547176987
186.682,264.609977094
186.697,264.672543016
186.71,264.726578386
186.712,264.734876047
186.727,264.796977437
186.742,264.858848431
186.757,264.920490251
186.772,264.981904067
186.787,265.043091084
186.802,265.104052432
186.817,265.164789268
186.832,265.225302681
186.847,265.285593786
186.862,265.34566366
186.877,265.405513359
186.892,265.465143941
186.907,265.524556436
186.922,265.583751839
186.937,265.642731169
186.952,265.701495419
186.967,265.760045549
186.982,265.818382505
186.997,265.876507263
187.012,265.934420727
187.027,265.992123835
187.042,266.049617488
187.057,266.106902589
187.072,266.163980028
187.087,266.220850668
187.102,266.277515386
187.117,266.333975038
187.132,266.390230462
187.147,266.446282508
187.162,266.502131999
187.177,266.557779747
187.192,266.613226578
187.207,266.66847328
187.222,266.723520659
187.237,266.77836952
187.252,266.833020622
187.267,266.887474748
187.282,266.941732674
187.297,266.995795126
187.312,267.049662911
187.327,267.103336751
187.342,267.1568174
187.357,267.210105586
187.372,267.263202055
187.387,267.316107529
187.402,267.368822729
187.417,267.421348386
187.432,267.473685192
187.447,267.525833879
187.46,267.570877778
187.462,267.577795148
187.477,267.629569693
187.492,267.681158213
187.507,267.732561411
187.522,267.783779975
187.537,267.834814578
187.552,267.885665917
187.567,267.936334662
187.582,267.986821505
187.597,268.037127107
187.612,268.087252145
187.627,268.137197276
187.642,268.186963185
187.657,268.236550509
187.672,268.285959935
187.687,268.335192095
187.702,268.384247659
187.717,268.433127283
187.732,268.481831602
187.747,268.530361272
187.762,268.578716936
187.777,268.62689924
187.792,268.674908833
187.807,268.722746334
187.822,268.770412397
187.837,268.817907644
187.852,268.865232734
187.867,268.912388278
187.882,268.959374904
187.897,269.006193245
187.912,269.052843941
187.927,269.099327598
187.942,269.145644851
187.957,269.191796309
187.972,269.237782613
187.987,269.283604355
188.002,269.329262174
188.017,269.374756678
188.032,269.420088472
188.047,269.465258182
188.062,269.510266414
188.077,269.555113773
188.092,269.599800872
188.107,269.644328315
188.122,269.688696709
188.137,269.732906647
188.152,269.776958756
188.167,269.820853624
188.182,269.864591841
188.197,269.908174009
188.21,269.94581946
188.212,269.951600737
188.227,269.994872598
188.242,270.037990208
188.257,270.080954152
188.272,270.123765026
188.287,270.166423406
188.302,270.208929888
188.317,270.251285066
188.332,270.293489513
188.347,270.335543822
188.362,270.377448577
188.377,270.41920435
188.392,270.460811733
188.407,270.502271296
188.422,270.543583613
188.437,270.584749272
188.452,270.625768847
188.467,270.666642901
188.482,270.707372011
188.497,270.747956736
188.512,270.788397667
188.527,270.828695354
188.542,270.868850373
188.557,270.908863273
188.572,270.948734631
188.587,270.988465012
188.602,271.028054958
188.617,271.067505044
188.632,271.106815819
188.647,271.145987837
188.66,271.179825114
188.662,271.185021653
188.677,271.223917818
188.692,271.262676895
188.707,271.301299424
188.722,271.339785943
188.737,271.378137016
