# 10410 EDZE Essen Observations at 12Z 20 Sep 2019
Frequency [GHz],TB
175.31,274.682413428
175.322,274.694437527
175.337,274.709292013
175.352,274.723950494
175.367,274.738412051
175.382,274.752675777
175.397,274.766740758
175.412,274.780606091
175.427,274.79427087
175.442,274.807734197
175.457,274.820995174
175.472,274.834052907
175.487,274.846906505
175.502,274.859555084
175.517,274.871997757
175.532,274.884233646
175.547,274.896261874
175.562,274.90808157
175.577,274.919691866
175.592,274.931091897
175.607,274.942280804
175.622,274.953257729
175.637,274.964021822
175.652,274.974572233
175.667,274.984908122
175.682,274.995028649
175.697,275.004932982
175.712,275.01462029
175.727,275.024089749
175.742,275.033340543
175.757,275.042371853
175.772,275.051182875
175.787,275.059772798
175.802,275.068140829
175.817,275.076286171
175.832,275.08420804
175.847,275.09190565
175.862,275.099378226
175.877,275.106624998
175.892,275.113645197
175.907,275.120438066
175.922,275.127002854
175.937,275.13333881
175.952,275.139445193
175.967,275.145321271
175.982,275.150966312
175.997,275.156379596
176.012,275.161560407
176.027,275.166508038
176.042,275.171221781
176.057,275.175700945
176.072,275.179944841
176.087,275.183952785
176.102,275.187724104
176.117,275.191258131
176.132,275.194554202
176.147,275.197611665
176.162,275.200429876
176.177,275.203008194
176.192,275.205345989
176.207,275.207442638
176.222,275.209297523
176.237,275.210910037
176.252,275.212279579
176.267,275.213405556
176.282,275.214287383
176.297,275.214924486
176.31,275.215278244
176.312,275.215316294
176.327,275.215462245
176.342,275.215361787
176.357,275.215014377
176.372,275.214419479
176.387,275.213576565
176.402,275.212485115
176.417,275.211144618
176.432,275.209554572
176.447,275.207714482
176.46,275.205917106
176.462,275.205623866
176.477,275.203282245
176.492,275.20068915
176.507,275.197844126
176.522,275.194746719
176.537,275.191396489
176.552,275.187793003
176.567,275.183935836
176.582,275.179824577
176.597,275.175458815
176.612,275.170838156
176.627,275.165962213
176.642,275.160830605
176.657,275.155442964
176.672,275.149798928
176.687,275.143898144
176.702,275.137740271
176.717,275.131324976
176.732,275.124651934
176.747,275.11772083
176.762,275.110531357
176.777,275.103083217
176.792,275.095376126
176.807,275.087409801
176.822,275.079183973
176.837,275.070698383
176.852,275.061952778
176.867,275.052946913
176.882,275.043680559
176.897,275.034153485
176.912,275.024365481
176.927,275.014316339
176.942,275.004005857
176.957,274.99343385
176.972,274.982600136
176.987,274.971504541
177.002,274.960146906
177.017,274.948527073
177.032,274.936644895
177.047,274.924500238
177.062,274.91209297
177.077,274.899422973
177.092,274.886490129
177.107,274.873294338
177.122,274.859835502
177.137,274.846113533
177.152,274.832128349
177.167,274.817879879
177.182,274.803368054
177.197,274.78859282
177.21,274.77557451
177.212,274.773554126
177.227,274.758251929
177.242,274.742686192
177.257,274.726856887
177.272,274.710763993
177.287,274.694407492
177.302,274.67778738
177.31,274.66881553
177.317,274.660903651
177.332,274.643756314
177.347,274.626345376
177.362,274.608670855
177.377,274.590732772
177.392,274.572531158
177.407,274.554066046
177.422,274.535337473
177.437,274.516345485
177.452,274.497090132
177.467,274.477571467
177.482,274.457789547
177.497,274.437744437
177.512,274.417436203
177.527,274.396864917
177.542,274.376030652
177.557,274.354933489
177.572,274.333573503
177.587,274.311950787
177.602,274.290065421
177.617,274.267917498
177.632,274.245507107
177.647,274.222834347
177.66,274.202972464
177.662,274.199899308
177.677,274.176702091
177.692,274.153242793
177.707,274.129521513
177.722,274.10553835
177.737,274.081293405
177.752,274.056786781
177.767,274.032018573
177.782,274.006988883
177.797,273.981697811
177.812,273.956145453
177.827,273.930331906
177.842,273.904257265
177.857,273.87792162
177.872,273.851325062
177.887,273.824467677
177.902,273.79734955
177.917,273.769970765
177.932,273.742331393
177.947,273.714431511
177.96,273.690040939
177.962,273.686271185
177.977,273.657850478
177.992,273.629169451
178.007,273.600228152
178.022,273.571026633
178.037,273.541564931
178.052,273.51184308
178.067,273.48186111
178.082,273.451619036
178.097,273.421116871
178.112,273.390354618
178.127,273.359332276
178.142,273.328049825
178.157,273.296507242
178.172,273.264704497
178.187,273.232641544
178.202,273.200318331
178.217,273.16773479
178.232,273.134890845
178.247,273.101786411
178.262,273.068421384
178.277,273.034795653
178.292,273.00090909
178.307,272.966761557
178.322,272.9323529
178.337,272.897682952
178.352,272.86275153
178.367,272.827558436
178.382,272.79210346
178.397,272.756386369
178.41,272.725219349
178.412,272.72040692
178.427,272.684164851
178.442,272.647659881
178.457,272.610891714
178.472,272.573860036
178.487,272.536564512
178.502,272.499004793
178.517,272.461180504
178.532,272.423091254
178.547,272.384736633
178.562,272.346116208
178.577,272.307229528
178.592,272.268076117
178.607,272.228655479
178.622,272.188967096
178.637,272.149010428
178.652,272.108784912
178.667,272.068289958
178.682,272.027524958
178.697,271.986489277
178.712,271.945182254
178.727,271.903603206
178.742,271.861751423
178.757,271.819626169
178.772,271.777226684
178.787,271.73455218
178.802,271.691601841
178.817,271.648374825
178.832,271.604870265
178.847,271.561087263
178.862,271.517024894
178.877,271.472682202
178.892,271.428058209
178.907,271.383151899
178.922,271.337962232
178.937,271.292488139
178.952,271.246728514
178.967,271.20068223
178.982,271.154348122
178.997,271.107724997
179.012,271.06081163
179.027,271.013606765
179.042,270.966109113
179.057,270.918317352
179.072,270.870230132
179.087,270.821846065
179.102,270.773163733
179.117,270.724181683
179.132,270.674898434
179.147,270.625312462
179.16,270.582091887
179.162,270.575422216
179.177,270.525226112
179.192,270.474722526
179.207,270.423909801
179.222,270.372786251
179.237,270.32135015
179.252,270.269599736
179.267,270.217533213
179.282,270.165148754
179.297,270.112444491
179.312,270.059418522
179.327,270.006068911
179.342,269.952393685
179.357,269.898390832
179.372,269.844058309
179.387,269.789394033
179.402,269.734395887
179.417,269.679061717
179.432,269.62338933
179.447,269.5673765
179.462,269.511020963
179.477,269.45432042
179.492,269.397272529
179.507,269.339874921
179.522,269.28212518
179.537,269.224020861
179.552,269.165559481
179.567,269.106738514
179.582,269.047555405
179.597,268.988007557
179.612,268.928092337
179.627,268.867807079
179.642,268.807149073
179.657,268.746115581
179.672,268.684703822
179.687,268.622910977
179.702,268.560734199
179.717,268.498170594
179.732,268.435217237
179.747,268.371871169
179.762,268.308129387
179.777,268.24398886
179.792,268.179446516
179.807,268.114499248
179.822,268.049143912
179.837,267.983377329
179.852,267.917196288
179.867,267.850597534
179.882,267.783577786
179.897,267.71613372
179.91,267.657336379
179.912,267.648261982
179.927,267.579959179
179.942,267.511221887
179.957,267.442046643
179.972,267.372429953
179.987,267.302368288
180.002,267.231858084
180.017,267.160895742
180.032,267.089477633
180.047,267.017600089
180.062,266.945259415
180.077,266.872451876
180.092,266.799173709
180.107,266.725421115
180.122,266.651190268
180.137,266.5764773
180.152,266.501278322
180.167,266.425589405
180.182,266.349406593
180.197,266.272725901
180.212,266.195543302
180.227,266.117854751
180.242,266.039656168
180.257,265.96094344
180.272,265.881712428
180.287,265.801958962
180.302,265.721678843
180.317,265.640867844
180.332,265.55952171
180.347,265.477636156
180.362,265.395206871
180.377,265.312229517
180.392,265.228699727
180.407,265.144613108
180.422,265.059965248
180.437,264.974751699
180.452,264.888967991
180.467,264.802609635
180.482,264.715672111
180.497,264.628150879
180.512,264.540041377
180.527,264.451339015
180.542,264.362039189
180.557,264.272137266
180.56,264.254084222
180.572,264.181628598
180.587,264.090508514
180.602,263.998772325
180.617,263.90641532
180.632,263.813432777
180.647,263.719819948
180.66,263.638175322
180.662,263.625572076
180.677,263.530684385
180.692,263.435152083
180.707,263.338970368
180.722,263.242134419
180.737,263.144639412
180.752,263.046480503
180.767,262.94765284
180.782,262.848151569
180.797,262.747971821
180.812,262.647108721
180.827,262.54555739
180.842,262.443312944
180.857,262.340370503
180.872,262.236725174
180.887,262.132372069
180.902,262.027306308
180.917,261.921523003
180.932,261.815017279
180.947,261.707784263
180.962,261.599819092
180.977,261.491116915
180.992,261.381672886
181.007,261.271482181
181.022,261.160539988
181.037,261.048841512
181.052,260.93638198
181.067,260.823156645
181.082,260.709160777
181.097,260.594389681
181.112,260.478838688
181.127,260.362503163
181.142,260.245378509
181.157,260.127460163
181.172,260.008743608
181.187,259.889224368
181.202,259.768898016
181.217,259.647760181
181.232,259.52580654
181.247,259.403032831
181.262,259.279434856
181.277,259.155008481
181.292,259.029749643
181.307,258.903654353
181.31,258.878334574
181.322,258.776718697
181.337,258.648938851
181.352,258.520311075
181.367,258.390831719
181.382,258.260497229
181.397,258.129304162
181.412,257.997249172
181.427,257.864329032
181.442,257.730540629
181.457,257.595880978
181.472,257.460347222
181.487,257.323936638
181.502,257.186646647
181.517,257.048474819
181.532,256.909418877
181.547,256.769476708
181.562,256.628646368
181.577,256.486926085
181.592,256.344314276
181.607,256.200809544
181.622,256.056410698
181.637,255.911116745
181.652,255.764926913
181.667,255.617840653
181.682,255.469857647
181.697,255.32097782
181.712,255.171201346
181.727,255.02052866
181.742,254.868960468
181.757,254.716497751
181.772,254.56314179
181.787,254.408894154
181.802,254.253756733
181.817,254.097731736
181.832,253.940821706
181.847,253.783029532
181.862,253.624358466
181.877,253.464812121
181.892,253.304394503
181.907,253.14311001
181.922,252.980963452
181.937,252.81796006
181.952,252.654105514
181.967,252.489405938
181.982,252.323867932
181.997,252.157498582
182.012,251.990305475
182.027,251.822296719
182.042,251.653480961
182.057,251.483867406
182.06,251.449849809
182.072,251.313465832
182.087,251.14228662
182.102,250.970340761
182.117,250.79763989
182.132,250.624196305
182.147,250.450022986
182.162,250.275133626
182.177,250.099542654
182.192,249.923265262
182.207,249.746317433
182.222,249.568715973
182.237,249.390478537
182.252,249.211623659
182.267,249.032170804
182.282,248.85214037
182.297,248.671553757
182.312,248.490433385
182.327,248.308802741
182.342,248.126686416
182.357,247.944110153
182.372,247.76110089
182.387,247.5776868
182.402,247.393897343
182.417,247.209763314
182.432,247.025316898
182.447,246.840591705
182.462,246.655622838
182.477,246.470446941
182.492,246.285102241
182.507,246.099628606
182.522,245.914067598
182.537,245.728462516
182.552,245.542858437
182.567,245.357302265
182.582,245.171842758
182.597,244.986530557
182.612,244.801418205
182.627,244.616560151
182.642,244.432012738
182.657,244.247834179
182.672,244.064084508
182.687,243.880825492
182.702,243.698120532
182.717,243.516034494
182.732,243.334633524
182.747,243.153984774
182.762,242.974156067
182.777,242.795215486
182.792,242.617230833
182.807,242.44026898
182.822,242.264395063
182.837,242.089671472
182.852,241.916156634
182.867,241.743903488
182.882,241.572957635
182.897,241.40335505
182.912,241.235119256
182.927,241.068257832
182.942,240.90275808
182.957,240.738581617
182.972,240.575657607
182.987,240.413874194
183.002,240.253067664
183.017,240.093008532
183.032,239.933383604
183.047,239.773772612
183.062,239.613617441
183.077,239.452181229
183.092,239.288493343
183.107,239.121274502
183.122,238.948833676
183.137,238.768924448
183.152,238.578542872
183.167,238.373640873
183.182,238.148719711
183.197,237.896261716
183.212,237.605976236
183.227,237.263953923
183.242,236.852309825
183.257,236.351652942
183.367,236.469501421
183.382,236.941287314
183.397,237.328736013
183.412,237.651449853
183.427,237.926353011
183.442,238.166362925
183.457,238.380984961
183.472,238.577159369
183.487,238.759969276
183.502,238.933164098
183.517,239.099531739
183.532,239.26116077
183.547,239.419625601
183.562,239.576118364
183.577,239.731543863
183.592,239.886588736
183.607,240.041772419
183.622,240.197485164
183.637,240.35401669
183.652,240.511578027
183.667,240.670318307
183.682,240.830337817
183.697,240.991698211
183.712,241.154430559
183.727,241.31854175
183.742,241.484019604
183.757,241.650836965
183.772,241.818955024
183.787,241.988325984
183.802,242.158895239
183.817,242.330603132
183.832,242.5033864
183.847,242.677179331
183.862,242.851914723
183.877,243.027524641
183.892,243.20394105
183.907,243.381096307
183.922,243.558923561
183.937,243.737357062
183.952,243.916332424
183.967,244.095786792
183.982,244.275658998
183.997,244.45588966
184.012,244.636421248
184.027,244.817198137
184.042,244.998166618
184.057,245.179274909
184.072,245.360473144
184.087,245.541713354
184.102,245.722949435
184.117,245.904137111
184.132,246.085233886
184.147,246.266199012
184.162,246.446993425
184.177,246.6275797
184.192,246.807921999
184.207,246.987986017
184.222,247.167738931
184.237,247.34714934
184.252,247.526187227
184.267,247.704823895
184.282,247.883031929
184.297,248.060785136
184.312,248.238058511
184.327,248.414828184
184.342,248.591071377
184.357,248.766766368
184.372,248.941892446
184.387,249.116429873
184.402,249.290359849
184.417,249.463664478
184.432,249.636326728
184.447,249.808330406
184.462,249.979660124
184.477,250.15030127
184.492,250.320239974
184.507,250.489463094
184.522,250.657958173
184.537,250.825713435
184.552,250.992717738
184.56,251.081475986
184.567,251.158960569
184.582,251.324432014
184.597,251.489122738
184.612,251.653023974
184.627,251.816127483
184.642,251.978425554
184.657,252.139910979
184.672,252.300577041
184.687,252.460417487
184.702,252.619426522
184.717,252.777598789
184.732,252.934929354
184.747,253.091413693
184.762,253.247047677
184.777,253.401827561
184.792,253.555749966
184.807,253.708811871
184.822,253.8610106
184.837,254.012343808
184.852,254.16280947
184.867,254.312405872
184.882,254.4611316
184.897,254.608985522
184.912,254.75596679
184.927,254.902074822
184.942,255.047309294
184.957,255.19167013
184.972,255.335157497
184.987,255.477771788
185.002,255.619513619
185.017,255.760383825
185.032,255.900383439
185.047,256.039513695
185.062,256.177776019
185.077,256.315172016
185.092,256.451703467
185.107,256.58737232
185.122,256.722180686
185.137,256.856130828
185.152,256.989225159
185.167,257.121466231
185.182,257.25285673
185.197,257.383399477
185.212,257.51309741
185.227,257.641953587
185.242,257.769971181
185.257,257.897153466
185.272,258.023503827
185.287,258.149025735
185.302,258.27372276
185.31,258.339891813
185.317,258.397598556
185.332,258.520656863
185.347,258.642901497
185.362,258.764336349
185.377,258.884965379
185.392,259.004792615
185.407,259.123822142
185.422,259.242058112
185.437,259.359504726
185.452,259.476166236
185.467,259.592046946
185.482,259.7071512
185.497,259.821483386
185.512,259.935047935
185.527,260.047849306
185.542,260.159891994
185.557,260.271180526
185.572,260.381719459
185.587,260.491513367
185.602,260.600566852
185.617,260.70888454
185.632,260.816471068
185.647,260.923331094
185.662,261.029469289
185.677,261.134890333
185.692,261.239598921
185.707,261.343599755
185.722,261.446897539
185.737,261.549496992
185.752,261.651402825
185.767,261.752619758
185.782,261.85315251
185.797,261.953005795
185.812,262.052184334
185.827,262.15069283
185.842,262.248535995
185.857,262.345718525
185.872,262.442245115
185.887,262.538120447
185.902,262.633349198
185.917,262.72793603
185.932,262.821885596
185.947,262.915202538
185.96,262.995569072
185.962,263.00789148
185.977,263.099957037
185.992,263.191403807
186.007,263.282236374
186.022,263.372459302
186.037,263.46207714
186.052,263.551094423
186.06,263.598326303
186.067,263.639515661
186.082,263.727345348
186.097,263.814587964
186.112,263.901247959
186.127,263.98732977
186.142,264.072837809
186.157,264.157776468
186.172,264.242150119
186.187,264.325963108
186.202,264.40921976
186.217,264.491924374
186.232,264.574081233
186.247,264.655694589
186.262,264.736768672
186.277,264.817307688
186.292,264.897315816
186.307,264.976797213
186.322,265.055756007
186.337,265.134196306
186.352,265.212122184
186.367,265.289537695
186.382,265.366446865
186.397,265.442853695
186.412,265.518762155
186.427,265.59417619
186.442,265.66909972
186.457,265.743536634
186.472,265.817490795
186.487,265.890966042
186.502,265.963966182
186.517,266.036494988
186.532,266.108556219
186.547,266.180153597
186.562,266.251290813
186.577,266.321971539
186.592,266.392199407
186.607,266.461978031
186.622,266.53131099
186.637,266.600201835
186.652,266.668654087
186.667,266.736671244
186.682,266.804256766
186.697,266.871414089
186.71,266.929273369
186.712,266.938146619
186.727,267.004457734
186.742,267.070350779
186.757,267.135829074
186.772,267.200895904
186.787,267.265554532
186.802,267.329808185
186.817,267.393660063
186.832,267.457113336
186.847,267.520171145
186.862,267.582836599
186.877,267.645112781
186.892,267.707002741
186.907,267.7685095
186.922,267.829636054
186.937,267.890385362
186.952,267.950760355
186.967,268.01076394
186.982,268.070398988
186.997,268.129668343
187.012,268.188574819
187.027,268.247121198
187.042,268.305310238
187.057,268.363144662
187.072,268.420627166
187.087,268.477760416
187.102,268.53454705
187.117,268.590989673
187.132,268.647090862
187.147,268.702853169
187.162,268.758279108
187.177,268.813371174
187.192,268.868131824
187.207,268.922563492
187.222,268.97666858
187.237,269.03044946
187.252,269.083908481
187.267,269.137047952
187.282,269.189870169
187.297,269.242377386
187.312,269.294571832
187.327,269.346455711
187.342,269.398031195
187.357,269.449300433
187.372,269.500265539
187.387,269.550928601
187.402,269.601291685
187.417,269.651356821
187.432,269.701126016
187.447,269.750601249
187.46,269.793243509
187.462,269.799784469
187.477,269.848677604
187.492,269.897282548
187.507,269.945601172
187.522,269.993635318
187.537,270.041386803
187.552,270.088857418
187.567,270.136048925
187.582,270.182963066
187.597,270.229601548
187.612,270.275966057
187.627,270.322058254
187.642,270.367879777
187.657,270.413432231
187.672,270.4587172
187.687,270.503736246
187.702,270.548490904
187.717,270.59298268
187.732,270.637213063
187.747,270.681183514
187.762,270.724895471
187.777,270.768350349
187.792,270.811549535
187.807,270.854494398
187.822,270.897186282
187.837,270.939626507
187.852,270.981816374
187.867,271.023757156
187.882,271.06545011
187.897,271.106896463
187.912,271.14809743
187.927,271.189054198
187.942,271.229767932
187.957,271.27023978
187.972,271.310470867
187.987,271.350462299
188.002,271.390215159
188.017,271.42973051
188.032,271.469009401
188.047,271.508052852
188.062,271.54686187
188.077,271.585437444
188.092,271.623780538
188.107,271.661892105
188.122,271.699773071
188.137,271.737424353
188.152,271.774846844
188.167,271.81204142
188.182,271.849008944
188.197,271.885750254
188.21,271.917410383
188.212,271.922266182
188.227,271.958557532
188.242,271.994625103
188.257,272.030469669
188.272,272.066091993
188.287,272.10149282
188.302,272.13667288
188.317,272.171632892
188.332,272.206373556
188.347,272.240895559
188.362,272.275199576
188.377,272.309286262
188.392,272.343156263
188.407,272.376810213
188.422,272.41024873
188.437,272.443472422
188.452,272.476481878
188.467,272.509277682
188.482,272.541860405
188.497,272.574230602
188.512,272.606388819
188.527,272.63833559
188.542,272.670071442
188.557,272.701596882
188.572,272.732912417
188.587,272.764018539
188.602,272.794915727
188.617,272.825604455
188.632,272.856085186
188.647,272.886358372
188.66,272.9124276
188.662,272.916424462
188.677,272.946283888
188.692,272.975937079
188.707,273.005384451
188.722,273.034626419
188.737,273.063663383
188.752,273.092495739
