# 48698 WSSS Singapore Observations at 12Z 29 Dec 2019
Frequency [GHz],TB
175.31,276.157191598
175.322,276.138097937
175.337,276.11417577
175.352,276.090192184
175.367,276.066146987
175.382,276.042039941
175.397,276.017870864
175.412,275.993639512
175.427,275.969345681
175.442,275.944989155
175.457,275.920569728
175.472,275.896087166
175.487,275.871541255
175.502,275.846931762
175.517,275.822258481
175.532,275.79752119
175.547,275.772719659
175.562,275.747853657
175.577,275.722922954
175.592,275.697927349
175.607,275.672866575
175.622,275.647740424
175.637,275.622548676
175.652,275.597291085
175.667,275.571967405
175.682,275.546577426
175.697,275.521120892
175.712,275.495597576
175.727,275.470007234
175.742,275.444349638
175.757,275.418624539
175.772,275.392831692
175.787,275.366970857
175.802,275.341041802
175.817,275.31504426
175.832,275.288978001
175.847,275.26284276
175.862,275.236638315
175.877,275.210364385
175.892,275.184020743
175.907,275.157607126
175.922,275.131123282
175.937,275.104568945
175.952,275.077943881
175.967,275.051247814
175.982,275.024480488
175.997,274.997641653
176.012,274.970731034
176.027,274.943748385
176.042,274.916693421
176.057,274.889565897
176.072,274.862365535
176.087,274.835092055
176.102,274.807745218
176.117,274.780324744
176.132,274.752830342
176.147,274.725261755
176.162,274.697618704
176.177,274.669900923
176.192,274.642108135
176.207,274.614240043
176.222,274.58629638
176.237,274.558276876
176.252,274.530181229
176.267,274.502009165
176.282,274.473760399
176.297,274.445434652
176.31,274.420823174
176.312,274.417031625
176.327,274.388551032
176.342,274.359992588
176.357,274.331356
176.372,274.302640978
176.387,274.273847224
176.402,274.244974444
176.417,274.216022335
176.432,274.186990606
176.447,274.157878958
176.46,274.132583978
176.462,274.12868708
176.477,274.09941469
176.492,274.070061462
176.507,274.040627106
176.522,274.011111317
176.537,273.98151377
176.552,273.951834176
176.567,273.922072211
176.582,273.892227572
176.597,273.862299936
176.612,273.832288997
176.627,273.802194435
176.642,273.772015936
176.657,273.741753173
176.672,273.711405834
176.687,273.680973588
176.702,273.650456117
176.717,273.6198531
176.732,273.589164215
176.747,273.558389124
176.762,273.527527494
176.777,273.496579005
176.792,273.465543332
176.807,273.434420119
176.822,273.403209035
176.837,273.371909769
176.852,273.340521966
176.867,273.309045277
176.882,273.27747938
176.897,273.245823908
176.912,273.214078553
176.927,273.182242933
176.942,273.150316729
176.957,273.118299585
176.972,273.086191133
176.987,273.053991062
177.002,273.021698966
177.017,272.989314529
177.032,272.956837387
177.047,272.924267182
177.062,272.891603549
177.077,272.858846143
177.092,272.825994576
177.107,272.793048504
177.122,272.760007556
177.137,272.726871371
177.152,272.693639567
177.167,272.660311791
177.182,272.626887667
177.197,272.593366818
177.21,272.564236878
177.212,272.559748867
177.227,272.526033431
177.242,272.492220148
177.257,272.458308639
177.272,272.424298508
177.287,272.390189379
177.302,272.355980879
177.31,272.337695571
177.317,272.321672603
177.332,272.287264181
177.347,272.252755203
177.362,272.218145299
177.377,272.18343406
177.392,272.148621108
177.407,272.113706031
177.422,272.078688438
177.437,272.043567928
177.452,272.008344109
177.467,271.973016566
177.482,271.937584901
177.497,271.90204871
177.512,271.866407571
177.527,271.830661096
177.542,271.794808841
177.557,271.758850431
177.572,271.722785429
177.587,271.686613418
177.602,271.650333988
177.617,271.613946708
177.632,271.577451165
177.647,271.540846923
177.66,271.509035007
177.662,271.504133573
177.677,271.467310682
177.692,271.430377797
177.707,271.393334512
177.722,271.356180395
177.737,271.318914999
177.752,271.281537888
177.767,271.244048626
177.782,271.206446763
177.797,271.168731869
177.812,271.130903496
177.827,271.09296118
177.842,271.054904497
177.857,271.016732978
177.872,270.978446181
177.887,270.94004364
177.902,270.9015249
177.917,270.862889513
177.932,270.824137007
177.947,270.785266909
177.96,270.751484021
177.962,270.746278768
177.977,270.707172115
177.992,270.667946474
178.007,270.628601373
178.022,270.58913635
178.037,270.549550901
178.052,270.509844576
178.067,270.470016877
178.082,270.430067325
178.097,270.389995432
178.112,270.349800712
178.127,270.309482671
178.142,270.269040815
178.157,270.228474643
178.172,270.187783682
178.187,270.146967411
178.202,270.106025318
178.217,270.064956914
178.232,270.023761689
178.247,269.982439137
178.262,269.940988722
178.277,269.899409947
178.292,269.857702293
178.307,269.815865235
178.322,269.773898243
178.337,269.731800795
178.352,269.689572356
178.367,269.647212407
178.382,269.604720394
178.397,269.562095797
178.41,269.525046801
178.412,269.51933806
178.427,269.476446642
178.442,269.433420998
178.457,269.390260573
178.472,269.34696482
178.487,269.303533176
178.502,269.259965083
178.517,269.216259968
178.532,269.172417276
178.547,269.128436434
178.562,269.084316856
178.577,269.040057977
178.592,268.995659212
178.607,268.951119991
178.622,268.906439694
178.637,268.861617758
178.652,268.816653563
178.667,268.771546528
178.682,268.726296041
178.697,268.680901491
178.712,268.635362271
178.727,268.589677775
178.742,268.543847366
178.757,268.497870419
178.772,268.451746315
178.787,268.405474415
178.802,268.359054077
178.817,268.312484673
178.832,268.265765535
178.847,268.218896041
178.862,268.1718755
178.877,268.124703266
178.892,268.07737867
178.907,268.029901045
178.922,267.982269708
178.937,267.934483978
178.952,267.88654317
178.967,267.838446581
178.982,267.790193517
178.997,267.741783255
179.012,267.693215134
179.027,267.644488391
179.042,267.595602301
179.057,267.546556151
179.072,267.497349219
179.087,267.447980723
179.102,267.398449938
179.117,267.348756107
179.132,267.298898462
179.147,267.248876239
179.16,267.205389917
179.162,267.198688659
179.177,267.148334912
179.192,267.097814241
179.207,267.047125814
179.222,266.99626885
179.237,266.945242521
179.252,266.894045996
179.267,266.84267844
179.282,266.791139019
179.297,266.739426892
179.312,266.687541173
179.327,266.635481015
179.342,266.583245518
179.357,266.530833812
179.372,266.478244992
179.387,266.425478144
179.402,266.372532348
179.417,266.319406688
179.432,266.266100211
179.447,266.212611971
179.462,266.158940996
179.477,266.10508634
179.492,266.051046974
179.507,265.996821933
179.522,265.942410189
179.537,265.887810726
179.552,265.833022503
179.567,265.778044472
179.582,265.722875572
179.597,265.667514724
179.612,265.611960843
179.627,265.556212815
179.642,265.500269511
179.657,265.444129809
179.672,265.387792561
179.687,265.331256587
179.702,265.2745207
179.717,265.217583715
179.732,265.160444408
179.747,265.103101539
179.762,265.045553869
179.777,264.98780012
179.792,264.929838998
179.807,264.871669195
179.822,264.813289378
179.837,264.754698214
179.852,264.695894325
179.867,264.63687633
179.882,264.577642813
179.897,264.518192337
179.91,264.466491985
179.912,264.458523468
179.927,264.398634686
179.942,264.338524546
179.957,264.278191478
179.972,264.217633971
179.987,264.156850404
180.002,264.095839234
180.017,264.034598802
180.032,263.973127462
180.047,263.91142354
180.062,263.849485325
180.077,263.787311097
180.092,263.724899074
180.107,263.662247483
180.122,263.59935448
180.137,263.536218237
180.152,263.472836844
180.167,263.409208417
180.182,263.345330969
180.197,263.281202543
180.212,263.216821116
180.227,263.15218464
180.242,263.087291023
180.257,263.022138148
180.272,262.956723844
180.287,262.891045932
180.302,262.82510216
180.317,262.758890265
180.332,262.692407929
180.347,262.625652805
180.362,262.558622483
180.377,262.491314523
180.392,262.423726453
180.407,262.355855755
180.422,262.287699833
180.437,262.219256093
180.452,262.150521881
180.467,262.081494459
180.482,262.01217108
180.497,261.942548957
180.512,261.872625219
180.527,261.802396963
180.542,261.731861232
180.557,261.661015026
180.56,261.646808253
180.572,261.589855268
180.587,261.518378829
180.602,261.446582573
180.617,261.374463248
180.632,261.302017557
180.647,261.229242179
180.66,261.165900878
180.662,261.156133712
180.677,261.08268868
180.692,261.008903589
180.707,260.934774824
180.722,260.860298745
180.737,260.785471663
180.752,260.710289786
180.767,260.63474927
180.782,260.558846235
180.797,260.482576685
180.812,260.405936573
180.827,260.328921827
180.842,260.251528215
180.857,260.17375152
180.872,260.095587413
180.887,260.017031497
180.902,259.938079287
180.917,259.858726249
180.932,259.778967772
180.947,259.698799132
180.962,259.618215562
180.977,259.53721221
180.992,259.455784135
181.007,259.373926329
181.022,259.291633677
181.037,259.208901011
181.052,259.125723065
181.067,259.04209448
181.082,258.958009833
181.097,258.873463593
181.112,258.788450157
181.127,258.702963826
181.142,258.616998802
181.157,258.530549218
181.172,258.443609101
181.187,258.356172408
181.202,258.268232954
181.217,258.179784513
181.232,258.090820728
181.247,258.001335183
181.262,257.911321322
181.277,257.820772533
181.292,257.729682073
181.307,257.638043121
181.31,257.619648898
181.322,257.545848738
181.337,257.453091897
181.352,257.359765487
181.367,257.265862262
181.382,257.171374896
181.397,257.07629594
181.412,256.98061785
181.427,256.884332999
181.442,256.787433627
181.457,256.689911875
181.472,256.59175979
181.487,256.492969287
181.502,256.393532203
181.517,256.293440259
181.532,256.192685047
181.547,256.091258089
181.562,255.989150765
181.577,255.886354362
181.592,255.782860062
181.607,255.678658931
181.622,255.573741936
181.637,255.468099927
181.652,255.361723654
181.667,255.25460377
181.682,255.146730787
181.697,255.03809516
181.712,254.928687214
181.727,254.818497172
181.742,254.707515141
181.757,254.595731189
181.772,254.483135223
181.787,254.36971707
181.802,254.255466492
181.817,254.140373135
181.832,254.024426562
181.847,253.907616281
181.862,253.789931664
181.877,253.67136208
181.892,253.551896763
181.907,253.431524935
181.922,253.31023572
181.937,253.188018222
181.952,253.064861482
181.967,252.940754507
181.982,252.815686281
181.997,252.689645754
182.012,252.562621898
182.027,252.43460365
182.042,252.305579976
182.057,252.175539884
182.06,252.149408932
182.072,252.044472405
182.087,251.912366616
182.102,251.779211702
182.117,251.644996905
182.132,251.509711582
182.147,251.373345217
182.162,251.235887467
182.177,251.097328158
182.192,250.957657279
182.207,250.816865084
182.222,250.674942077
182.237,250.531879058
182.252,250.387667128
182.267,250.242297765
182.282,250.095762842
182.297,249.948054653
182.312,249.799165997
182.327,249.649090214
182.342,249.497821162
182.357,249.345353389
182.372,249.191682115
182.387,249.036803296
182.402,248.880713735
182.417,248.723411066
182.432,248.564893893
182.447,248.405161855
182.462,248.244215686
182.477,248.082057315
182.492,247.918689919
182.507,247.754118069
182.522,247.588347785
182.537,247.421386628
182.552,247.253243859
182.567,247.083930474
182.582,246.913459333
182.597,246.741845304
182.612,246.569105329
182.627,246.395258565
182.642,246.220326447
182.657,246.044332845
182.672,245.867304074
182.687,245.689269098
182.702,245.510259453
182.717,245.330309385
182.732,245.149455809
182.747,244.967738354
182.762,244.78519917
182.777,244.601882879
182.792,244.417836307
182.807,244.233108171
182.822,244.047748608
182.837,243.861808518
182.852,243.675338785
182.867,243.48838908
182.882,243.301006516
182.897,243.113233642
182.912,242.925106144
182.927,242.736649614
182.942,242.547875622
182.957,242.358776464
182.972,242.169318474
182.987,241.979433352
183.002,241.789006831
183.017,241.597863724
183.032,241.405748257
183.047,241.212297618
183.062,241.01700622
183.077,240.819176672
183.092,240.617851542
183.107,240.411716978
183.122,240.198963894
183.137,239.977084802
183.152,239.742570274
183.167,239.490447401
183.182,239.213565473
183.197,238.901478032
183.212,238.538696559
183.227,238.102062102
183.242,237.557345896
183.257,236.857582899
183.367,237.036676193
183.382,237.688174022
183.397,238.197602301
183.412,238.608920166
183.427,238.953221069
183.442,239.251411693
183.457,239.517488735
183.472,239.760924998
183.487,239.988230872
183.502,240.20395148
183.517,240.411305028
183.532,240.612597098
183.547,240.809494168
183.562,241.003207825
183.577,241.194620962
183.592,241.384376008
183.607,241.572937529
183.622,241.760637454
183.637,241.947708102
183.652,242.134306721
183.667,242.320533866
183.682,242.506447228
183.697,242.692072289
183.712,242.877410431
183.727,243.06244526
183.742,243.247147385
183.757,243.431478251
183.772,243.615393084
183.787,243.798843134
183.802,243.981777452
183.817,244.164144245
183.832,244.345891907
183.847,244.526969819
183.862,244.707328931
183.877,244.886922157
183.892,245.065704763
183.907,245.243634487
183.922,245.420671662
183.937,245.596779372
183.952,245.77192336
183.967,245.946072071
183.982,246.119196602
183.997,246.291270616
184.012,246.46227026
184.027,246.632174086
184.042,246.800962912
184.057,246.968619783
184.072,247.135129795
184.087,247.300480021
184.102,247.464659382
184.117,247.627658569
184.132,247.789469907
184.147,247.950087268
184.162,248.109505966
184.177,248.267722695
184.192,248.424735382
184.207,248.580543148
184.222,248.735146205
184.237,248.888545766
184.252,249.040744016
184.267,249.191743994
184.282,249.341549536
184.297,249.490165232
184.312,249.637596376
184.327,249.783848851
184.342,249.928929124
184.357,250.072844209
184.372,250.215601598
184.387,250.357209193
184.402,250.497675314
184.417,250.637008629
184.432,250.775218125
184.447,250.912313094
184.462,251.04830306
184.477,251.183197795
184.492,251.317007257
184.507,251.449741602
184.522,251.581411093
184.537,251.712026188
184.552,251.841597388
184.56,251.910278867
184.567,251.970135321
184.582,252.097650706
184.597,252.224154273
184.612,252.349656819
184.627,252.474169158
184.642,252.597702135
184.657,252.720266589
184.672,252.841873357
184.687,252.96253324
184.702,253.082257035
184.717,253.201055492
184.732,253.318939323
184.747,253.435919184
184.762,253.552005681
184.777,253.667209344
184.792,253.78154065
184.807,253.895010001
184.822,254.007627721
184.837,254.119404054
184.852,254.230349144
184.867,254.340473068
184.882,254.449785808
184.897,254.558297243
184.912,254.666017176
184.927,254.772955285
184.942,254.879121182
184.957,254.984524344
184.972,255.089174177
184.987,255.193079966
185.002,255.296250909
185.017,255.398696073
185.032,255.500424442
185.047,255.601444883
185.062,255.701766178
185.077,255.801396977
185.092,255.900345827
185.107,255.998621211
185.122,256.096231434
185.137,256.193184768
185.152,256.289489328
185.167,256.385153147
185.182,256.480184142
185.197,256.57459016
185.212,256.668378881
185.227,256.761557953
185.242,256.854134869
185.257,256.946117056
185.272,257.0375118
185.287,257.128326321
185.302,257.218567733
185.31,257.266464573
185.317,257.308243043
185.332,257.397359173
185.347,257.485922919
185.362,257.573941016
185.377,257.661420087
185.392,257.748366641
185.407,257.834787138
185.422,257.920687905
185.437,258.006075189
185.452,258.090955157
185.467,258.175333873
185.482,258.259217313
185.497,258.342611365
185.512,258.425521831
185.527,258.507954427
185.542,258.589914791
185.557,258.671408444
185.572,258.752440871
185.587,258.833017434
185.602,258.913143424
185.617,258.992824054
185.632,259.072064477
185.647,259.150869721
185.662,259.229244778
185.677,259.307194543
185.692,259.384723831
185.707,259.46183739
185.722,259.538539891
185.737,259.614835923
185.752,259.690730033
185.767,259.766226649
185.782,259.841330172
185.797,259.916044892
185.812,259.990375073
185.827,260.064324864
185.842,260.1378984
185.857,260.211099702
185.872,260.283932762
185.887,260.356401458
185.902,260.428509676
185.917,260.500261187
185.932,260.571659701
185.947,260.642708895
185.96,260.704005079
185.962,260.713412359
185.977,260.783773641
185.992,260.853796232
186.007,260.923483547
186.022,260.992838972
186.037,261.061865809
186.052,261.130567316
186.06,261.167076201
186.067,261.198946703
186.082,261.267007133
186.097,261.3347517
186.112,261.402183454
186.127,261.469305386
186.142,261.536120449
186.157,261.602631566
186.172,261.66884156
186.187,261.734753249
186.202,261.800369396
186.217,261.865692699
186.232,261.930725849
186.247,261.995471441
186.262,262.059932088
186.277,262.124110291
186.292,262.188008593
186.307,262.251629393
186.322,262.314975153
186.337,262.37804822
186.352,262.44085096
186.367,262.503385627
186.382,262.565654513
186.397,262.627659832
186.412,262.689403774
186.427,262.750888482
186.442,262.81211608
186.457,262.873088648
186.472,262.933808238
186.487,262.994276856
186.502,263.054496498
186.517,263.114469102
186.532,263.174196597
186.547,263.23368088
186.562,263.292923792
186.577,263.351927189
186.592,263.410692856
186.607,263.469222552
186.622,263.527518059
186.637,263.585581072
186.652,263.643413286
186.667,263.701016374
186.682,263.758391986
186.697,263.815541701
186.71,263.864889987
186.712,263.872467158
186.727,263.929169888
186.742,263.985651451
186.757,264.041913376
186.772,264.097957148
186.787,264.153784239
186.802,264.209396117
186.817,264.264794213
186.832,264.319979938
186.847,264.374954681
186.862,264.429719808
186.877,264.484276693
186.892,264.538626643
186.907,264.592770988
186.922,264.646711021
186.937,264.700448035
186.952,264.753983265
186.967,264.80731798
186.982,264.860453397
186.997,264.913390721
187.012,264.96613115
187.027,265.018675853
187.042,265.071026003
187.057,265.123182759
187.072,265.17514723
187.087,265.226920562
187.102,265.278503825
187.117,265.32989814
187.132,265.381104561
187.147,265.432124176
187.162,265.482958008
187.177,265.53360711
187.192,265.584072498
187.207,265.634355187
187.222,265.684456178
187.237,265.734376463
187.252,265.784117024
187.267,265.833678801
187.282,265.883062781
187.297,265.932269885
187.312,265.981301054
187.327,266.030157223
187.342,266.07883927
187.357,266.127348128
187.372,266.175684669
187.387,266.223849802
187.402,266.271844382
187.417,266.319669278
187.432,266.367325331
187.447,266.414813411
187.46,266.455834511
187.462,266.462134347
187.477,266.509288959
187.492,266.556278079
187.507,266.603102508
187.522,266.649763077
187.537,266.69626056
187.552,266.742595738
187.567,266.788769416
187.582,266.834782354
187.597,266.880635326
187.612,266.926329087
187.627,266.971864393
187.642,267.017241991
187.657,267.06246261
187.672,267.107526999
187.687,267.152435879
187.702,267.197189961
187.717,267.241789973
187.732,267.286236607
187.747,267.330530579
187.762,267.374672575
187.777,267.418663283
187.792,267.462503406
187.807,267.506193606
187.822,267.549734562
187.837,267.593126928
187.852,267.636371388
187.867,267.679468589
187.882,267.722419183
187.897,267.765223816
187.912,267.807883141
187.927,267.850397773
187.942,267.892768369
187.957,267.934995541
187.972,267.977079929
187.987,268.019022131
188.002,268.060822778
188.017,268.102482475
188.032,268.144001822
188.047,268.185381421
188.062,268.22662188
188.077,268.267723779
188.092,268.308687716
188.107,268.349514268
188.122,268.390204034
188.137,268.430757565
188.152,268.471175468
188.167,268.511458277
188.182,268.551606584
188.197,268.591620931
188.21,268.626192122
188.212,268.6315019
188.227,268.671250023
188.242,268.710865864
188.257,268.750349982
188.272,268.789702891
188.287,268.828925164
188.302,268.868017323
188.317,268.90697991
188.332,268.945813438
188.347,268.984518458
188.362,269.023095496
188.377,269.061545066
188.392,269.099867675
188.407,269.138063861
188.422,269.176134134
188.437,269.214079
188.452,269.251898954
188.467,269.289594515
188.482,269.327166187
188.497,269.364614454
188.512,269.401939833
188.527,269.439142795
188.542,269.476223852
188.557,269.513183477
188.572,269.550022162
188.587,269.586740386
188.602,269.62333864
188.617,269.659817385
188.632,269.696177101
188.647,269.732418272
188.66,269.763731755
188.662,269.768541356
188.677,269.804546824
188.692,269.840435147
188.707,269.87620678
188.722,269.911862185
