# 78954 TBPB Grantley Adams Observations at 12Z 04 Dec 2019
Frequency [GHz],TB
175.31,284.046175635
175.322,284.030977695
175.337,284.011922852
175.352,283.992804089
175.367,283.973621274
175.382,283.954374275
175.397,283.935062957
175.412,283.915687184
175.427,283.896246818
175.442,283.876741717
175.457,283.857171742
175.472,283.837536748
175.487,283.81783659
175.502,283.79807112
175.517,283.77824019
175.532,283.758343648
175.547,283.738381342
175.562,283.718353117
175.577,283.698258815
175.592,283.678098278
175.607,283.657871344
175.622,283.637577851
175.637,283.617217633
175.652,283.596790523
175.667,283.576296351
175.682,283.555734946
175.697,283.535106134
175.712,283.514409738
175.727,283.493645581
175.742,283.472813482
175.757,283.451913257
175.772,283.430944722
175.787,283.409907687
175.802,283.388801965
175.817,283.367627362
175.832,283.346383682
175.847,283.325070729
175.862,283.303688302
175.877,283.282236198
175.892,283.260714214
175.907,283.23912214
175.922,283.217459767
175.937,283.195726881
175.952,283.173923267
175.967,283.152048707
175.982,283.130102979
175.997,283.108085859
176.012,283.08599712
176.027,283.063836534
176.042,283.041603866
176.057,283.019298883
176.072,282.996921346
176.087,282.974471013
176.102,282.951947641
176.117,282.929350981
176.132,282.906680785
176.147,282.883936798
176.162,282.861118764
176.177,282.838226424
176.192,282.815259515
176.207,282.79221777
176.222,282.769100921
176.237,282.745908696
176.252,282.722640817
176.267,282.699297008
176.282,282.675876984
176.297,282.652380461
176.31,282.631954705
176.312,282.628807149
176.327,282.605156756
176.342,282.581428985
176.357,282.557623538
176.372,282.53374011
176.387,282.509778395
176.402,282.485738083
176.417,282.46161886
176.432,282.437420408
176.447,282.413142407
176.46,282.392036873
176.462,282.38878453
176.477,282.36434645
176.492,282.339827833
176.507,282.315228343
176.522,282.290547641
176.537,282.265785381
176.552,282.240941216
176.567,282.216014794
176.582,282.191005759
176.597,282.16591375
176.612,282.140738405
176.627,282.115479353
176.642,282.090136224
176.657,282.064708641
176.672,282.039196223
176.687,282.013598585
176.702,281.987915338
176.717,281.962146089
176.732,281.93629044
176.747,281.910347989
176.762,281.88431833
176.777,281.858201051
176.792,281.831995738
176.807,281.80570197
176.822,281.779319324
176.837,281.75284737
176.852,281.726285674
176.867,281.699633799
176.882,281.672891302
176.897,281.646057735
176.912,281.619132647
176.927,281.592115579
176.942,281.565006071
176.957,281.537803655
176.972,281.510507861
176.987,281.483118211
177.002,281.455634225
177.017,281.428055416
177.032,281.400381292
177.047,281.372611357
177.062,281.34474511
177.077,281.316782044
177.092,281.288721647
177.107,281.260563403
177.122,281.232306788
177.137,281.203951276
177.152,281.175496334
177.167,281.146941423
177.182,281.118286
177.197,281.089529516
177.21,281.064525054
177.212,281.060671416
177.227,281.031711141
177.242,281.002648125
177.257,280.973481798
177.272,280.944211581
177.287,280.914836894
177.302,280.885357148
177.31,280.869591455
177.317,280.85577175
177.332,280.8260801
177.347,280.796281592
177.362,280.766375616
177.377,280.736361555
177.392,280.706238785
177.407,280.676006679
177.422,280.6456646
177.437,280.615211909
177.452,280.584647958
177.467,280.553972095
177.482,280.523183659
177.497,280.492281985
177.512,280.461266403
177.527,280.430136233
177.542,280.398890792
177.557,280.367529389
177.572,280.336051327
177.587,280.304455902
177.602,280.272742406
177.617,280.24091012
177.632,280.208958322
177.647,280.176886283
177.66,280.148992685
177.662,280.144693266
177.677,280.112378528
177.692,280.07994132
177.707,280.047380885
177.722,280.01469646
177.737,279.981887275
177.752,279.948952552
177.767,279.915891508
177.782,279.882703352
177.797,279.849387285
177.812,279.815942503
177.827,279.782368194
177.842,279.748663538
177.857,279.714827709
177.872,279.680859872
177.887,279.646759188
177.902,279.612524807
177.917,279.578155874
177.932,279.543651525
177.947,279.50901089
177.96,279.478878088
177.962,279.474233091
177.977,279.439317243
177.992,279.404262451
178.007,279.369067815
178.022,279.333732426
178.037,279.298255368
178.052,279.262635717
178.067,279.226872541
178.082,279.1909649
178.097,279.154911847
178.112,279.118712425
178.127,279.082365672
178.142,279.045870615
178.157,279.009226275
178.172,278.972431664
178.187,278.935485785
178.202,278.898387635
178.217,278.861136201
178.232,278.823730461
178.247,278.786169388
178.262,278.748451942
178.277,278.710577079
178.292,278.672543743
178.307,278.634350871
178.322,278.595997392
178.337,278.557482225
178.352,278.518804282
178.367,278.479962464
178.382,278.440955665
178.397,278.40178277
178.41,278.367697705
178.412,278.362442654
178.427,278.322934185
178.442,278.28325622
178.457,278.243407608
178.472,278.20338719
178.487,278.163193797
178.502,278.122826249
178.517,278.082283359
178.532,278.041563932
178.547,278.00066676
178.562,277.959590629
178.577,277.918334314
178.592,277.876896581
178.607,277.835276187
178.622,277.793471878
178.637,277.751482392
178.652,277.709306458
178.667,277.666942793
178.682,277.624390106
178.697,277.581647096
178.712,277.538712453
178.727,277.495584855
178.742,277.452262972
178.757,277.408745463
178.772,277.365030979
178.787,277.321118159
178.802,277.277005633
178.817,277.23269202
178.832,277.18817593
178.847,277.143455961
178.862,277.098530704
178.877,277.053398737
178.892,277.008058629
178.907,276.962508937
178.922,276.91674821
178.937,276.870774984
178.952,276.824587788
178.967,276.778185136
178.982,276.731565536
178.997,276.684727482
179.012,276.637669458
179.027,276.590389939
179.042,276.542887387
179.057,276.495160255
179.072,276.447206985
179.087,276.399026006
179.102,276.350615739
179.117,276.301974591
179.132,276.253100961
179.147,276.203993235
179.16,276.161242593
179.162,276.154649789
179.177,276.105068986
179.192,276.055249179
179.207,276.00518871
179.222,275.954885909
179.237,275.904339096
179.252,275.853546578
179.267,275.80250665
179.282,275.751217597
179.297,275.699677692
179.312,275.647885197
179.327,275.59583836
179.342,275.543535419
179.357,275.490974601
179.372,275.438154119
179.387,275.385072175
179.402,275.33172696
179.417,275.278116651
179.432,275.224239414
179.447,275.170093402
179.462,275.115676758
179.477,275.060987609
179.492,275.006024073
179.507,274.950784254
179.522,274.895266243
179.537,274.839468119
179.552,274.783387948
179.567,274.727023783
179.582,274.670373666
179.597,274.613435622
179.612,274.556207668
179.627,274.498687804
179.642,274.440874017
179.657,274.382764283
179.672,274.324356563
179.687,274.265648804
179.702,274.206638941
179.717,274.147324893
179.732,274.087704566
179.747,274.027775854
179.762,273.967536633
179.777,273.906984767
179.792,273.846118107
179.807,273.784934487
179.822,273.723431726
179.837,273.661607631
179.852,273.599459991
179.867,273.536986582
179.882,273.474185164
179.897,273.41105348
179.91,273.356070451
179.912,273.34758926
179.927,273.283790215
179.942,273.219654044
179.957,273.155178427
179.972,273.090361027
179.987,273.025199492
180.002,272.959691452
180.017,272.893834522
180.032,272.827626297
180.047,272.761064356
180.062,272.694146259
180.077,272.62686955
180.092,272.559231752
180.107,272.491230371
180.122,272.422862894
180.137,272.354126788
180.152,272.285019502
180.167,272.215538464
180.182,272.145681081
180.197,272.07544474
180.212,272.00482681
180.227,271.933824634
180.242,271.862435537
180.257,271.79065682
180.272,271.718485763
180.287,271.645919622
180.302,271.57295563
180.317,271.499590998
180.332,271.42582291
180.347,271.351648528
180.362,271.277064987
180.377,271.202069397
180.392,271.126658843
180.407,271.050830383
180.422,270.974581046
180.437,270.897907836
180.452,270.820807726
180.467,270.743277664
180.482,270.665314564
180.497,270.586915313
180.512,270.508076767
180.527,270.42879575
180.542,270.349069053
180.557,270.268893437
180.56,270.252804156
180.572,270.188265628
180.587,270.107182318
180.602,270.025640163
180.617,269.943635787
180.632,269.861165774
180.647,269.778226673
180.66,269.705963982
180.662,269.694814994
180.677,269.610927211
180.692,269.526559755
180.707,269.441709019
180.722,269.356371354
180.737,269.27054307
180.752,269.184220433
180.767,269.097399666
180.782,269.010076948
180.797,268.922248411
180.812,268.833910143
180.827,268.745058182
180.842,268.65568852
180.857,268.565797099
180.872,268.475379811
180.887,268.384432497
180.902,268.292950947
180.917,268.200930897
180.932,268.10836803
180.947,268.015257973
180.962,267.9215963
180.977,267.827378527
180.992,267.732600112
181.007,267.637256455
181.022,267.541342899
181.037,267.444854724
181.052,267.34778715
181.067,267.250135336
181.082,267.151894378
181.097,267.05305931
181.112,266.953625099
181.127,266.85358665
181.142,266.752938803
181.157,266.651676329
181.172,266.549793935
181.187,266.44728626
181.202,266.344147875
181.217,266.240373283
181.232,266.13595692
181.247,266.030893152
181.262,265.925176275
181.277,265.818800519
181.292,265.711760041
181.307,265.604048932
181.31,265.582425709
181.322,265.495661211
181.337,265.386590832
181.352,265.276831676
181.367,265.166377558
181.382,265.055222225
181.397,264.943359357
181.412,264.830782567
181.427,264.717485402
181.442,264.603461345
181.457,264.488703814
181.472,264.373206168
181.487,264.256961702
181.502,264.139963651
181.517,264.022205194
181.532,263.903679454
181.547,263.784379499
181.562,263.664298344
181.577,263.543428957
181.592,263.421764256
181.607,263.299297116
181.622,263.17602037
181.637,263.051926809
181.652,262.927009191
181.667,262.801260241
181.682,262.674672652
181.697,262.547239092
181.712,262.418952207
181.727,262.289804623
181.742,262.15978895
181.757,262.028897788
181.772,261.89712373
181.787,261.764459362
181.802,261.630897273
181.817,261.496430057
181.832,261.361050313
181.847,261.224750655
181.862,261.08752371
181.877,260.949362126
181.892,260.810258572
181.907,260.670205744
181.922,260.529196366
181.937,260.38722319
181.952,260.244279003
181.967,260.100356623
181.982,259.955448905
181.997,259.809548735
182.012,259.662649033
182.027,259.514742748
182.042,259.365822857
182.057,259.21588236
182.06,259.185771173
182.072,259.064914271
182.087,258.912911614
182.102,258.75986741
182.117,258.605774668
182.132,258.450626365
182.147,258.294415436
182.162,258.137134749
182.177,257.97877708
182.192,257.81933509
182.207,257.658801289
182.222,257.497168001
182.237,257.334427323
182.252,257.170571072
182.267,257.005590736
182.282,256.839477409
182.297,256.672221719
182.312,256.50381375
182.327,256.334242952
182.342,256.163498034
182.357,255.991566858
182.372,255.818436298
182.387,255.644092102
182.402,255.468518724
182.417,255.291699138
182.432,255.113614628
182.447,254.934244556
182.462,254.753566093
182.477,254.571553918
182.492,254.388179886
182.507,254.203412639
182.522,254.017217182
182.537,253.829554388
182.552,253.640380451
182.567,253.449646253
182.582,253.257296657
182.597,253.063269692
182.612,252.867495634
182.627,252.669895948
182.642,252.470382087
182.657,252.268854109
182.672,252.065199093
182.687,251.859289324
182.702,251.650980185
182.717,251.440107742
182.732,251.226485939
182.747,251.009903342
182.762,250.790119363
182.777,250.566859857
182.792,250.339811978
182.807,250.108618161
182.822,249.872869059
182.837,249.632095239
182.852,249.385757396
182.867,249.133234782
182.882,248.873811518
182.897,248.606660338
182.912,248.33082328
182.927,248.045188673
182.942,247.748463698
182.957,247.439141638
182.972,247.115462748
182.987,246.775367561
183.002,246.416441228
183.017,246.035847407
183.032,245.630250184
183.047,245.195722733
183.062,244.727642084
183.077,244.220570867
183.092,243.668129926
183.107,243.062871501
183.122,242.396173334
183.137,241.658193429
183.152,240.837959746
183.167,239.923730039
183.182,238.903862865
183.197,237.768619691
183.212,236.513605922
183.227,235.145970944
183.242,233.694888659
183.257,232.227430545
183.367,232.575933283
183.382,234.042138951
183.397,235.470513751
183.412,236.805475101
183.427,238.024744041
183.442,239.124873785
183.457,240.112031667
183.472,240.996643711
183.487,241.790463226
183.502,242.505060627
183.517,243.151113687
183.532,243.738133514
183.547,244.274418241
183.562,244.767118254
183.577,245.222349525
183.592,245.645321401
183.607,246.040461809
183.622,246.411532046
183.637,246.761728173
183.652,247.093768655
183.667,247.409969066
183.682,247.712305261
183.697,248.002466494
183.712,248.281899984
183.727,248.551848235
183.742,248.813380297
183.757,249.06741795
183.772,249.31475768
183.787,249.556089129
183.802,249.792010629
183.817,250.0230423
183.832,250.249637117
183.847,250.472190284
183.862,250.69104719
183.877,250.906510184
183.892,251.118844342
183.907,251.328282409
183.922,251.535029026
183.937,251.73926436
183.952,251.941147233
183.967,252.14081782
183.982,252.338399975
183.997,252.534003259
184.012,252.727724689
184.027,252.919650265
184.042,253.109856302
184.057,253.29841059
184.072,253.485373412
184.087,253.670798436
184.102,253.854733495
184.117,254.037221277
184.132,254.21829993
184.147,254.398003596
184.162,254.576362887
184.177,254.753405295
184.192,254.929155566
184.207,255.103636028
184.222,255.276866878
184.237,255.448866439
184.252,255.61965139
184.267,255.789236971
184.282,255.957637157
184.297,256.124864824
184.312,256.290931885
184.327,256.455849424
184.342,256.619627801
184.357,256.782276753
184.372,256.943805486
184.387,257.104222747
184.402,257.263536896
184.417,257.42175597
184.432,257.578887728
184.447,257.734939708
184.462,257.88991926
184.477,258.043833589
184.492,258.196689779
184.507,258.348494828
184.522,258.499255666
184.537,258.648979177
184.552,258.797672217
184.56,258.876556186
184.567,258.945341627
184.582,259.091994246
184.597,259.237636921
184.612,259.382276513
184.627,259.525919907
184.642,259.668574014
184.657,259.810245777
184.672,259.950942169
184.687,260.0906702
184.702,260.229436915
184.717,260.367249392
184.732,260.504114743
184.747,260.640040112
184.762,260.775032675
184.777,260.909099632
184.792,261.042248212
184.807,261.174485663
184.822,261.305819253
184.837,261.436256264
184.852,261.565803989
184.867,261.694469731
184.882,261.822260795
184.897,261.949184487
184.912,262.07524811
184.927,262.200458957
184.942,262.324824313
184.957,262.448351448
184.972,262.571047611
184.987,262.692920032
185.002,262.813975915
185.017,262.934222436
185.032,263.053666738
185.047,263.17231593
185.062,263.290177085
185.077,263.407257234
185.092,263.523563366
185.107,263.639102425
185.122,263.753881307
185.137,263.867906859
185.152,263.981185874
185.167,264.093725095
185.182,264.205531206
185.197,264.316610837
185.212,264.426970557
185.227,264.536616878
185.242,264.645556247
185.257,264.753795054
185.272,264.861339621
185.287,264.96819621
185.302,265.074371016
185.31,265.130720924
185.317,265.179870169
185.332,265.284699733
185.347,265.388865708
185.362,265.492374025
185.377,265.595230549
185.392,265.697441078
185.407,265.799011344
185.422,265.899947009
185.437,266.000253672
185.452,266.099936863
185.467,266.199002045
185.482,266.297454616
185.497,266.395299908
185.512,266.492543187
185.527,266.589189653
185.542,266.685244444
185.557,266.780712632
185.572,266.875599226
185.587,266.96990917
185.602,267.063647351
185.617,267.156818588
185.632,267.249427644
185.647,267.341479221
185.662,267.432977959
185.677,267.523928442
185.692,267.614335195
185.707,267.704202686
185.722,267.793535328
185.737,267.882337477
185.752,267.970613435
185.767,268.05836745
185.782,268.145603719
185.797,268.232326384
185.812,268.318539537
185.827,268.404247221
185.842,268.489453428
185.857,268.574162102
185.872,268.658377138
185.887,268.742102386
185.902,268.825341649
185.917,268.908098685
185.932,268.990377207
185.947,269.072180884
185.96,269.142696112
185.962,269.153513343
185.977,269.23437817
185.992,269.314778908
186.007,269.39471906
186.022,269.47420209
186.037,269.553231421
186.052,269.631810442
186.06,269.673536283
186.067,269.7099425
186.082,269.787630908
186.097,269.864878943
186.112,269.941689845
186.127,270.018066821
186.142,270.094013043
186.157,270.169531651
186.172,270.24462575
186.187,270.319298416
186.202,270.393552692
186.217,270.46739159
186.232,270.540818093
186.247,270.613835152
186.262,270.686445691
186.277,270.758652606
186.292,270.830458764
186.307,270.901867003
186.322,270.972880138
186.337,271.043500954
186.352,271.113732211
186.367,271.183576645
186.382,271.253036965
186.397,271.322115857
186.412,271.390815981
186.427,271.459139977
186.442,271.527090458
186.457,271.594670015
186.472,271.661881218
186.487,271.728726613
186.502,271.795208726
186.517,271.861330061
186.532,271.9270931
186.547,271.992500306
186.562,272.057554121
186.577,272.122256966
186.592,272.186611244
186.607,272.250619338
186.622,272.314283611
186.637,272.377606409
186.652,272.440590057
186.667,272.503236864
186.682,272.565549121
186.697,272.627529099
186.71,272.680978046
186.712,272.689179053
186.727,272.750501221
186.742,272.811497824
186.757,272.872171065
186.772,272.932523132
186.787,272.992556196
186.802,273.052272411
186.817,273.111673916
186.832,273.170762834
186.847,273.229541272
186.862,273.288011322
186.877,273.346175061
186.892,273.404034551
186.907,273.461591838
186.922,273.518848954
186.937,273.575807917
186.952,273.63247073
186.967,273.688839382
186.982,273.744915847
186.997,273.800702086
187.012,273.856200045
187.027,273.911411659
187.042,273.966338845
187.057,274.020983511
187.072,274.075347549
187.087,274.129432838
187.102,274.183241244
187.117,274.236774622
187.132,274.290034811
187.147,274.343023639
187.162,274.395742921
187.177,274.44819446
187.192,274.500380045
187.207,274.552301453
187.222,274.603960451
187.237,274.655358791
187.252,274.706498213
187.267,274.757380448
187.282,274.808007212
187.297,274.858380209
187.312,274.908501134
187.327,274.958371668
187.342,275.007993482
187.357,275.057368232
187.372,275.106497568
187.387,275.155383125
187.402,275.204026526
187.417,275.252429385
187.432,275.300593305
187.447,275.348519876
187.46,275.38986547
187.462,275.396210678
187.477,275.44366728
187.492,275.490891241
187.507,275.537884106
187.522,275.584647414
187.537,275.63118269
187.552,275.677491449
187.567,275.723575196
187.582,275.769435424
187.597,275.815073619
187.612,275.860491252
187.627,275.905689787
187.642,275.950670678
187.657,275.995435365
187.672,276.039985283
187.687,276.084321852
187.702,276.128446487
187.717,276.172360588
187.732,276.216065548
187.747,276.25956275
187.762,276.302853567
187.777,276.345939361
187.792,276.388821487
187.807,276.431501287
187.822,276.473980096
187.837,276.516259238
187.852,276.558340029
187.867,276.600223774
187.882,276.641911769
187.897,276.683405301
187.912,276.724705649
187.927,276.76581408
187.942,276.806731854
187.957,276.847460221
187.972,276.888000422
187.987,276.92835369
188.002,276.968521247
188.017,277.008504308
188.032,277.048304078
188.047,277.087921753
188.062,277.127358523
188.077,277.166615565
188.092,277.20569405
188.107,277.24459514
188.122,277.283319989
188.137,277.321869741
188.152,277.360245532
188.167,277.39844849
188.182,277.436479736
188.197,277.474340379
188.21,277.507015792
188.212,277.512031524
188.227,277.549554265
188.242,277.586909688
188.257,277.624098872
188.272,277.661122888
188.287,277.697982797
188.302,277.734679655
188.317,277.771214507
188.332,277.807588393
188.347,277.843802343
188.362,277.87985738
188.377,277.915754519
188.392,277.951494768
188.407,277.987079127
188.422,278.022508589
188.437,278.057784137
188.452,278.09290675
188.467,278.127877397
188.482,278.162697041
188.497,278.197366636
188.512,278.231887131
188.527,278.266259466
188.542,278.300484575
188.557,278.334563383
188.572,278.36849681
188.587,278.402285767
188.602,278.435931159
188.617,278.469433885
188.632,278.502794835
188.647,278.536014893
188.66,278.564692323
188.662,278.569094937
188.677,278.602035837
188.692,278.634838456
188.707,278.667503651
188.722,278.700032273
188.737,278.732425166
