# 10410 EDZE Essen Observations at 12Z 04 Dec 2019
Frequency [GHz],TB
175.31,268.343129897
175.322,268.362504648
175.337,268.386553387
175.352,268.410412546
175.367,268.434081021
175.382,268.457557704
175.397,268.480841501
175.412,268.503931312
175.427,268.526826039
175.442,268.549524581
175.457,268.572025854
175.472,268.594328753
175.487,268.616432194
175.502,268.638335083
175.517,268.66003634
175.532,268.681534874
175.547,268.702829606
175.562,268.723919449
175.577,268.744803335
175.592,268.76548018
175.607,268.785948911
175.622,268.806208466
175.637,268.826257763
175.652,268.84609575
175.667,268.86572136
175.682,268.885133535
175.697,268.904331222
175.712,268.923313365
175.727,268.94207892
175.742,268.960626832
175.757,268.978956073
175.772,268.997065595
175.787,269.014954367
175.802,269.03262136
175.817,269.050065549
175.832,269.06728591
175.847,269.084281427
175.862,269.101051085
175.877,269.117593879
175.892,269.133908799
175.907,269.14999485
175.922,269.165851039
175.937,269.181476371
175.952,269.196869867
175.967,269.212030541
175.982,269.226957426
175.997,269.241649552
176.012,269.256105949
176.027,269.270325667
176.042,269.284307752
176.057,269.298051253
176.072,269.311555236
176.087,269.324818765
176.102,269.337840912
176.117,269.350620753
176.132,269.363157372
176.147,269.375449861
176.162,269.387497322
176.177,269.399298852
176.192,269.410853567
176.207,269.422160584
176.222,269.433219024
176.237,269.444028026
176.252,269.454586724
176.267,269.464894266
176.282,269.474949805
176.297,269.4847525
176.31,269.493043013
176.312,269.494301532
176.327,269.503596065
176.342,269.512635291
176.357,269.521418396
176.372,269.529944586
176.387,269.538213071
176.402,269.546223065
176.417,269.553973794
176.432,269.561464492
176.447,269.568694404
176.46,269.574748799
176.462,269.575662779
176.477,269.582368876
176.492,269.588811964
176.507,269.594991323
176.522,269.600906237
176.537,269.606556002
176.552,269.611939927
176.567,269.617057323
176.582,269.62190751
176.597,269.626489824
176.612,269.630803607
176.627,269.634848215
176.642,269.638623005
176.657,269.642127349
176.672,269.645360631
176.687,269.648322241
176.702,269.651011579
176.717,269.653428056
176.732,269.655571091
176.747,269.657440124
176.762,269.659034588
176.777,269.660353937
176.792,269.661397636
176.807,269.662165155
176.822,269.66265598
176.837,269.662869598
176.852,269.66280552
176.867,269.662463258
176.882,269.661842339
176.897,269.660942295
176.912,269.659762677
176.927,269.65830304
176.942,269.656562954
176.957,269.654541995
176.972,269.652239755
176.987,269.649655835
177.002,269.646789843
177.017,269.643641405
177.032,269.640210154
177.047,269.636495735
177.062,269.632497798
177.077,269.628216014
177.092,269.623650055
177.107,269.618799613
177.122,269.613664386
177.137,269.608244081
177.152,269.602538421
177.167,269.596547135
177.182,269.590269966
177.197,269.583706666
177.21,269.577786843
177.212,269.576857001
177.227,269.56972074
177.242,269.562297674
177.257,269.554587593
177.272,269.546590304
177.287,269.538305627
177.302,269.529733389
177.31,269.525043889
177.317,269.520873424
177.332,269.51172558
177.347,269.502289717
177.362,269.492565703
177.377,269.482553416
177.392,269.472252745
177.407,269.461663589
177.422,269.450785855
177.437,269.439619461
177.452,269.428164338
177.467,269.416420419
177.482,269.404387654
177.497,269.392065999
177.512,269.379455417
177.527,269.366555887
177.542,269.353367386
177.557,269.339889917
177.572,269.326123472
177.587,269.312068064
177.602,269.297723713
177.617,269.283090442
177.632,269.268168287
177.647,269.252957294
177.66,269.239540831
177.662,269.23745751
177.677,269.221668993
177.692,269.205591814
177.707,269.189226041
177.722,269.172571753
177.737,269.155629042
177.752,269.138398
177.767,269.120878727
177.782,269.103071331
177.797,269.084975923
177.812,269.066592623
177.827,269.047921555
177.842,269.028962853
177.857,269.009716648
177.872,268.990183083
177.887,268.970362305
177.902,268.95025446
177.917,268.929859707
177.932,268.909178204
177.947,268.88821011
177.96,268.869806073
177.962,268.866955597
177.977,268.845414828
177.992,268.82358798
178.007,268.80147523
178.022,268.779076757
178.037,268.756392739
178.052,268.733423359
178.067,268.710168802
178.082,268.686629258
178.097,268.662804911
178.112,268.638695952
178.127,268.614302568
178.142,268.589624953
178.157,268.564663293
178.172,268.539417778
178.187,268.513888602
178.202,268.488075951
178.217,268.461980014
178.232,268.435600977
178.247,268.408939025
178.262,268.381994342
178.277,268.354767109
178.292,268.327257503
178.307,268.299465703
178.322,268.271391878
178.337,268.243036202
178.352,268.214398837
178.367,268.185479946
178.382,268.156279686
178.397,268.126798212
178.41,268.101020244
178.412,268.097035671
178.427,268.066992204
178.442,268.036667951
178.457,268.00606304
178.472,267.975177604
178.487,267.944011753
178.502,267.912565607
178.517,267.880839266
178.532,267.848832831
178.547,267.816546396
178.562,267.783980037
178.577,267.751133837
178.592,267.718007854
178.607,267.684602154
178.622,267.650916782
178.637,267.616951776
178.652,267.582707172
178.667,267.548182986
178.682,267.51337923
178.697,267.478295905
178.712,267.442933002
178.727,267.407290498
178.742,267.371368362
178.757,267.335166553
178.772,267.298685016
178.787,267.261923685
178.802,267.224882482
178.817,267.187561318
178.832,267.149960092
178.847,267.112078688
178.862,267.073916979
178.877,267.035474826
178.892,266.996752078
178.907,266.957748565
178.922,266.918464113
178.937,266.878898523
178.952,266.839051594
178.967,266.798923106
178.982,266.758512821
178.997,266.717820493
179.012,266.676845864
179.027,266.635588652
179.042,266.59404857
179.057,266.552225313
179.072,266.510118561
179.087,266.467727979
179.102,266.425053222
179.117,266.382093924
179.132,266.338849709
179.147,266.295320186
179.16,266.257363499
179.162,266.251504943
179.177,266.207403567
179.192,266.163015614
179.207,266.118340635
179.222,266.073378165
179.237,266.028127725
179.252,265.982588818
179.267,265.936760936
179.282,265.890643555
179.297,265.844236137
179.312,265.797538127
179.327,265.75054896
179.342,265.703268057
179.357,265.655694822
179.372,265.607828644
179.387,265.559668904
179.402,265.511214963
179.417,265.462466174
179.432,265.413421873
179.447,265.364081386
179.462,265.31444402
179.477,265.264509076
179.492,265.214275842
179.507,265.16374359
179.522,265.112911582
179.537,265.061779066
179.552,265.010345285
179.567,264.95860946
179.582,264.90657081
179.597,264.854228541
179.612,264.801581844
179.627,264.748629906
179.642,264.695371901
179.657,264.641806991
179.672,264.587934335
179.687,264.533753075
179.702,264.479262349
179.717,264.424461289
179.732,264.369349011
179.747,264.313924631
179.762,264.258187254
179.777,264.202135976
179.792,264.145769892
179.807,264.089088084
179.822,264.032089634
179.837,263.974773613
179.852,263.917139088
179.867,263.859185127
179.882,263.800910785
179.897,263.742315116
179.91,263.691271552
179.912,263.683397174
179.927,263.624156001
179.942,263.564590643
179.957,263.504700144
179.972,263.444483542
179.987,263.38393987
180.002,263.323068167
180.017,263.261867467
180.032,263.200336802
180.047,263.138475206
180.062,263.076281712
180.077,263.013755353
180.092,262.950895161
180.107,262.887700174
180.122,262.824169426
180.137,262.760301954
180.152,262.6960968
180.167,262.631553004
180.182,262.566669612
180.197,262.501445673
180.212,262.435880237
180.227,262.369972359
180.242,262.303721099
180.257,262.237125518
180.272,262.170184688
180.287,262.102897677
180.302,262.035263565
180.317,261.967281435
180.332,261.898950377
180.347,261.830269482
180.362,261.761237854
180.377,261.691854597
180.392,261.622118826
180.407,261.552029662
180.422,261.48158623
180.437,261.410787664
180.452,261.339633106
180.467,261.268121702
180.482,261.196252609
180.497,261.12402499
180.512,261.051438014
180.527,260.978490862
180.542,260.905182717
180.557,260.831512773
180.56,260.816735297
180.572,260.75748023
180.587,260.6830843
180.602,260.608324197
180.617,260.533199145
180.632,260.457708375
180.647,260.381851129
180.66,260.31581116
180.662,260.305626651
180.677,260.229034195
180.692,260.152073023
180.707,260.074742401
180.722,259.997041605
180.737,259.918969915
180.752,259.84052662
180.767,259.761711013
180.782,259.682522393
180.797,259.602960066
180.812,259.523023342
180.827,259.442711536
180.842,259.362023969
180.857,259.280959965
180.872,259.199518853
180.887,259.117699962
180.902,259.03550263
180.917,258.952926192
180.932,258.86996999
180.947,258.786633363
180.962,258.702915655
180.977,258.618816209
180.992,258.534334368
181.007,258.449469476
181.022,258.364220875
181.037,258.278587906
181.052,258.192569907
181.067,258.106166215
181.082,258.019376163
181.097,257.93219908
181.112,257.844634292
181.127,257.756681117
181.142,257.668338871
181.157,257.579606861
181.172,257.49048439
181.187,257.40097075
181.202,257.311065227
181.217,257.2207671
181.232,257.130075634
181.247,257.038990091
181.262,256.947509718
181.277,256.855633751
181.292,256.763361417
181.307,256.67069193
181.31,256.652110305
181.322,256.577624493
181.337,256.484158295
181.352,256.390292512
181.367,256.296026308
181.382,256.201358834
181.397,256.106289225
181.412,256.010816604
181.427,255.914940079
181.442,255.818658747
181.457,255.721971688
181.472,255.624877969
181.487,255.527376644
181.502,255.429466756
181.517,255.331147331
181.532,255.23241739
181.547,255.133275936
181.562,255.033721966
181.577,254.933754465
181.592,254.833372413
181.607,254.732574781
181.622,254.631360535
181.637,254.529728637
181.652,254.427678049
181.667,254.325207731
181.682,254.222316647
181.697,254.119003766
181.712,254.015268064
181.727,253.911108529
181.742,253.806524162
181.757,253.701513982
181.772,253.59607703
181.787,253.490212372
181.802,253.383919104
181.817,253.277196357
181.832,253.170043303
181.847,253.062459158
181.862,252.95444319
181.877,252.845994725
181.892,252.737113155
181.907,252.62779794
181.922,252.518048623
181.937,252.407864832
181.952,252.297246292
181.967,252.186192831
181.982,252.074704396
181.997,251.962781053
182.012,251.850423008
182.027,251.737630609
182.042,251.624404368
182.057,251.510744962
182.06,251.487961173
182.072,251.396653255
182.087,251.282130307
182.102,251.16717739
182.117,251.051796002
182.132,250.935987884
182.147,250.819755036
182.162,250.703099729
182.177,250.586024532
182.192,250.468532319
182.207,250.3506263
182.222,250.232310029
182.237,250.113587431
182.252,249.994462821
182.267,249.874940925
182.282,249.755026902
182.297,249.634726366
182.312,249.514045408
182.327,249.392990622
182.342,249.271569122
182.357,249.149788575
182.372,249.027657215
182.387,248.905183872
182.402,248.782377992
182.417,248.659249664
182.432,248.535809636
182.447,248.412069342
182.462,248.288040916
182.477,248.163737214
182.492,248.039171831
182.507,247.914359109
182.522,247.789314153
182.537,247.664052836
182.552,247.5385918
182.567,247.412948453
182.582,247.287140962
182.597,247.161188233
182.612,247.035109885
182.627,246.908926215
182.642,246.782658147
182.657,246.65632717
182.672,246.529955254
182.687,246.403564749
182.702,246.277178257
182.717,246.15081848
182.732,246.024508028
182.747,245.898269187
182.762,245.772123645
182.777,245.646092157
182.792,245.520194133
182.807,245.39444716
182.822,245.268866408
182.837,245.143463926
182.852,245.018247789
182.867,244.893221059
182.882,244.768380537
182.897,244.643715232
182.912,244.519204501
182.927,244.394815758
182.942,244.270501659
182.957,244.146196604
182.972,244.021812378
182.987,243.897232677
183.002,243.772306182
183.017,243.64683772
183.032,243.520576888
183.047,243.393203244
183.062,243.264306826
183.077,243.133362185
183.092,242.999693272
183.107,242.862425191
183.122,242.720416677
183.137,242.572163577
183.152,242.415657538
183.167,242.248173208
183.182,242.065937185
183.197,241.863592992
183.212,241.633297755
183.227,241.363122078
183.242,241.034087847
183.257,240.614648527
183.367,240.71546436
183.382,241.104189152
183.397,241.4121781
183.412,241.667070735
183.427,241.885658919
183.442,242.078623013
183.457,242.25305766
183.472,242.413849498
183.487,242.564464527
183.502,242.707419852
183.517,242.844578578
183.532,242.97734101
183.547,243.106772587
183.562,243.23369182
183.577,243.358732167
183.592,243.48238645
183.607,243.605039333
183.622,243.726991421
183.637,243.84847741
183.652,243.969679921
183.667,244.090740162
183.682,244.211766227
183.697,244.332839619
183.712,244.454020414
183.727,244.575351379
183.742,244.696861285
183.757,244.818567578
183.772,244.940478553
183.787,245.062595124
183.802,245.184912279
183.817,245.307420274
183.832,245.430105618
183.847,245.55295189
183.862,245.675940415
183.877,245.799050824
183.892,245.92226152
183.907,246.045550062
183.922,246.168893494
183.937,246.2922686
183.952,246.415652134
183.967,246.539020993
183.982,246.662352372
183.997,246.785623877
184.012,246.908813629
184.027,247.03190034
184.042,247.154863368
184.057,247.277682773
184.072,247.400339342
184.087,247.522814619
184.102,247.645090919
184.117,247.767151335
184.132,247.888979742
184.147,248.010560791
184.162,248.131879905
184.177,248.252923265
184.192,248.373677799
184.207,248.494131162
184.222,248.614271721
184.237,248.734088533
184.252,248.853571324
184.267,248.97271047
184.282,249.091496968
184.297,249.209922421
184.312,249.327979008
184.327,249.445659463
184.342,249.562957053
184.357,249.679865554
184.372,249.796379225
184.387,249.912492792
184.402,250.02820142
184.417,250.143500692
184.432,250.258386593
184.447,250.372855482
184.462,250.486904079
184.477,250.600529439
184.492,250.713728941
184.507,250.826500261
184.522,250.938841363
184.537,251.050750475
184.552,251.16222608
184.56,251.221502026
184.567,251.273266892
184.582,251.383871851
184.597,251.494040098
184.612,251.603770973
184.627,251.71306399
184.642,251.821918834
184.657,251.930335346
184.672,252.038313509
184.687,252.14585344
184.702,252.252955381
184.717,252.359619687
184.732,252.465846818
184.747,252.571637328
184.762,252.676991861
184.777,252.781911139
184.792,252.886395959
184.807,252.990447181
184.822,253.094065727
184.837,253.197252569
184.852,253.30000873
184.867,253.402335271
184.882,253.504233294
184.897,253.605703931
184.912,253.706748343
184.927,253.807367714
184.942,253.907563248
184.957,254.007336167
184.972,254.106687706
184.987,254.20561911
185.002,254.304131631
185.017,254.402226528
185.032,254.49990506
185.047,254.597168489
185.062,254.694018076
185.077,254.790455076
185.092,254.886480743
185.107,254.982096323
185.122,255.077303055
185.137,255.17210217
185.152,255.26649489
185.167,255.360482425
185.182,255.454065977
185.197,255.547246734
185.212,255.640025874
185.227,255.73240456
185.242,255.824383944
185.257,255.915965165
185.272,256.007149349
185.287,256.097937606
185.302,256.188331037
185.31,256.236379802
185.317,256.278330727
185.332,256.367937749
185.347,256.45715316
185.362,256.54597801
185.377,256.63441333
185.392,256.722460144
185.407,256.810119459
185.422,256.897392275
185.437,256.984279579
185.452,257.070782345
185.467,257.15690154
185.482,257.242638118
185.497,257.327993026
185.512,257.4129672
185.527,257.497561569
185.542,257.58177705
185.557,257.665614559
185.572,257.749074997
185.587,257.832159266
185.602,257.914868255
185.617,257.997202853
185.632,258.07916394
185.647,258.160752394
185.662,258.241969085
185.677,258.322814884
185.692,258.403290656
185.707,258.483397263
185.722,258.563135567
185.737,258.642506426
185.752,258.721510697
185.767,258.800149235
185.782,258.878422898
185.797,258.95633254
185.812,259.033879018
185.827,259.111063186
185.842,259.187885904
185.857,259.264348029
185.872,259.340450421
185.887,259.416193943
185.902,259.491579459
185.917,259.566607837
185.932,259.641279945
185.947,259.715596655
185.96,259.779717674
185.962,259.789558847
185.977,259.863167397
185.992,259.936423191
186.007,260.009327115
186.022,260.081880061
186.037,260.154082924
186.052,260.225936605
186.06,260.264116104
186.067,260.297442008
186.082,260.368600044
186.097,260.439411627
186.112,260.509877675
186.127,260.579999115
186.142,260.649776873
186.157,260.719211886
186.172,260.788305092
186.187,260.857057437
186.202,260.92546987
186.217,260.993543347
186.232,261.061278828
186.247,261.128677279
186.262,261.195739669
186.277,261.262466976
186.292,261.328860179
186.307,261.394920264
186.322,261.460648223
186.337,261.526045051
186.352,261.591111746
186.367,261.655849314
186.382,261.720258765
186.397,261.784341111
186.412,261.848097372
186.427,261.911528567
186.442,261.974635723
186.457,262.037419871
186.472,262.09988204
186.487,262.162023271
186.502,262.223844602
186.517,262.285347075
186.532,262.346531737
186.547,262.407399637
186.562,262.467951825
186.577,262.528189355
186.592,262.58811328
186.607,262.647724661
186.622,262.707024554
186.637,262.766014022
186.652,262.824694124
186.667,262.883065926
186.682,262.941130487
186.697,262.998888875
186.71,263.048699305
186.712,263.056342151
186.727,263.113491381
186.742,263.17033763
186.757,263.22688196
186.772,263.283125435
186.787,263.339069117
186.802,263.394714066
186.817,263.450061343
186.832,263.505112008
186.847,263.559867114
186.862,263.614327716
186.877,263.668494867
186.892,263.722369616
186.907,263.775953008
186.922,263.829246089
186.937,263.882249899
186.952,263.934965471
186.967,263.987393843
186.982,264.039536041
186.997,264.09139309
187.012,264.142966012
187.027,264.194255822
187.042,264.245263531
187.057,264.295990147
187.072,264.346436666
187.087,264.396604088
187.102,264.4464934
187.117,264.496105587
187.132,264.545441625
187.147,264.594502488
187.162,264.64328914
187.177,264.691802536
187.192,264.740043634
187.207,264.788013374
187.222,264.835712694
187.237,264.883142526
187.252,264.930303791
187.267,264.977197405
187.282,265.023824275
187.297,265.0701853
187.312,265.116281374
187.327,265.162113377
187.342,265.207682187
187.357,265.252988667
187.372,265.298033677
187.387,265.342818066
187.402,265.387342677
187.417,265.43160834
187.432,265.475615876
187.447,265.519366102
187.46,265.55707545
187.462,265.562859821
187.477,265.606097829
187.492,265.649080913
187.507,265.69180985
187.522,265.734285406
187.537,265.776508342
187.552,265.818479405
187.567,265.860199334
187.582,265.90166886
187.597,265.942888703
187.612,265.983859573
187.627,266.024582171
187.642,266.065057189
187.657,266.10528531
187.672,266.145267203
187.687,266.185003532
187.702,266.224494949
187.717,266.2637421
187.732,266.302745617
187.747,266.341506125
187.762,266.380024237
187.777,266.418300559
187.792,266.456335687
187.807,266.494130207
187.822,266.531684696
187.837,266.568999722
187.852,266.606075844
187.867,266.642913609
187.882,266.67951356
187.897,266.715876226
187.912,266.752002131
187.927,266.787891788
187.942,266.823545698
187.957,266.858964362
187.972,266.894148265
187.987,266.929097885
188.002,266.963813693
188.017,266.998296151
188.032,267.032545715
188.047,267.066562828
188.062,267.100347929
188.077,267.133901449
188.092,267.167223809
188.107,267.200315422
188.122,267.2331767
188.137,267.265808037
188.152,267.298209832
188.167,267.330382466
188.182,267.36232632
188.197,267.394041765
188.21,267.421344009
188.212,267.425529167
188.227,267.456788885
188.242,267.487821268
188.257,267.518626668
188.272,267.54920542
188.287,267.579557862
188.302,267.60968432
188.317,267.639585118
188.332,267.669260573
188.347,267.698710996
188.362,267.727936697
188.377,267.756937976
188.392,267.785715132
188.407,267.814268454
188.422,267.84259823
188.437,267.870704749
188.452,267.898588286
188.467,267.926249116
188.482,267.953687513
188.497,267.980903744
188.512,268.007898073
188.527,268.034670762
188.542,268.061222067
188.557,268.087552244
188.572,268.113661545
188.587,268.139550217
188.602,268.165218511
188.617,268.190666667
188.632,268.215894926
188.647,268.240903529
188.66,268.262400161
188.662,268.265692717
188.677,268.290262722
188.692,268.314613779
188.707,268.338746123
188.722,268.362659983
188.737,268.386355592
188.752,268.409833176
