# 78954 TBPB Grantley Adams Observations at 12Z 08 Aug 2020
Frequency [GHz],TB
175.31,279.144388193
175.322,279.12527147
175.337,279.101314304
175.352,279.077288843
175.367,279.053194839
175.382,279.029032046
175.397,279.004800215
175.412,278.980499098
175.427,278.956128442
175.442,278.931687997
175.457,278.907177509
175.472,278.882596723
175.487,278.857945384
175.502,278.833223234
175.517,278.808430016
175.532,278.783565469
175.547,278.758629333
175.562,278.733621346
175.577,278.708541245
175.592,278.683388764
175.607,278.658163638
175.622,278.6328656
175.637,278.60749438
175.652,278.58204971
175.667,278.556531318
175.682,278.530938931
175.697,278.505272276
175.712,278.479531078
175.727,278.45371506
175.742,278.427823944
175.757,278.401857452
175.772,278.375815304
175.787,278.349697217
175.802,278.323502908
175.817,278.297232094
175.832,278.270884488
175.847,278.244459804
175.862,278.217957752
175.877,278.191378044
175.892,278.164720388
175.907,278.137984492
175.922,278.111170062
175.937,278.084276802
175.952,278.057304417
175.967,278.030252608
175.982,278.003121077
175.997,277.975909521
176.012,277.94861764
176.027,277.92124513
176.042,277.893791687
176.057,277.866257003
176.072,277.838640772
176.087,277.810942684
176.102,277.783162429
176.117,277.755299695
176.132,277.72735417
176.147,277.699325538
176.162,277.671213483
176.177,277.643017689
176.192,277.614737836
176.207,277.586373604
176.222,277.557924672
176.237,277.529390716
176.252,277.500771412
176.267,277.472066434
176.282,277.443275454
176.297,277.414398144
176.31,277.389301056
176.312,277.385434174
176.327,277.356383211
176.342,277.327244923
176.357,277.298018976
176.372,277.268705032
176.387,277.239302754
176.402,277.209811805
176.417,277.180231843
176.432,277.150562526
176.447,277.120803511
176.46,277.094939542
176.462,277.090954453
176.477,277.061015007
176.492,277.030984824
176.507,277.000863554
176.522,276.970650849
176.537,276.940346354
176.552,276.909949717
176.567,276.879460582
176.582,276.848878594
176.597,276.818203392
176.612,276.787434619
176.627,276.756571913
176.642,276.725614911
176.657,276.694563249
176.672,276.663416561
176.687,276.632174481
176.702,276.600836639
176.717,276.569402666
176.732,276.53787219
176.747,276.506244836
176.762,276.474520232
176.777,276.442698
176.792,276.410777762
176.807,276.37875914
176.822,276.346641751
176.837,276.314425215
176.852,276.282109146
176.867,276.249693159
176.882,276.217176868
176.897,276.184559882
176.912,276.151841812
176.927,276.119022267
176.942,276.086100852
176.957,276.053077173
176.972,276.019950834
176.987,275.986721435
177.002,275.953388577
177.017,275.91995186
177.032,275.886410879
177.047,275.852765231
177.062,275.819014509
177.077,275.785158306
177.092,275.751196212
177.107,275.717127815
177.122,275.682952704
177.137,275.648670465
177.152,275.61428068
177.167,275.579782933
177.182,275.545176804
177.197,275.510461873
177.21,275.480287263
177.212,275.475637716
177.227,275.440703911
177.242,275.40566003
177.257,275.370505646
177.272,275.33524033
177.287,275.299863651
177.302,275.264375177
177.31,275.245402128
177.317,275.228774472
177.332,275.193061101
177.347,275.157234626
177.362,275.121294607
177.377,275.085240603
177.392,275.049072171
177.407,275.012788866
177.422,274.976390242
177.437,274.93987585
177.452,274.90324524
177.467,274.86649796
177.482,274.829633556
177.497,274.792651573
177.512,274.755551552
177.527,274.718333036
177.542,274.680995563
177.557,274.64353867
177.572,274.605961892
177.587,274.568264763
177.602,274.530446813
177.617,274.492507573
177.632,274.454446569
177.647,274.416263329
177.66,274.383071942
177.662,274.377957374
177.677,274.339528228
177.692,274.300975409
177.707,274.262298436
177.722,274.223496824
177.737,274.184570088
177.752,274.145517738
177.767,274.106339285
177.782,274.067034237
177.797,274.027602098
177.812,273.988042372
177.827,273.948354561
177.842,273.908538163
177.857,273.868592677
177.872,273.828517596
177.887,273.788312413
177.902,273.747976619
177.917,273.707509702
177.932,273.666911149
177.947,273.626180442
177.96,273.590773197
177.962,273.585317063
177.977,273.544320491
177.992,273.503190203
178.007,273.461925673
178.022,273.420526374
178.037,273.378991774
178.052,273.337321342
178.067,273.295514541
178.082,273.253570834
178.097,273.21148968
178.112,273.169270537
178.127,273.126912859
178.142,273.084416097
178.157,273.041779702
178.172,272.999003119
178.187,272.956085793
178.202,272.913027165
178.217,272.869826672
178.232,272.826483751
178.247,272.782997834
178.262,272.739368351
178.277,272.695594728
178.292,272.651676391
178.307,272.607612759
178.322,272.563403251
178.337,272.519047282
178.352,272.474544263
178.367,272.429893603
178.382,272.385094707
178.397,272.340146977
178.41,272.301071424
178.412,272.295049813
178.427,272.249802609
178.442,272.204404758
178.457,272.158855649
178.472,272.113154667
178.487,272.067301194
178.502,272.021294606
178.517,271.97513428
178.532,271.928819587
178.547,271.882349891
178.562,271.835724559
178.577,271.788942947
178.592,271.742004413
178.607,271.694908307
178.622,271.647653978
178.637,271.600240767
178.652,271.552668015
178.667,271.504935057
178.682,271.457041222
178.697,271.408985838
178.712,271.360768227
178.727,271.312387705
178.742,271.263843585
178.757,271.215135175
178.772,271.166261779
178.787,271.117222696
178.802,271.068017219
178.817,271.018644636
178.832,270.969104231
178.847,270.919395283
178.862,270.869517066
178.877,270.819468846
178.892,270.769249887
178.907,270.718859445
178.922,270.668296773
178.937,270.617561115
178.952,270.566651712
178.967,270.515567798
178.982,270.464308602
178.997,270.412873344
179.012,270.361261241
179.027,270.309471503
179.042,270.257503333
179.057,270.205355927
179.072,270.153028476
179.087,270.100520161
179.102,270.047830161
179.117,269.994957644
179.132,269.941901773
179.147,269.888661702
179.16,269.842370651
179.162,269.835236579
179.177,269.781625544
179.192,269.72782773
179.207,269.67384226
179.222,269.619668253
179.237,269.565304817
179.252,269.510751052
179.267,269.456006049
179.282,269.401068894
179.297,269.34593866
179.312,269.290614413
179.327,269.235095212
179.342,269.179380103
179.357,269.123468125
179.372,269.067358307
179.387,269.011049669
179.402,268.95454122
179.417,268.89783196
179.432,268.840920878
179.447,268.783806953
179.462,268.726489153
179.477,268.668966435
179.492,268.611237746
179.507,268.553302022
179.522,268.495158185
179.537,268.436805149
179.552,268.378241812
179.567,268.319467065
179.582,268.260479782
179.597,268.201278827
179.612,268.14186305
179.627,268.082231289
179.642,268.022382368
179.657,267.962315097
179.672,267.902028274
179.687,267.841520682
179.702,267.780791089
179.717,267.719838248
179.732,267.6586609
179.747,267.597257767
179.762,267.535627558
179.777,267.473768966
179.792,267.411680667
179.807,267.349361321
179.822,267.286809572
179.837,267.224024046
179.852,267.161003352
179.867,267.097746082
179.882,267.034250808
179.897,266.970516085
179.91,266.915084507
179.912,266.90654045
179.927,266.842322419
179.942,266.777860489
179.957,266.713153139
179.972,266.648198824
179.987,266.582995981
180.002,266.517543026
180.017,266.451838351
180.032,266.385880329
180.047,266.319667307
180.062,266.253197614
180.077,266.18646955
180.092,266.119481395
180.107,266.052231403
180.122,265.984717804
180.137,265.916938802
180.152,265.848892574
180.167,265.780577273
180.182,265.711991023
180.197,265.643131921
180.212,265.573998036
180.227,265.504587408
180.242,265.434898047
180.257,265.364927934
180.272,265.294675019
180.287,265.22413722
180.302,265.153312423
180.317,265.082198482
180.332,265.010793217
180.347,264.939094414
180.362,264.867099823
180.377,264.79480716
180.392,264.722214102
180.407,264.64931829
180.422,264.576117328
180.437,264.502608778
180.452,264.428790164
180.467,264.354658967
180.482,264.280212628
180.497,264.205448543
180.512,264.130364067
180.527,264.054956506
180.542,263.979223122
180.557,263.903161129
180.56,263.887909049
180.572,263.826767693
180.587,263.750039931
180.602,263.672974906
180.617,263.595569632
180.632,263.517821067
180.647,263.439726116
180.66,263.371761202
180.662,263.361281626
180.677,263.282484387
180.692,263.203331129
180.707,263.123818522
180.722,263.043943171
180.737,262.963701619
180.752,262.883090342
180.767,262.802105749
180.782,262.720744178
180.797,262.639001895
180.812,262.556875093
180.827,262.47435989
180.842,262.391452323
180.857,262.308148353
180.872,262.224443853
180.887,262.140334616
180.902,262.055816344
180.917,261.97088465
180.932,261.885535054
180.947,261.79976298
180.962,261.713563753
180.977,261.626932597
180.992,261.53986463
181.007,261.452354863
181.022,261.364398195
181.037,261.275989408
181.052,261.187123167
181.067,261.097794013
181.082,261.007996363
181.097,260.9177245
181.112,260.826972573
181.127,260.735734592
181.142,260.644004421
181.157,260.551775777
181.172,260.459042221
181.187,260.365797157
181.202,260.272033822
181.217,260.177745283
181.232,260.082924434
181.247,259.987563982
181.262,259.891656448
181.277,259.795194159
181.292,259.698169237
181.307,259.600573599
181.31,259.580985259
181.322,259.502398944
181.337,259.403636745
181.352,259.304278248
181.367,259.204314455
181.382,259.103736123
181.397,259.002533749
181.412,258.900697566
181.427,258.798217531
181.442,258.695083314
181.457,258.591284292
181.472,258.486809533
181.487,258.381647791
181.502,258.275787489
181.517,258.169216712
181.532,258.061923191
181.547,257.953894293
181.562,257.845117009
181.577,257.735577936
181.592,257.625263268
181.607,257.514158777
181.622,257.402249805
181.637,257.289521239
181.652,257.175957503
181.667,257.06154254
181.682,256.94625979
181.697,256.83009218
181.712,256.713022098
181.727,256.595031381
181.742,256.476101291
181.757,256.356212497
181.772,256.235345053
181.787,256.113478376
181.802,255.990591228
181.817,255.866661686
181.832,255.741667123
181.847,255.615584184
181.862,255.488388757
181.877,255.360055949
181.892,255.230560058
181.907,255.099874545
181.922,254.967972003
181.937,254.834824131
181.952,254.700401697
181.967,254.564674509
181.982,254.427611378
181.997,254.289180085
182.012,254.149347345
182.027,254.008078764
182.042,253.865338803
182.057,253.721090734
182.06,253.692056829
182.072,253.575296596
182.087,253.427917151
182.102,253.278911831
182.117,253.128238692
182.132,252.975854358
182.147,252.821713964
182.162,252.665771094
182.177,252.507977722
182.192,252.348284139
182.207,252.186638886
182.222,252.022988671
182.237,251.857278288
182.252,251.689450531
182.267,251.519446095
182.282,251.347203474
182.297,251.172658847
182.312,250.995745958
182.327,250.816395986
182.342,250.634537395
182.357,250.450095783
182.372,250.262993703
182.387,250.073150477
182.402,249.880481987
182.417,249.684900442
182.432,249.486314124
182.447,249.284627105
182.462,249.079738933
182.477,248.871544284
182.492,248.659932571
182.507,248.444787509
182.522,248.225986632
182.537,248.003400748
182.552,247.776893326
182.567,247.546319816
182.582,247.311526876
182.597,247.072351506
182.612,246.828620072
182.627,246.580147201
182.642,246.326734541
182.657,246.068169351
182.672,245.804222912
182.687,245.534648728
182.702,245.259180487
182.717,244.977529748
182.732,244.689383334
182.747,244.39440036
182.762,244.092208878
182.777,243.782402077
182.792,243.464533985
182.807,243.138114608
182.822,242.802604458
182.837,242.457408395
182.852,242.101868727
182.867,241.735257516
182.882,241.356768058
182.897,240.965505519
182.912,240.560476785
182.927,240.140579636
182.942,239.704591477
182.957,239.251158078
182.972,238.778782991
182.987,238.285818792
183.002,237.770461864
183.017,237.230753396
183.032,236.664590566
183.047,236.069753934
183.062,235.443959891
183.077,234.784951292
183.092,234.090645443
183.107,233.359367267
183.122,232.590207525
183.137,231.78356212
183.152,230.941928988
183.167,230.071062024
183.182,229.181600372
183.197,228.291288635
183.212,227.42783637
183.227,226.632223282
183.242,225.961502002
183.257,225.487681971
183.367,225.573775986
183.382,226.098859124
183.397,226.801090126
183.412,227.611940639
183.427,228.478797704
183.442,229.364496758
183.457,230.244236908
183.472,231.10236107
183.487,231.929668251
183.502,232.721362026
183.517,233.47556019
183.532,234.19224637
183.547,234.872549686
183.562,235.518259368
183.577,236.131503767
183.592,236.714542495
183.607,237.269635427
183.622,237.798963333
183.637,238.304582776
183.652,238.78840344
183.667,239.252179886
183.682,239.697512324
183.697,240.125852817
183.712,240.538514525
183.727,240.936682452
183.742,241.321424672
183.757,241.69370344
183.772,242.054385798
183.787,242.404253478
183.802,242.744012002
183.817,243.074298951
183.832,243.395691419
183.847,243.708712687
183.862,244.013838175
183.877,244.311500736
183.892,244.602095346
183.907,244.885983257
183.922,245.163495664
183.937,245.434936952
183.952,245.700587553
183.967,245.960706478
183.982,246.215533544
183.997,246.465291341
184.012,246.710186978
184.027,246.950413615
184.042,247.186151825
184.057,247.417570796
184.072,247.644829401
184.087,247.868077138
184.102,248.087454973
184.117,248.303096085
184.132,248.515126528
184.147,248.723665825
184.162,248.928827492
184.177,249.130719512
184.192,249.329444752
184.207,249.525101348
184.222,249.717783038
184.237,249.907579467
184.252,250.094576465
184.267,250.278856294
184.282,250.46049787
184.297,250.639576968
184.312,250.816166408
184.327,250.990336218
184.342,251.162153792
184.357,251.331684031
184.372,251.498989467
184.387,251.664130384
184.402,251.827164927
184.417,251.988149202
184.432,252.147137367
184.447,252.304181725
184.462,252.459332797
184.477,252.612639401
184.492,252.764148722
184.507,252.913906377
184.522,253.061956477
184.537,253.208341687
184.552,253.35310328
184.56,253.429659424
184.567,253.496281188
184.582,253.637914052
184.597,253.778039271
184.612,253.916693044
184.627,254.053910414
184.642,254.189725309
184.657,254.324170579
184.672,254.457278035
184.687,254.589078485
184.702,254.719601766
184.717,254.848876778
184.732,254.976931519
184.747,255.103793109
184.762,255.229487824
184.777,255.354041124
184.792,255.477477679
184.807,255.599821395
184.822,255.721095442
184.837,255.841322274
184.852,255.960523657
184.867,256.078720693
184.882,256.195933836
184.897,256.312182918
184.912,256.427487172
184.927,256.541865245
184.942,256.655335225
184.957,256.767914653
184.972,256.879620549
184.987,256.990469421
185.002,257.100477288
185.017,257.209659695
185.032,257.318031729
185.047,257.425608033
185.062,257.532402824
185.077,257.638429902
185.092,257.743702671
185.107,257.848234149
185.122,257.952036978
185.137,258.055123442
185.152,258.157505476
185.167,258.259194681
185.182,258.360202329
185.197,258.460539382
185.212,258.560216496
185.227,258.659244035
185.242,258.757632081
185.257,258.85539044
185.272,258.952528655
185.287,259.049056016
185.302,259.144981561
185.31,259.195898826
185.317,259.240314095
185.332,259.335062189
185.347,259.429234193
185.362,259.52283824
185.377,259.615882257
185.392,259.708373968
185.407,259.800320905
185.422,259.891730409
185.437,259.982609641
185.452,260.072965587
185.467,260.16280506
185.482,260.25213471
185.497,260.34096103
185.512,260.429290355
185.527,260.517128874
185.542,260.604482631
185.557,260.691357529
185.572,260.777759337
185.587,260.863693694
185.602,260.94916611
185.617,261.034181973
185.632,261.118746553
185.647,261.202865003
185.662,261.286542365
185.677,261.369783574
185.692,261.452593456
185.707,261.53497674
185.722,261.616938053
185.737,261.698481925
185.752,261.779612797
185.767,261.860335015
185.782,261.94065284
185.797,262.020570449
185.812,262.100091932
185.827,262.179221301
185.842,262.257962492
185.857,262.336319361
185.872,262.414295692
185.887,262.491895197
185.902,262.569121519
185.917,262.645978232
185.932,262.722468845
185.947,262.7985968
185.96,262.864283627
185.962,262.874365479
185.977,262.949778202
185.992,263.02483823
186.007,263.099548766
186.022,263.173912955
186.037,263.247933889
186.052,263.321614606
186.06,263.360772911
186.067,263.394958092
186.082,263.46796728
186.097,263.540645057
186.112,263.612994257
186.127,263.685017671
186.142,263.756718041
186.157,263.828098064
186.172,263.899160395
186.187,263.969907644
186.202,264.04034238
186.217,264.110467132
186.232,264.180284385
186.247,264.24979659
186.262,264.319006157
186.277,264.387915458
186.292,264.456526829
186.307,264.524842572
186.322,264.592864951
186.337,264.660596199
186.352,264.728038513
186.367,264.795194058
186.382,264.862064967
186.397,264.928653342
186.412,264.994961255
186.427,265.060990746
186.442,265.126743826
186.457,265.192222479
186.472,265.257428659
186.487,265.322364293
186.502,265.387031281
186.517,265.451431495
186.532,265.515566785
186.547,265.579438971
186.562,265.64304985
186.577,265.706401195
186.592,265.769494755
186.607,265.832332254
186.622,265.894915395
186.637,265.957245857
186.652,266.019325297
186.667,266.081155352
186.682,266.142737635
186.697,266.204073739
186.71,266.257033783
186.712,266.265165239
186.727,266.326013687
186.742,266.386620616
186.757,266.446987541
186.772,266.507115955
186.787,266.567007336
186.802,266.626663141
186.817,266.686084812
186.832,266.745273769
186.847,266.80423142
186.862,266.862959152
186.877,266.921458338
186.892,266.979730332
186.907,267.037776474
186.922,267.095598089
186.937,267.153196484
186.952,267.210572953
186.967,267.267728774
186.982,267.324665211
186.997,267.381383513
187.012,267.437884916
187.027,267.494170641
187.042,267.550241897
187.057,267.606099877
187.072,267.661745763
187.087,267.717180724
187.102,267.772405916
187.117,267.827422481
187.132,267.882231553
187.147,267.936834249
187.162,267.991231678
187.177,268.045424935
187.192,268.099415106
187.207,268.153203263
187.222,268.206790469
187.237,268.260177775
187.252,268.313366223
187.267,268.366356843
187.282,268.419150656
187.297,268.471748672
187.312,268.524151891
187.327,268.576361304
187.342,268.628377892
187.357,268.680202627
187.372,268.731836471
187.387,268.783280377
187.402,268.834535291
187.417,268.885602146
187.432,268.936481872
187.447,268.987175385
187.46,269.030959842
187.462,269.037683596
187.477,269.088007407
187.492,269.138147711
187.507,269.188105395
187.522,269.237881336
187.537,269.287476405
187.552,269.336891465
187.567,269.386127369
187.582,269.435184968
187.597,269.4840651
187.612,269.532768601
187.627,269.581296295
187.642,269.629649004
187.657,269.67782754
187.672,269.725832709
187.687,269.773665312
187.702,269.821326141
187.717,269.868815983
187.732,269.916135619
187.747,269.963285824
187.762,270.010267366
187.777,270.057081008
187.792,270.103727506
187.807,270.150207611
187.822,270.196522068
187.837,270.242671616
187.852,270.288656991
187.867,270.334478919
187.882,270.380138125
187.897,270.425635326
187.912,270.470971236
187.927,270.51614656
187.942,270.561162003
187.957,270.606018262
187.972,270.650716028
187.987,270.695255991
188.002,270.739638832
188.017,270.783865231
188.032,270.827935861
188.047,270.871851391
188.062,270.915612486
188.077,270.959219805
188.092,271.002674005
188.107,271.045975737
188.122,271.089125648
188.137,271.132124382
188.152,271.174972577
188.167,271.217670867
188.182,271.260219885
188.197,271.302620256
188.21,271.339247487
188.212,271.344872603
188.227,271.386977546
188.242,271.428935699
188.257,271.470747674
188.272,271.512414078
188.287,271.553935516
188.302,271.595312588
188.317,271.63654589
188.332,271.677636017
188.347,271.718583557
188.362,271.759389097
188.377,271.80005322
188.392,271.840576505
188.407,271.880959529
188.422,271.921202865
188.437,271.961307081
188.452,272.001272746
188.467,272.041100421
188.482,272.080790668
188.497,272.120344043
188.512,272.159761101
188.527,272.199042392
188.542,272.238188465
188.557,272.277199864
188.572,272.316077132
188.587,272.354820808
188.602,272.393431428
188.617,272.431909527
188.632,272.470255634
188.647,272.508470279
188.66,272.541483704
188.662,272.546553985
188.677,272.584507276
188.692,272.622330673
188.707,272.660024691
188.722,272.697589846
