# 01004 ENAS Ny-Alesund Ii Observations at 12Z 07 Sep 2019
Frequency [GHz],TB
175.31,254.436621536
175.322,254.472329227
175.337,254.516828837
175.352,254.561176896
175.367,254.605371739
175.382,254.649411693
175.397,254.693295089
175.412,254.73702024
175.427,254.780585462
175.442,254.823989055
175.457,254.867229321
175.472,254.910304548
175.487,254.953213024
175.502,254.995953029
175.517,255.038522839
175.532,255.080920714
175.547,255.123144917
175.562,255.165193715
175.577,255.207065344
175.592,255.248758054
175.607,255.29027008
175.622,255.331599668
175.637,255.372745026
175.652,255.41370439
175.667,255.454475974
175.682,255.495057989
175.697,255.535448641
175.712,255.575646135
175.727,255.615648665
175.742,255.655454426
175.757,255.695061605
175.772,255.734468384
175.787,255.773672938
175.802,255.81267345
175.817,255.851468086
175.832,255.890055015
175.847,255.92843239
175.862,255.966598382
175.877,256.004551137
175.892,256.042288807
175.907,256.079809547
175.922,256.117111496
175.937,256.154192792
175.952,256.191051577
175.967,256.227685986
175.982,256.264094156
175.997,256.300274208
176.012,256.336224275
176.027,256.371942483
176.042,256.407426953
176.057,256.442675807
176.072,256.477687162
176.087,256.512459138
176.102,256.546989848
176.117,256.581277409
176.132,256.615319936
176.147,256.649115536
176.162,256.682662322
176.177,256.715958407
176.192,256.749001904
176.207,256.781790911
176.222,256.814323551
176.237,256.84659793
176.252,256.878612152
176.267,256.910364336
176.282,256.941852585
176.297,256.973075017
176.31,256.999917978
176.312,257.004029739
176.327,257.034714873
176.342,257.065128529
176.357,257.095268821
176.372,257.125133873
176.387,257.154721804
176.402,257.184030739
176.417,257.213058797
176.432,257.241804115
176.447,257.270264818
176.46,257.2946991
176.462,257.298439042
176.477,257.326324927
176.492,257.353920609
176.507,257.381224236
176.522,257.408233954
176.537,257.434947921
176.552,257.461364296
176.567,257.487481232
176.582,257.513296902
176.597,257.538809482
176.612,257.564017147
176.627,257.588918079
176.642,257.613510468
176.657,257.637792516
176.672,257.661762422
176.687,257.685418393
176.702,257.708758651
176.717,257.731781415
176.732,257.754484913
176.747,257.776867395
176.762,257.7989271
176.777,257.820662289
176.792,257.842071221
176.807,257.863152173
176.822,257.883903427
176.837,257.904323275
176.852,257.924410018
176.867,257.944161967
176.882,257.963577446
176.897,257.982654789
176.912,258.001392339
176.927,258.019788448
176.942,258.037841485
176.957,258.055549831
176.972,258.072911872
176.987,258.089926016
177.002,258.106590673
177.017,258.122904274
177.032,258.138865265
177.047,258.154472096
177.062,258.169723237
177.077,258.184617178
177.092,258.199152408
177.107,258.213327449
177.122,258.227140828
177.137,258.24059108
177.152,258.253676774
177.167,258.266396489
177.182,258.278748803
177.197,258.290732338
177.21,258.300818698
177.212,258.302345715
177.227,258.313587576
177.242,258.324456583
177.257,258.334951415
177.272,258.345070772
177.287,258.354813363
177.302,258.364177931
177.31,258.369017363
177.317,258.373163225
177.332,258.381768015
177.347,258.3899911
177.362,258.39783129
177.377,258.40528742
177.392,258.412358349
177.407,258.419042943
177.422,258.425340108
177.437,258.431248756
177.452,258.436767831
177.467,258.441896295
177.482,258.44663313
177.497,258.450977353
177.512,258.454927987
177.527,258.458484086
177.542,258.461644738
177.557,258.464409038
177.572,258.466776115
177.587,258.468745118
177.602,258.470315227
177.617,258.471485642
177.632,258.472255589
177.647,258.47262432
177.66,258.47261879
177.662,258.472591115
177.677,258.472155278
177.692,258.47131614
177.707,258.470073057
177.722,258.468425418
177.737,258.466372632
177.752,258.463914137
177.767,258.461049402
177.782,258.457777925
177.797,258.454099222
177.812,258.450012851
177.827,258.445518387
177.842,258.440615443
177.857,258.435303653
177.872,258.429582686
177.887,258.423452237
177.902,258.416912035
177.917,258.409961834
177.932,258.402601416
177.947,258.3948306
177.96,258.387763807
177.962,258.386649232
177.977,258.378057184
177.992,258.369054366
178.007,258.359640717
178.022,258.3498162
178.037,258.339580817
178.052,258.328934597
178.067,258.317877605
178.082,258.306409927
178.097,258.294531685
178.112,258.282243043
178.127,258.26954418
178.142,258.256435319
178.157,258.242916701
178.172,258.228988614
178.187,258.214651368
178.202,258.199905308
178.217,258.184750807
178.232,258.169188277
178.247,258.153218152
178.262,258.136840903
178.277,258.120057038
178.292,258.102867084
178.307,258.085271611
178.322,258.067271214
178.337,258.048866515
178.352,258.030058185
178.367,258.010846904
178.382,257.9912334
178.397,257.971218419
178.41,257.953547957
178.412,257.950802744
178.427,257.929987199
178.442,257.908772618
178.457,257.887159879
178.472,257.865149881
178.487,257.84274357
178.502,257.819941901
178.517,257.796745869
178.532,257.773156501
178.547,257.749174843
178.562,257.724801977
178.577,257.70003902
178.592,257.674887098
178.607,257.649347384
178.622,257.623421069
178.637,257.597109371
178.652,257.570413539
178.667,257.543334844
178.682,257.515874589
178.697,257.488034104
178.712,257.459814728
178.727,257.431217846
178.742,257.402244862
178.757,257.372897187
178.772,257.343176283
178.787,257.313083616
178.802,257.282620684
178.817,257.251789
178.832,257.220590105
178.847,257.189025558
178.862,257.157096945
178.877,257.124805861
178.892,257.092153931
178.907,257.059142793
178.922,257.025774108
178.937,256.992049555
178.952,256.95797082
178.967,256.923539622
178.982,256.888757684
178.997,256.853626752
179.012,256.818148582
179.027,256.782324948
179.042,256.746157634
179.057,256.709648439
179.072,256.672799173
179.087,256.635611663
179.102,256.598087738
179.117,256.560229241
179.132,256.522038032
179.147,256.483515961
179.16,256.449863987
179.162,256.444664909
179.177,256.405486745
179.192,256.365983356
179.207,256.326156631
179.222,256.286008466
179.237,256.245540753
179.252,256.204755402
179.267,256.163654306
179.282,256.12223938
179.297,256.080512531
179.312,256.03847566
179.327,255.996130677
179.342,255.953479484
179.357,255.910523987
179.372,255.867266081
179.387,255.823707666
179.402,255.779850632
179.417,255.735696861
179.432,255.691248232
179.447,255.646506618
179.462,255.601473878
179.477,255.556151873
179.492,255.510542445
179.507,255.464647423
179.522,255.418468633
179.537,255.37200788
179.552,255.325266967
179.567,255.278247669
179.582,255.230951759
179.597,255.183380983
179.612,255.135537087
179.627,255.087421777
179.642,255.039036759
179.657,254.990383706
179.672,254.941464292
179.687,254.892280143
179.702,254.842832886
179.717,254.793124111
179.732,254.743155397
179.747,254.692928292
179.762,254.642444318
179.777,254.591704976
179.792,254.540711739
179.807,254.489466055
179.822,254.437969345
179.837,254.386222989
179.852,254.334228357
179.867,254.28198678
179.882,254.229499555
179.897,254.176767956
179.91,254.130870525
179.912,254.123793219
179.927,254.070576551
179.942,254.017119124
179.957,253.963422071
179.972,253.909486503
179.987,253.855313489
180.002,253.800904057
180.017,253.746259207
180.032,253.691379901
180.047,253.63626706
180.062,253.58092157
180.077,253.525344279
180.092,253.469535989
180.107,253.413497478
180.122,253.357229469
180.137,253.300732649
180.152,253.244007666
180.167,253.187055127
180.182,253.129875598
180.197,253.072469599
180.212,253.014837609
180.227,252.956980072
180.242,252.898897382
180.257,252.840589883
180.272,252.782057885
180.287,252.72330166
180.302,252.664321416
180.317,252.605117333
180.332,252.545689544
180.347,252.486038132
180.362,252.426163136
180.377,252.366064556
180.392,252.305742343
180.407,252.245196398
180.422,252.184426582
180.437,252.123432711
180.452,252.06221455
180.467,252.000771833
180.482,251.939104224
180.497,251.877211365
180.512,251.815092839
180.527,251.752748193
180.542,251.69017692
180.557,251.627378467
180.56,251.614791467
180.572,251.564352251
180.587,251.50109763
180.602,251.43761392
180.617,251.373900398
180.632,251.309956292
180.647,251.245780789
180.66,251.189974187
180.662,251.181373037
180.677,251.116732131
180.692,251.051857131
180.707,250.986747054
180.722,250.921400879
180.737,250.855817529
180.752,250.789995907
180.767,250.723934865
180.782,250.657633221
180.797,250.591089746
180.812,250.524303185
180.827,250.457272236
180.842,250.389995561
180.857,250.322471798
180.872,250.254699538
180.887,250.186677351
180.902,250.118403754
180.917,250.049877256
180.932,249.981096319
180.947,249.912059386
180.962,249.842764868
180.977,249.773211149
180.992,249.703396583
181.007,249.633319515
181.022,249.56297824
181.037,249.492371069
181.052,249.421496261
181.067,249.350352069
181.082,249.278936741
181.097,249.207248485
181.112,249.135285523
181.127,249.063046055
181.142,248.990528268
181.157,248.91773035
181.172,248.84465048
181.187,248.771286841
181.202,248.697637613
181.217,248.623700978
181.232,248.549475127
181.247,248.474958262
181.262,248.400148587
181.277,248.325044324
181.292,248.249643721
181.307,248.173945033
181.31,248.158769377
181.322,248.097946558
181.337,248.0216466
181.352,247.945043505
181.367,247.868135656
181.382,247.790921472
181.397,247.713399415
181.412,247.635567988
181.427,247.557425758
181.442,247.478971344
181.457,247.400203414
181.472,247.321120717
181.487,247.241722068
181.502,247.162006354
181.517,247.081972547
181.532,247.001619711
181.547,246.92094699
181.562,246.839953646
181.577,246.758639028
181.592,246.677002606
181.607,246.595043977
181.622,246.512762855
181.637,246.430159086
181.652,246.347232662
181.667,246.263983728
181.682,246.180412576
181.697,246.096519676
181.712,246.012305668
181.727,245.927771372
181.742,245.842917806
181.757,245.757746191
181.772,245.672257965
181.787,245.586454782
181.802,245.500338533
181.817,245.413911364
181.832,245.327175662
181.847,245.240134102
181.862,245.152789625
181.877,245.065145481
181.892,244.977205217
181.907,244.888972705
181.922,244.800452158
181.937,244.711648129
181.952,244.622565546
181.967,244.533209715
181.982,244.443586331
181.997,244.353701513
182.012,244.26356181
182.027,244.173174201
182.042,244.082546153
182.057,243.991685606
182.06,243.973486329
182.072,243.900600994
182.087,243.809301282
182.102,243.71779598
182.117,243.626095155
182.132,243.534209447
182.147,243.442150114
182.162,243.349929032
182.177,243.257558727
182.192,243.165052392
182.207,243.072423918
182.222,242.979687899
182.237,242.88685969
182.252,242.793955391
182.267,242.700991904
182.282,242.607986933
182.297,242.514959025
182.312,242.421927593
182.327,242.328912928
182.342,242.235936244
182.357,242.143019683
182.372,242.050186364
182.387,241.95746037
182.402,241.86486682
182.417,241.772431851
182.432,241.680182668
182.447,241.58814755
182.462,241.496355881
182.477,241.404838169
182.492,241.313626067
182.507,241.222752388
182.522,241.132251115
182.537,241.04215744
182.552,240.95250774
182.567,240.863339631
182.582,240.774691938
182.597,240.686604721
182.612,240.599119275
182.627,240.512278135
182.642,240.426125046
182.657,240.340704998
182.672,240.256064168
182.687,240.172249944
182.702,240.089310877
182.717,240.007296662
182.732,239.926258111
182.747,239.846247108
182.762,239.76731657
182.777,239.689520396
182.792,239.612913405
182.807,239.537551276
182.822,239.463490482
182.837,239.390788188
182.852,239.3195022
182.867,239.249690835
182.882,239.181412839
182.897,239.114727273
182.912,239.049693372
182.927,238.986370455
182.942,238.924817758
182.957,238.865094306
182.972,238.807258747
182.987,238.751369222
183.002,238.69748317
183.017,238.64565717
183.032,238.595946774
183.047,238.548406312
183.062,238.503088722
183.077,238.460045353
183.092,238.419325785
183.107,238.380977639
183.122,238.3450464
183.137,238.311575219
183.152,238.280604748
183.167,238.252172961
183.182,238.226314995
183.197,238.203062989
183.212,238.182445938
183.227,238.164489558
183.242,238.14921617
183.257,238.136644598
183.367,238.127896804
183.382,238.138078239
183.397,238.150958376
183.412,238.166517779
183.427,238.184733526
183.442,238.205579327
183.457,238.229025654
183.472,238.255039863
183.487,238.283586356
183.502,238.314626729
183.517,238.348119941
183.532,238.3840225
183.547,238.422288618
183.562,238.462870417
183.577,238.505718104
183.592,238.550780155
183.607,238.598003508
183.622,238.647333742
183.637,238.698715262
183.652,238.752091481
183.667,238.80740498
183.682,238.864597698
183.697,238.923611078
183.712,238.984386226
183.727,239.046864064
183.742,239.110985468
183.757,239.176691401
183.772,239.243923048
183.787,239.312621911
183.802,239.382729941
183.817,239.454189633
183.832,239.526944109
183.847,239.600937215
183.862,239.676113592
183.877,239.752418746
183.892,239.829799117
183.907,239.908202123
183.922,239.987576217
183.937,240.067870932
183.952,240.149036908
183.967,240.231025928
183.982,240.31379094
183.997,240.397286088
184.012,240.481466713
184.027,240.566289373
184.042,240.651711839
184.057,240.737693123
184.072,240.824193446
184.087,240.911174254
184.102,240.998598211
184.117,241.08642918
184.132,241.17463223
184.147,241.263173598
184.162,241.352020692
184.177,241.441142071
184.192,241.530507423
184.207,241.620087546
184.222,241.709854325
184.237,241.799780721
184.252,241.889840731
184.267,241.98000938
184.282,242.070262698
184.297,242.160577676
184.312,242.250932261
184.327,242.341305333
184.342,242.431676663
184.357,242.5220269
184.372,242.612337549
184.387,242.702590933
184.402,242.79277019
184.417,242.882859224
184.432,242.972842693
184.447,243.062705992
184.462,243.152435222
184.477,243.242017161
184.492,243.331439254
184.507,243.420689581
184.522,243.50975684
184.537,243.598630331
184.552,243.687299913
184.56,243.734503655
184.567,243.775756014
184.582,243.863989592
184.597,243.951992115
184.612,244.039755555
184.627,244.127272352
184.642,244.214535414
184.657,244.301538086
184.672,244.388274141
184.687,244.474737755
184.702,244.56092351
184.717,244.646826343
184.732,244.732441565
184.747,244.817764843
184.762,244.90279216
184.777,244.987519827
184.792,245.071944462
184.807,245.156062966
184.822,245.239872532
184.837,245.323370615
184.852,245.406554931
184.867,245.489423431
184.882,245.571974313
184.897,245.65420599
184.912,245.736117095
184.927,245.817706457
184.942,245.898973106
184.957,245.979916255
184.972,246.060535291
184.987,246.140829768
185.002,246.220799404
185.017,246.300444066
185.032,246.379763762
185.047,246.458758635
185.062,246.537428967
185.077,246.615775154
185.092,246.693797705
185.107,246.771497246
185.122,246.848874498
185.137,246.925930286
185.152,247.002665523
185.167,247.079081211
185.182,247.155178422
185.197,247.230958318
185.212,247.306422115
185.227,247.381571116
185.242,247.456406668
185.257,247.530930177
185.272,247.60514311
185.287,247.679046971
185.302,247.752643318
185.31,247.791769518
185.317,247.825933752
185.332,247.898919896
185.347,247.971603426
185.362,248.043986035
185.377,248.116069447
185.392,248.187855409
185.407,248.259345703
185.422,248.330542103
185.437,248.401446422
185.452,248.47206048
185.467,248.542386102
185.482,248.612425122
185.497,248.682179395
185.512,248.751650757
185.527,248.820841061
185.542,248.889752157
185.557,248.958385889
185.572,249.026744104
185.587,249.094828632
185.602,249.162641309
185.617,249.230183952
185.632,249.297458378
185.647,249.364466376
185.662,249.431209732
185.677,249.497690219
185.692,249.563909588
185.707,249.62986958
185.722,249.695571905
185.737,249.761018266
185.752,249.826210344
185.767,249.891149789
185.782,249.95583824
185.797,250.020277301
185.812,250.084468566
185.827,250.148413589
185.842,250.212113909
185.857,250.275571034
185.872,250.338786439
185.887,250.401761588
185.902,250.464497899
185.917,250.526996768
185.932,250.589259563
185.947,250.651287618
185.96,250.704856399
185.962,250.713082243
185.977,250.774644708
185.992,250.835976253
186.007,250.897078099
186.022,250.957951415
186.037,251.018597355
186.052,251.079017032
186.06,251.111148716
186.067,251.139211523
186.082,251.199181877
186.097,251.25892911
186.112,251.318454205
186.127,251.377758106
186.142,251.436841723
186.157,251.49570594
186.172,251.554351602
186.187,251.612779515
186.202,251.670990459
186.217,251.728985172
186.232,251.786764367
186.247,251.84432871
186.262,251.901678851
186.277,251.958815383
186.292,252.015738878
186.307,252.072449881
186.322,252.128948884
186.337,252.18523636
186.352,252.241312741
186.367,252.29717843
186.382,252.352833787
186.397,252.408279153
186.412,252.463514824
186.427,252.518541068
186.442,252.573358116
186.457,252.62796617
186.472,252.682365405
186.487,252.736555949
186.502,252.79053791
186.517,252.844311361
186.532,252.897876341
186.547,252.951232864
186.562,253.004380906
186.577,253.057320415
186.592,253.110051312
186.607,253.162573487
186.622,253.214886792
186.637,253.266991065
186.652,253.318886103
186.667,253.370571679
186.682,253.422047536
186.697,253.473313389
186.71,253.517573693
186.712,253.524368935
186.727,253.575213831
186.742,253.62584771
186.757,253.67627019
186.772,253.726480847
186.787,253.776479242
186.802,253.826264911
186.817,253.875837366
186.832,253.925196089
186.847,253.974340542
186.862,254.023270169
186.877,254.071984382
186.892,254.12048258
186.907,254.168764133
186.922,254.216828403
186.937,254.264674712
186.952,254.312302379
186.967,254.359710691
186.982,254.406898926
186.997,254.453866336
187.012,254.500612169
187.027,254.547135635
187.042,254.593435937
187.057,254.639512266
187.072,254.685363797
187.087,254.730989676
187.102,254.776389053
187.117,254.82156105
187.132,254.866504783
187.147,254.911219356
187.162,254.955703849
187.177,254.999957348
187.192,255.043978906
187.207,255.087767591
187.222,255.131322431
187.237,255.174642469
187.252,255.217726729
187.267,255.260574228
187.282,255.303183966
187.297,255.345554951
187.312,255.387686175
187.327,255.429576621
187.342,255.471225272
187.357,255.512631106
187.372,255.55379309
187.387,255.594710189
187.402,255.63538137
187.417,255.67580559
187.432,255.715981804
187.447,255.755908969
187.46,255.790310249
187.462,255.795586039
187.477,255.835011961
187.492,255.874185688
187.507,255.913106169
187.522,255.951772361
187.537,255.990183213
187.552,256.028337677
187.567,256.06623471
187.582,256.103873274
187.597,256.141252322
187.612,256.178370824
187.627,256.215227747
187.642,256.25182206
187.657,256.288152747
187.672,256.324218784
187.687,256.360019161
187.702,256.395552878
187.717,256.43081893
187.732,256.465816323
187.747,256.500544079
187.762,256.535001213
187.777,256.569186764
187.792,256.603099769
187.807,256.636739277
187.822,256.670104345
187.837,256.703194043
187.852,256.736007452
187.867,256.768543662
187.882,256.800801765
187.897,256.832780884
187.912,256.864480133
187.927,256.89589865
187.942,256.927035585
187.957,256.957890099
187.972,256.988461359
187.987,257.018748557
188.002,257.048750893
188.017,257.078467577
188.032,257.107897842
188.047,257.137040927
188.062,257.165896092
188.077,257.194462608
188.092,257.222739758
188.107,257.250726855
188.122,257.278423209
188.137,257.305828158
188.152,257.332941052
188.167,257.35976126
188.182,257.386288166
188.197,257.412521164
188.21,257.435018249
188.212,257.43845968
188.227,257.464103147
188.242,257.489451012
188.257,257.514502749
188.272,257.539257846
188.287,257.563715803
188.302,257.587876147
188.317,257.611738417
188.332,257.635302173
188.347,257.658566996
188.362,257.681532475
188.377,257.704198228
188.392,257.726563892
188.407,257.748629114
188.422,257.770393565
188.437,257.791856939
188.452,257.813018939
188.467,257.833879299
188.482,257.854437761
188.497,257.874694092
188.512,257.894648081
188.527,257.914299526
188.542,257.933648256
188.557,257.952694114
188.572,257.971436961
188.587,257.989876679
188.602,258.008013166
188.617,258.02584635
188.632,258.043376159
188.647,258.060602562
188.66,258.075286675
188.662,258.07752554
188.677,258.094145081
188.692,258.110461205
188.707,258.126473948
188.722,258.14218337
188.737,258.157589539
