# 48698 WSSS Singapore Observations at 12Z 18 Aug 2019
Frequency [GHz],TB
175.31,278.279661122
175.322,278.256462061
175.337,278.227390219
175.352,278.198237145
175.367,278.169002729
175.382,278.139686862
175.397,278.110289431
175.412,278.080810323
175.427,278.051249425
175.442,278.021606625
175.457,277.991881809
175.472,277.962074862
175.487,277.932185667
175.502,277.90221411
175.517,277.872160073
175.532,277.842023441
175.547,277.811804094
175.562,277.781501914
175.577,277.751116781
175.592,277.720648576
175.607,277.690097178
175.622,277.659462466
175.637,277.628744318
175.652,277.59794261
175.667,277.56705722
175.682,277.536088025
175.697,277.505034899
175.712,277.473897716
175.727,277.442676349
175.742,277.411370673
175.757,277.37998056
175.772,277.348505882
175.787,277.31694651
175.802,277.285302312
175.817,277.253573159
175.832,277.221758922
175.847,277.189859466
175.862,277.157874659
175.877,277.125804369
175.892,277.093648461
175.907,277.0614068
175.922,277.02907925
175.937,276.996665677
175.952,276.964165941
175.967,276.931579907
175.982,276.898907433
175.997,276.866148383
176.012,276.833302618
176.027,276.800369993
176.042,276.767350369
176.057,276.734243606
176.072,276.701049559
176.087,276.667768083
176.102,276.634399037
176.117,276.600942275
176.132,276.567397649
176.147,276.533765017
176.162,276.500044229
176.177,276.466235137
176.192,276.432337595
176.207,276.398351451
176.222,276.364276556
176.237,276.330112761
176.252,276.295859913
176.267,276.261517861
176.282,276.227086454
176.297,276.192565538
176.31,276.162574886
176.312,276.157954957
176.327,276.123254558
176.342,276.088464188
176.357,276.053583688
176.372,276.018612904
176.387,275.983551678
176.402,275.948399852
176.417,275.913157271
176.432,275.877823771
176.447,275.842399199
176.46,275.811624109
176.462,275.806883389
176.477,275.771276185
176.492,275.735577425
176.507,275.699786945
176.522,275.663904588
176.537,275.627930187
176.552,275.59186358
176.567,275.555704604
176.582,275.519453098
176.597,275.483108892
176.612,275.446671825
176.627,275.41014173
176.642,275.37351844
176.657,275.336801793
176.672,275.29999162
176.687,275.263087753
176.702,275.226090026
176.717,275.188998272
176.732,275.151812322
176.747,275.114532007
176.762,275.077157158
176.777,275.039687609
176.792,275.002123189
176.807,274.964463728
176.822,274.926709058
176.837,274.888859008
176.852,274.850913407
176.867,274.812872085
176.882,274.774734874
176.897,274.736501601
176.912,274.698172095
176.927,274.659746188
176.942,274.621223708
176.957,274.58260448
176.972,274.543888338
176.987,274.505075109
177.002,274.466164622
177.017,274.427156707
177.032,274.388051192
177.047,274.348847905
177.062,274.309546677
177.077,274.270147338
177.092,274.230649715
177.107,274.191053637
177.122,274.151358937
177.137,274.111565443
177.152,274.071672985
177.167,274.031681394
177.182,273.991590499
177.197,273.951400134
177.21,273.916487892
177.212,273.911110128
177.227,273.870720313
177.242,273.830230521
177.257,273.789640585
177.272,273.748950336
177.287,273.70815961
177.302,273.667268239
177.31,273.645418297
177.317,273.626276056
177.332,273.585182899
177.347,273.543988599
177.362,273.502692994
177.377,273.461295923
177.392,273.41979722
177.407,273.378196723
177.422,273.33649427
177.437,273.294689702
177.452,273.252782858
177.467,273.210773578
177.482,273.168661703
177.497,273.126447076
177.512,273.084129541
177.527,273.041708939
177.542,272.999185118
177.557,272.956557922
177.572,272.913827199
177.587,272.870992794
177.602,272.828054558
177.617,272.785012341
177.632,272.741865992
177.647,272.698615363
177.66,272.661047022
177.662,272.655260309
177.677,272.611800682
177.692,272.568236338
177.707,272.524567132
177.722,272.480792925
177.737,272.436913572
177.752,272.392928936
177.767,272.348838876
177.782,272.304643257
177.797,272.260341941
177.812,272.215934795
177.827,272.171421685
177.842,272.12680248
177.857,272.082077047
177.872,272.037245261
177.887,271.992306991
177.902,271.947262114
177.917,271.902110502
177.932,271.856852036
177.947,271.811486592
177.96,271.772083249
177.962,271.76601405
177.977,271.720434294
177.992,271.674747207
178.007,271.62895267
178.022,271.583050575
178.037,271.537040807
178.052,271.490923256
178.067,271.444697815
178.082,271.398364376
178.097,271.351922836
178.112,271.305373088
178.127,271.258715035
178.142,271.211948574
178.157,271.165073607
178.172,271.11809004
178.187,271.070997776
178.202,271.023796722
178.217,270.976486788
178.232,270.929067885
178.247,270.881539925
178.262,270.833902821
178.277,270.786156491
178.292,270.738300851
178.307,270.690335821
178.322,270.642261321
178.337,270.594077277
178.352,270.545783609
178.367,270.497380247
178.382,270.448867118
178.397,270.40024415
178.41,270.358015346
178.412,270.351511276
178.427,270.30266843
178.442,270.253715543
178.457,270.204652554
178.472,270.1554794
178.487,270.106196021
178.502,270.056802355
178.517,270.007298347
178.532,269.957683941
178.547,269.90795908
178.562,269.858123711
178.577,269.808177783
178.592,269.758121244
178.607,269.707954045
178.622,269.657676137
178.637,269.607287472
178.652,269.556788006
178.667,269.506177692
178.682,269.455456486
178.697,269.404624345
178.712,269.353681226
178.727,269.302627089
178.742,269.251461891
178.757,269.200185593
178.772,269.148798154
178.787,269.097299535
178.802,269.045689699
178.817,268.993968604
178.832,268.942136214
178.847,268.890192491
178.862,268.838137396
178.877,268.78597089
178.892,268.733692936
178.907,268.681303495
178.922,268.628802527
178.937,268.576189993
178.952,268.523465854
178.967,268.470630067
178.982,268.417682591
178.997,268.364623383
179.012,268.3114524
179.027,268.258169596
179.042,268.204774925
179.057,268.151268339
179.072,268.097649787
179.087,268.043919218
179.102,267.99007658
179.117,267.936121815
179.132,267.882054867
179.147,267.827875675
179.16,267.780829533
179.162,267.773584175
179.177,267.719180301
179.192,267.664663986
179.207,267.610035157
179.222,267.555293738
179.237,267.500439651
179.252,267.445472813
179.267,267.390393137
179.282,267.335200533
179.297,267.279894906
179.312,267.224476156
179.327,267.16894418
179.342,267.113298868
179.357,267.057540105
179.372,267.001667774
179.387,266.945681747
179.402,266.889581895
179.417,266.83336808
179.432,266.777040159
179.447,266.720597982
179.462,266.664041393
179.477,266.607370229
179.492,266.550584319
179.507,266.493683484
179.522,266.43666754
179.537,266.379536293
179.552,266.322289541
179.567,266.264927075
179.582,266.207448674
179.597,266.149854115
179.612,266.092143157
179.627,266.034315556
179.642,265.976371056
179.657,265.918309392
179.672,265.860130289
179.687,265.80183346
179.702,265.74341861
179.717,265.684885432
179.732,265.626233607
179.747,265.567462807
179.762,265.508572689
179.777,265.449562902
179.792,265.390433083
179.807,265.331182853
179.822,265.271811825
179.837,265.212319596
179.852,265.152705752
179.867,265.092969866
179.882,265.0331115
179.897,264.973130197
179.91,264.921046599
179.912,264.91302549
179.927,264.852796901
179.942,264.792443933
179.957,264.731966078
179.972,264.671362813
179.987,264.610633601
180.002,264.54977789
180.017,264.488795115
180.032,264.427684695
180.047,264.366446034
180.062,264.305078524
180.077,264.243581537
180.092,264.181954436
180.107,264.120196565
180.122,264.058307254
180.137,263.99628582
180.152,263.934131563
180.167,263.871843767
180.182,263.809421705
180.197,263.746864632
180.212,263.684171789
180.227,263.621342402
180.242,263.558375686
180.257,263.495270835
180.272,263.432027035
180.287,263.368643455
180.302,263.30511925
180.317,263.241453563
180.332,263.177645522
180.347,263.113694243
180.362,263.049598828
180.377,262.985358369
180.392,262.920971942
180.407,262.856438615
180.422,262.791757441
180.437,262.726927465
180.452,262.66194772
180.467,262.596817229
180.482,262.531535003
180.497,262.466100049
180.512,262.400511361
180.527,262.334767926
180.542,262.268868723
180.557,262.202812725
180.56,262.189582619
180.572,262.136598898
180.587,262.070226203
180.602,262.003693594
180.617,261.937000022
180.632,261.870144434
180.647,261.803125774
180.66,261.744910209
180.662,261.735942983
180.677,261.668595
180.692,261.601080765
180.707,261.533399217
180.722,261.465549294
180.737,261.397529938
180.752,261.329340092
180.767,261.260978701
180.782,261.192444716
180.797,261.123737089
180.812,261.054854783
180.827,260.985796761
180.842,260.916561997
180.857,260.847149472
180.872,260.777558174
180.887,260.707787102
180.902,260.637835263
180.917,260.567701676
180.932,260.497385371
180.947,260.42688539
180.962,260.356200786
180.977,260.285330626
180.992,260.214273992
181.007,260.143029977
181.022,260.071597691
181.037,259.999976255
181.052,259.928164809
181.067,259.856162506
181.082,259.783968512
181.097,259.711582013
181.112,259.639002204
181.127,259.5662283
181.142,259.493259527
181.157,259.420095126
181.172,259.346734351
181.187,259.273176469
181.202,259.199420759
181.217,259.125466509
181.232,259.051313018
181.247,258.976959595
181.262,258.90240555
181.277,258.827650204
181.292,258.752692877
181.307,258.677532892
181.31,258.662476516
181.322,258.602169568
181.337,258.526602221
181.352,258.450830162
181.367,258.374852689
181.382,258.298669086
181.397,258.222278623
181.412,258.145680546
181.427,258.068874075
181.442,257.991858404
181.457,257.914632688
181.472,257.837196044
181.487,257.759547541
181.502,257.681686201
181.517,257.603610983
181.532,257.525320784
181.547,257.446814429
181.562,257.368090664
181.577,257.289148147
181.592,257.209985442
181.607,257.130601007
181.622,257.050993189
181.637,256.97116021
181.652,256.891100159
181.667,256.810810982
181.682,256.73029047
181.697,256.649536248
181.712,256.56854576
181.727,256.487316262
181.742,256.405844804
181.757,256.324128218
181.772,256.242163106
181.787,256.159945821
181.802,256.077472455
181.817,255.994738822
181.832,255.911740443
181.847,255.828472529
181.862,255.744929962
181.877,255.661107279
181.892,255.576998653
181.907,255.492597874
181.922,255.407898331
181.937,255.322892991
181.952,255.237574379
181.967,255.151934558
181.982,255.065965106
181.997,254.979657099
182.012,254.893001084
182.027,254.80598706
182.042,254.718604454
182.057,254.6308421
182.06,254.613243034
182.072,254.542688215
182.087,254.454130375
182.102,254.365155494
182.117,254.275749799
182.132,254.185898806
182.147,254.095587301
182.162,254.004799311
182.177,253.913518086
182.192,253.821726071
182.207,253.72940489
182.222,253.636535322
182.237,253.543097276
182.252,253.449069778
182.267,253.354430942
182.282,253.259157962
182.297,253.163227087
182.312,253.066613605
182.327,252.969291835
182.342,252.871235105
182.357,252.772415747
182.372,252.672805086
182.387,252.572373433
182.402,252.471090078
182.417,252.368923293
182.432,252.265840326
182.447,252.161807413
182.462,252.056789777
182.477,251.950751644
182.492,251.843656254
182.507,251.73546588
182.522,251.626141847
182.537,251.51564456
182.552,251.40393353
182.567,251.290967406
182.582,251.176704009
182.597,251.061100365
182.612,250.944112749
182.627,250.825696713
182.642,250.705807125
182.657,250.584398195
182.672,250.461423495
182.687,250.336835966
182.702,250.210587908
182.717,250.082630937
182.732,249.952915915
182.747,249.821392825
182.762,249.688010585
182.777,249.552716779
182.792,249.415457275
182.807,249.27617571
182.822,249.134812783
182.837,248.99130532
182.852,248.845585035
182.867,248.697576904
182.882,248.547197039
182.897,248.394349931
182.912,248.238924854
182.927,248.080791219
182.942,247.919792537
182.957,247.755738598
182.972,247.588395286
182.987,247.417471314
183.002,247.24260085
183.017,247.06332066
183.032,246.879039849
183.047,246.68899951
183.062,246.492218428
183.077,246.287419301
183.092,246.072927281
183.107,245.846528598
183.122,245.605270529
183.137,245.345173514
183.152,245.060808804
183.167,244.744665665
183.182,244.386181703
183.197,243.970223445
183.212,243.474662181
183.227,242.866496404
183.242,242.095934699
183.257,241.089369617
183.367,241.356684557
183.382,242.291953826
183.397,243.012501272
183.412,243.585353003
183.427,244.055355574
183.442,244.45227459
183.457,244.796162971
183.472,245.100807015
183.487,245.375876567
183.502,245.628277784
183.517,245.863021209
183.532,246.083791554
183.547,246.29333011
183.562,246.493696736
183.577,246.686452731
183.592,246.87279062
183.607,247.053627635
183.622,247.229673908
183.637,247.401482805
183.652,247.569488423
183.667,247.734033771
183.682,247.895392098
183.697,248.053783125
183.712,248.209385469
183.727,248.362346173
183.742,248.512788049
183.757,248.660815334
183.772,248.806518061
183.787,248.949975424
183.802,249.091258375
183.817,249.230431613
183.832,249.367555114
183.847,249.502685286
183.862,249.63587585
183.877,249.767178494
183.892,249.896643357
183.907,250.02431938
183.922,250.150254555
183.937,250.274496096
183.952,250.397090548
183.967,250.518083852
183.982,250.637521378
183.997,250.755447931
184.012,250.871907739
184.027,250.986944433
184.042,251.100601016
184.057,251.212919827
184.072,251.323942503
184.087,251.433709945
184.102,251.542262276
184.117,251.649638814
184.132,251.755878032
184.147,251.861017537
184.162,251.965094039
184.177,252.068143334
184.192,252.170200282
184.207,252.271298797
184.222,252.371471832
184.237,252.470751374
184.252,252.569168437
184.267,252.666753064
184.282,252.763534325
184.297,252.859540322
184.312,252.954798195
184.327,253.049334132
184.342,253.143173374
184.357,253.236340233
184.372,253.328858103
184.387,253.420749472
184.402,253.512035943
184.417,253.602738249
184.432,253.692876272
184.447,253.78246906
184.462,253.871534847
184.477,253.960091078
184.492,254.048154424
184.507,254.135740804
184.522,254.222865412
184.537,254.309542729
184.552,254.395786555
184.56,254.441610574
184.567,254.481610024
184.582,254.567025629
184.597,254.652045242
184.612,254.736680137
184.627,254.820941011
184.642,254.904838007
184.657,254.98838073
184.672,255.071578275
184.687,255.154439243
184.702,255.236971761
184.717,255.319183505
184.732,255.401081715
184.747,255.482673217
184.762,255.563964444
184.777,255.644961448
184.792,255.725669921
184.807,255.806095216
184.822,255.886242355
184.837,255.966116055
184.852,256.045720737
184.867,256.125060544
184.882,256.204139356
184.897,256.282960805
184.912,256.361528286
184.927,256.439844976
184.942,256.51791384
184.957,256.595737649
184.972,256.673318991
184.987,256.75066028
185.002,256.827763769
185.017,256.904631562
185.032,256.981265623
185.047,257.057667784
185.062,257.133839757
185.077,257.209783141
185.092,257.285499434
185.107,257.360990036
185.122,257.436256262
185.137,257.511299343
185.152,257.586120441
185.167,257.660720649
185.182,257.735101
185.197,257.809262473
185.212,257.883205997
185.227,257.956932459
185.242,258.030442706
185.257,258.103737554
185.272,258.176817785
185.287,258.249684158
185.302,258.322337412
185.31,258.36099892
185.317,258.394778263
185.332,258.467007418
185.347,258.539025567
185.362,258.610833395
185.377,258.682431578
185.392,258.75382079
185.407,258.825001702
185.422,258.895974985
185.437,258.966741313
185.452,259.037301364
185.467,259.10765582
185.482,259.17780537
185.497,259.24775071
185.512,259.317492547
185.527,259.387031594
185.542,259.456368577
185.557,259.525504232
185.572,259.594439306
185.587,259.66317456
185.602,259.731710763
185.617,259.800048701
185.632,259.86818917
185.647,259.936132978
185.662,260.003880949
185.677,260.071433915
185.692,260.138792723
185.707,260.205958233
185.722,260.272931314
185.737,260.339712848
185.752,260.406303729
185.767,260.472704861
185.782,260.538917157
185.797,260.604941544
185.812,260.670778952
185.827,260.736430325
185.842,260.801896613
185.857,260.867178775
185.872,260.932277777
185.887,260.997194588
185.902,261.061930189
185.917,261.126485561
185.932,261.190861692
185.947,261.255059573
185.96,261.310554323
185.962,261.319080201
185.977,261.382924571
185.992,261.446593686
186.007,261.510088544
186.022,261.573410149
186.037,261.636559504
186.052,261.699537609
186.06,261.733056257
186.067,261.762345467
186.082,261.824984077
186.097,261.887454436
186.112,261.949757538
186.127,262.011894376
186.142,262.073865938
186.157,262.135673206
186.172,262.19731716
186.187,262.258798772
186.202,262.32011901
186.217,262.381278836
186.232,262.442279205
186.247,262.503121064
186.262,262.563805353
186.277,262.624333005
186.292,262.684704944
186.307,262.744922086
186.322,262.804985336
186.337,262.864895593
186.352,262.924653744
186.367,262.984260669
186.382,263.043717234
186.397,263.103024297
186.412,263.162182705
186.427,263.221193296
186.442,263.280056895
186.457,263.338774314
186.472,263.39734636
186.487,263.455773821
186.502,263.51405748
186.517,263.572198103
186.532,263.63019645
186.547,263.688053262
186.562,263.745769274
186.577,263.803345206
186.592,263.860781769
186.607,263.918079657
186.622,263.975239556
186.637,264.032262139
186.652,264.089148066
186.667,264.145897985
186.682,264.202512534
186.697,264.258992336
186.71,264.307832976
186.712,264.315338002
186.727,264.371550137
186.742,264.427629325
186.757,264.483576145
186.772,264.539391162
186.787,264.595074929
186.802,264.650627989
186.817,264.706050872
186.832,264.761344098
186.847,264.816508173
186.862,264.871543597
186.877,264.926450855
186.892,264.981230422
186.907,265.035882762
186.922,265.090408332
186.937,265.144807573
186.952,265.19908092
186.967,265.253228798
186.982,265.307251617
186.997,265.361149784
187.012,265.414923693
187.027,265.468573728
187.042,265.522100266
187.057,265.575503673
187.072,265.628784308
187.087,265.681942519
187.102,265.734978647
187.117,265.787893025
187.132,265.840685976
187.147,265.893357818
187.162,265.945908857
187.177,265.998339396
187.192,266.050649727
187.207,266.102840136
187.222,266.154910903
187.237,266.2068623
187.252,266.258694591
187.267,266.310408037
187.282,266.362002889
187.297,266.413479393
187.312,266.464837789
187.327,266.516078313
187.342,266.567201193
187.357,266.618206652
187.372,266.669094908
187.387,266.719866174
187.402,266.770520658
187.417,266.821058562
187.432,266.871480084
187.447,266.92178542
187.46,266.965289542
187.462,266.971974758
187.477,267.022048283
187.492,267.072006177
187.507,267.121848616
187.522,267.171575775
187.537,267.221187823
187.552,267.270684927
187.567,267.320067251
187.582,267.369334953
187.597,267.418488192
187.612,267.467527121
187.627,267.516451893
187.642,267.565262655
187.657,267.613959554
187.672,267.662542733
187.687,267.711012336
187.702,267.7593685
187.717,267.807611363
187.732,267.855741061
187.747,267.903757729
187.762,267.951661496
187.777,267.999452496
187.792,268.047130856
187.807,268.094696703
187.822,268.142150166
187.837,268.189491367
187.852,268.236720432
187.867,268.283837485
187.882,268.330842646
187.897,268.377736037
187.912,268.424517779
187.927,268.471187993
187.942,268.517746796
187.957,268.56419431
187.972,268.610530651
187.987,268.656755936
188.002,268.702870287
188.017,268.748873818
188.032,268.794766648
188.047,268.840548894
188.062,268.886220674
188.077,268.931782104
188.092,268.977233303
188.107,269.022574387
188.122,269.067805475
188.137,269.112926685
188.152,269.157938134
188.167,269.202839942
188.182,269.247632228
188.197,269.29231511
188.21,269.330951873
188.212,269.336888709
188.227,269.381353145
188.242,269.425708541
188.257,269.469955015
188.272,269.514092693
188.287,269.558121694
188.302,269.602042144
188.317,269.645854166
188.332,269.689557886
188.347,269.733153429
188.362,269.776640921
188.377,269.820020491
188.392,269.863292264
188.407,269.906456372
188.422,269.949512945
188.437,269.99246211
188.452,270.035304003
188.467,270.078038753
188.482,270.120666497
188.497,270.163187367
188.512,270.205601498
188.527,270.247909028
188.542,270.290110094
188.557,270.332204833
188.572,270.374193386
188.587,270.416075893
188.602,270.457852494
188.617,270.499523334
188.632,270.541088555
188.647,270.582548301
188.66,270.618394876
188.662,270.623902718
188.677,270.665151952
188.692,270.706296151
188.707,270.747335464
188.722,270.788270039
188.737,270.829100029
