# 01004 ENAS Ny-Alesund Ii Observations at 12Z 09 Sep 2019
Frequency [GHz],TB
175.31,246.88337876
175.322,246.950214966
175.337,247.03379498
175.352,247.117412346
175.367,247.20106568
175.382,247.284753581
175.397,247.368474633
175.412,247.452227415
175.427,247.536010473
175.442,247.619822352
175.457,247.703661571
175.472,247.78752664
175.487,247.871416042
175.502,247.95532826
175.517,248.039261752
175.532,248.123214947
175.547,248.207186293
175.562,248.291174184
175.577,248.375177021
175.592,248.459193167
175.607,248.543220991
175.622,248.627258827
175.637,248.711305004
175.652,248.795357828
175.667,248.879415592
175.682,248.963476564
175.697,249.047538995
175.712,249.131601138
175.727,249.215661201
175.742,249.299717378
175.757,249.383767873
175.772,249.467810846
175.787,249.551844439
175.802,249.635866793
175.817,249.719876006
175.832,249.803870186
175.847,249.887847398
175.862,249.971805711
175.877,250.055743152
175.892,250.139657752
175.907,250.223547502
175.922,250.307410396
175.937,250.391244388
175.952,250.47504743
175.967,250.558817452
175.982,250.642552348
175.997,250.726250015
176.012,250.809908325
176.027,250.89352512
176.042,250.977098235
176.057,251.060625483
176.072,251.144104655
176.087,251.227533523
176.102,251.310909834
176.117,251.394231325
176.132,251.477495712
176.147,251.560700687
176.162,251.643843918
176.177,251.726923075
176.192,251.809935778
176.207,251.892879636
176.222,251.975752259
176.237,252.058551211
176.252,252.141274049
176.267,252.223918308
176.282,252.306481499
176.297,252.388961125
176.31,252.460373906
176.312,252.471354644
176.327,252.553659514
176.342,252.635873175
176.357,252.717993028
176.372,252.800016477
176.387,252.881940887
176.402,252.963763608
176.417,253.045481971
176.432,253.127093297
176.447,253.208594858
176.46,253.279138661
176.462,253.289983939
176.477,253.371257782
176.492,253.452413619
176.507,253.533448651
176.522,253.614360073
176.537,253.69514505
176.552,253.775800723
176.567,253.856324231
176.582,253.936712669
176.597,254.016963119
176.612,254.097072661
176.627,254.177038333
176.642,254.256857165
176.657,254.336526141
176.672,254.416042262
176.687,254.495402493
176.702,254.574603763
176.717,254.653643011
176.732,254.732517133
176.747,254.81122302
176.762,254.889757524
176.777,254.968117493
176.792,255.046299755
176.807,255.124301109
176.822,255.202118339
176.837,255.279748214
176.852,255.357187475
176.867,255.434432844
176.882,255.51148104
176.897,255.588328744
176.912,255.664972616
176.927,255.741409316
176.942,255.817635471
176.957,255.893647693
176.972,255.969442572
176.987,256.045016688
177.002,256.120366585
177.017,256.195488817
177.032,256.270379896
177.047,256.345036317
177.062,256.419454567
177.077,256.49363112
177.092,256.567562425
177.107,256.641244906
177.122,256.714674976
177.137,256.787849042
177.152,256.860763479
177.167,256.933414643
177.182,257.005798898
177.197,257.077912571
177.21,257.140189364
177.212,257.149751972
177.227,257.221313401
177.242,257.292593156
177.257,257.363587489
177.272,257.434292666
177.287,257.504704924
177.302,257.574820482
177.31,257.612092827
177.317,257.644635557
177.332,257.714146349
177.347,257.783349045
177.362,257.852239797
177.377,257.920814776
177.392,257.989070122
177.407,258.057001967
177.422,258.124606434
177.437,258.191879626
177.452,258.258817643
177.467,258.325416562
177.482,258.391672464
177.497,258.457581406
177.512,258.523139445
177.527,258.58834262
177.542,258.653186964
177.557,258.717668508
177.572,258.781783262
177.587,258.845527236
177.602,258.908896422
177.617,258.971886816
177.632,259.034494404
177.647,259.096715157
177.66,259.150323797
177.662,259.158545056
177.677,259.219980057
177.692,259.281016117
177.707,259.341649202
177.722,259.40187525
177.737,259.461690204
177.752,259.521090019
177.767,259.580070627
177.782,259.638627964
177.797,259.696757965
177.812,259.754456548
177.827,259.811719666
177.842,259.868543231
177.857,259.924923177
177.872,259.980855433
177.887,260.036335935
177.902,260.091360607
177.917,260.145925388
177.932,260.200026206
177.947,260.253659
177.96,260.299759043
177.962,260.306819724
177.977,260.359504308
177.992,260.411708707
178.007,260.463428889
178.022,260.514660802
178.037,260.565400419
178.052,260.615643712
178.067,260.665386659
178.082,260.714625265
178.097,260.763355513
178.112,260.811573428
178.127,260.859275009
178.142,260.906456299
178.157,260.953113337
178.172,260.999242167
178.187,261.04483887
178.202,261.089899507
178.217,261.134420182
178.232,261.178396984
178.247,261.221826054
178.262,261.264703521
178.277,261.307025531
178.292,261.348788269
178.307,261.389987914
178.322,261.430620677
178.337,261.470682781
178.352,261.510170466
178.367,261.549080007
178.382,261.587407694
178.397,261.625149825
178.41,261.657383186
178.412,261.662302734
178.427,261.698862781
178.442,261.73482634
178.457,261.770189817
178.472,261.804949635
178.487,261.839102243
178.502,261.872644144
178.517,261.90557182
178.532,261.937881818
178.547,261.969570697
178.562,262.000635051
178.577,262.031071508
178.592,262.060876721
178.607,262.09004737
178.622,262.118580165
178.637,262.14647186
178.652,262.173719244
178.667,262.200319117
178.682,262.226268344
178.697,262.251563803
178.712,262.276202412
178.727,262.300181129
178.742,262.323496948
178.757,262.346146899
178.772,262.368128042
178.787,262.389437494
178.802,262.410072394
178.817,262.430029932
178.832,262.449307333
178.847,262.467901859
178.862,262.485810817
178.877,262.503031555
178.892,262.519561467
178.907,262.535397978
178.922,262.550538577
178.937,262.564980776
178.952,262.578722136
178.967,262.591760266
178.982,262.604092821
178.997,262.615717493
179.012,262.62663203
179.027,262.63683422
179.042,262.646321895
179.057,262.65509293
179.072,262.66314526
179.087,262.670476864
179.102,262.677085749
179.117,262.682969991
179.132,262.688127704
179.147,262.692557053
179.16,262.695805272
179.162,262.696256249
179.177,262.699223553
179.192,262.701457258
179.207,262.702955732
179.222,262.703717377
179.237,262.703740647
179.252,262.703024029
179.267,262.701566073
179.282,262.699365381
179.297,262.696420596
179.312,262.692730393
179.327,262.688293523
179.342,262.68310876
179.357,262.677174953
179.372,262.670490959
179.387,262.663055723
179.402,262.654868205
179.417,262.645927421
179.432,262.636232436
179.447,262.625782359
179.462,262.614576341
179.477,262.602613571
179.492,262.589893294
179.507,262.576414793
179.522,262.56217739
179.537,262.547180455
179.552,262.531423387
179.567,262.514905644
179.582,262.497626702
179.597,262.479586094
179.612,262.46078338
179.627,262.441218162
179.642,262.420890074
179.657,262.399798802
179.672,262.377944035
179.687,262.355325514
179.702,262.331943018
179.717,262.307796352
179.732,262.282885344
179.747,262.257209865
179.762,262.230769787
179.777,262.203565044
179.792,262.175595572
179.807,262.14686133
179.822,262.117362319
179.837,262.08709854
179.852,262.056070025
179.867,262.024276826
179.882,261.991719003
179.897,261.958396638
179.91,261.928898897
179.912,261.924309823
179.927,261.88945867
179.942,261.8538433
179.957,261.817463832
179.972,261.780320397
179.987,261.742413152
180.002,261.703742231
180.017,261.664307777
180.032,261.624109954
180.047,261.583148904
180.062,261.541424755
180.077,261.49893767
180.092,261.455687769
180.107,261.411675178
180.122,261.366900021
180.137,261.321362389
180.152,261.275062377
180.167,261.22800006
180.182,261.180175484
180.197,261.131588691
180.212,261.082239702
180.227,261.03212849
180.242,260.981255037
180.257,260.929619269
180.272,260.877221094
180.287,260.824060388
180.302,260.770136991
180.317,260.715450715
180.332,260.660001331
180.347,260.603788559
180.362,260.546812087
180.377,260.489071571
180.392,260.430566609
180.407,260.37129675
180.422,260.311261502
180.437,260.250460313
180.452,260.188892598
180.467,260.126557676
180.482,260.063454863
180.497,259.999583385
180.512,259.934942414
180.527,259.869531046
180.542,259.803348371
180.557,259.736393337
180.56,259.722909553
180.572,259.668664871
180.587,259.600161836
180.602,259.530883008
180.617,259.460827098
180.632,259.389992755
180.647,259.318378541
180.66,259.255680896
180.662,259.245982943
180.677,259.172804407
180.692,259.098841248
180.707,259.024091752
180.722,258.948554105
180.737,258.872226416
180.752,258.795106714
180.767,258.717192956
180.782,258.638483009
180.797,258.558974667
180.812,258.478665637
180.827,258.397553542
180.842,258.315635943
180.857,258.2329103
180.872,258.14937399
180.887,258.065024317
180.902,257.979858504
180.917,257.893873701
180.932,257.807066963
180.947,257.719435278
180.962,257.630975548
180.977,257.54168461
180.992,257.451559213
181.007,257.360596031
181.022,257.268791683
181.037,257.176142713
181.052,257.08264557
181.067,256.988296672
181.082,256.893092359
181.097,256.797028898
181.112,256.700102515
181.127,256.60230937
181.142,256.503645579
181.157,256.404107183
181.172,256.303690221
181.187,256.202390657
181.202,256.100204417
181.217,255.997127418
181.232,255.893155523
181.247,255.788284588
181.262,255.682510441
181.277,255.575828899
181.292,255.468235776
181.307,255.359726885
181.31,255.337914842
181.322,255.250298029
181.337,255.139945041
181.352,255.028663771
181.367,254.916450084
181.382,254.803299886
181.397,254.68920913
181.412,254.574173815
181.427,254.458189994
181.442,254.341253801
181.457,254.223361445
181.472,254.104509225
181.487,253.98469352
181.502,253.863910853
181.517,253.742157853
181.532,253.619431273
181.547,253.495728022
181.562,253.371045185
181.577,253.245379995
181.592,253.118729879
181.607,252.991092479
181.622,252.862465645
181.637,252.732847456
181.652,252.602236251
181.667,252.47063062
181.682,252.338029457
181.697,252.204431941
181.712,252.069837595
181.727,251.934246252
181.742,251.797658145
181.757,251.66007385
181.772,251.521494367
181.787,251.38192114
181.802,251.241356023
181.817,251.099801391
181.832,250.957260081
181.847,250.813735475
181.862,250.669231493
181.877,250.523752656
181.892,250.377304068
181.907,250.229891491
181.922,250.081521337
181.937,249.932200728
181.952,249.781937503
181.967,249.630740273
181.982,249.478618437
181.997,249.325582227
182.012,249.171642752
182.027,249.016812014
182.042,248.861102943
182.057,248.704529467
182.06,248.67311234
182.072,248.547106521
182.087,248.388850096
182.102,248.229777285
182.117,248.069906314
182.132,247.909256614
182.147,247.747848819
182.162,247.585704845
182.177,247.422847924
182.192,247.259302665
182.207,247.095095068
182.222,246.930252595
182.237,246.764804236
182.252,246.598780515
182.267,246.432213571
182.282,246.265137205
182.297,246.097586927
182.312,245.929599982
182.327,245.761215466
182.342,245.592474314
182.357,245.423419365
182.372,245.254095457
182.387,245.084549416
182.402,244.914830152
182.417,244.744988679
182.432,244.575078211
182.447,244.405154154
182.462,244.235274197
182.477,244.065498353
182.492,243.895888967
182.507,243.726510827
182.522,243.557431146
182.537,243.388719633
182.552,243.22044852
182.567,243.052692618
182.582,242.8855293
182.597,242.719038598
182.612,242.553303166
182.627,242.388408329
182.642,242.224442108
182.657,242.061495196
182.672,241.899661008
182.687,241.739035633
182.702,241.579717871
182.717,241.421809189
182.732,241.265413701
182.747,241.110638163
182.762,240.957591908
182.777,240.806386814
182.792,240.657137247
182.807,240.509959985
182.822,240.364974169
182.837,240.222301176
182.852,240.082064565
182.867,239.944389938
182.882,239.809404829
182.897,239.677238552
182.912,239.548022086
182.927,239.421887883
182.942,239.298969681
182.957,239.179402335
182.972,239.063321567
182.987,238.950863736
183.002,238.842165576
183.017,238.737363887
183.032,238.636595218
183.047,238.539995486
183.062,238.447699595
183.077,238.359840957
183.092,238.276551001
183.107,238.197958612
183.122,238.124189523
183.137,238.055365612
183.152,237.991604211
183.167,237.933017273
183.182,237.879710562
183.197,237.831782775
183.212,237.789324626
183.227,237.752417994
183.242,237.721135003
183.257,237.695537245
183.367,237.684458761
183.382,237.707009965
183.397,237.735228755
183.412,237.769050218
183.427,237.808399154
183.442,237.853190876
183.457,237.903332137
183.472,237.958721986
183.487,238.01925269
183.502,238.0848106
183.517,238.155276979
183.532,238.230528771
183.547,238.310439329
183.562,238.39487908
183.577,238.483716128
183.592,238.576816784
183.607,238.674046059
183.622,238.775268129
183.637,238.880346705
183.652,238.989145367
183.667,239.101527943
183.682,239.217358731
183.697,239.336502807
183.712,239.458826215
183.727,239.584196221
183.742,239.712481464
183.757,239.843552169
183.772,239.977280262
183.787,240.113539561
183.802,240.252205866
183.817,240.393157079
183.832,240.536273325
183.847,240.681437023
183.862,240.82853301
183.877,240.977448519
183.892,241.128073342
183.907,241.280299829
183.922,241.434022899
183.937,241.58914015
183.952,241.745551805
183.967,241.903160796
183.982,242.061872706
183.997,242.221595834
184.012,242.382241159
184.027,242.543722319
184.042,242.705955645
184.057,242.868860087
184.072,243.032357225
184.087,243.196371236
184.102,243.360828863
184.117,243.525659359
184.132,243.69079449
184.147,243.856168466
184.162,244.021717914
184.177,244.187381804
184.192,244.353101467
184.207,244.518820473
184.222,244.684484644
184.237,244.850041963
184.252,245.01544255
184.267,245.180638604
184.282,245.345584346
184.297,245.510235966
184.312,245.674551589
184.327,245.838491209
184.342,246.002016632
184.357,246.165091451
184.372,246.327680959
184.387,246.489752137
184.402,246.651273568
184.417,246.812215408
184.432,246.972549334
184.447,247.132248496
184.462,247.291287471
184.477,247.449642207
184.492,247.607289984
184.507,247.764209371
184.522,247.920380168
184.537,248.075783393
184.552,248.230401202
184.56,248.312537068
184.567,248.38421688
184.582,248.537214759
184.597,248.689380235
184.612,248.840699679
184.627,248.991160424
184.642,249.140750719
184.657,249.2894597
184.672,249.437277339
184.687,249.584194441
184.702,249.73020258
184.717,249.875294076
184.732,250.019461968
184.747,250.162699981
184.762,250.305002492
184.777,250.446364502
184.792,250.586781628
184.807,250.726250041
184.822,250.864766465
184.837,251.002328138
184.852,251.138932812
184.867,251.274578669
184.882,251.409264397
184.897,251.542989063
184.912,251.675752157
184.927,251.807553553
184.942,251.938393476
184.957,252.068272518
184.972,252.197191579
184.987,252.32515187
185.002,252.452154875
185.017,252.57820238
185.032,252.703296413
185.047,252.827439236
185.062,252.950633345
185.077,253.07288144
185.092,253.194186427
185.107,253.314551392
185.122,253.433979573
185.137,253.55247441
185.152,253.670039432
185.167,253.78667835
185.182,253.90239497
185.197,254.017193227
185.212,254.131077147
185.227,254.24405085
185.242,254.356118549
185.257,254.467284519
185.272,254.577553118
185.287,254.686928745
185.302,254.795415848
185.31,254.852913885
185.317,254.903018934
185.332,255.009742528
185.347,255.115591197
185.362,255.220569519
185.377,255.324682094
185.392,255.427933526
185.407,255.530328434
185.422,255.631871424
185.437,255.732567102
185.452,255.832420057
185.467,255.93143488
185.482,256.029616108
185.497,256.126968288
185.512,256.22349592
185.527,256.319203476
185.542,256.414095398
185.557,256.508176088
185.572,256.601449896
185.587,256.693921141
185.602,256.785594087
185.617,256.876472946
185.632,256.966561893
185.647,257.05586504
185.662,257.14438644
185.677,257.232130083
185.692,257.319099908
185.707,257.405299805
185.722,257.490733584
185.737,257.575404996
185.752,257.659317715
185.767,257.742475378
185.782,257.824881537
185.797,257.906539676
185.812,257.987453212
185.827,258.067625494
185.842,258.147059815
185.857,258.225759374
185.872,258.303727322
185.887,258.380966729
185.902,258.457480595
185.917,258.533271868
185.932,258.608343394
185.947,258.68269799
185.96,258.746560818
185.962,258.756338362
185.977,258.829267181
185.992,258.901487021
186.007,258.973000417
186.022,259.043809824
186.037,259.113917627
186.052,259.183326152
186.06,259.220058884
186.067,259.25203765
186.082,259.320054317
186.097,259.38737829
186.112,259.454011635
186.127,259.519956345
186.142,259.585214374
186.157,259.649787614
186.172,259.71367789
186.187,259.776886969
186.202,259.839416557
186.217,259.901268336
186.232,259.962443895
186.247,260.022944785
186.262,260.082772517
186.277,260.141928538
186.292,260.20041425
186.307,260.258231018
186.322,260.315380137
186.337,260.37186288
186.352,260.427680475
186.367,260.482834087
186.382,260.537324874
186.397,260.591153926
186.412,260.644322306
186.427,260.696831042
186.442,260.748681134
186.457,260.799873531
186.472,260.850409159
186.487,260.900288921
186.502,260.949513682
186.517,260.998084289
186.532,261.046001541
186.547,261.093266251
186.562,261.139879169
186.577,261.18584104
186.592,261.231152597
186.607,261.275814538
186.622,261.319827553
186.637,261.363192319
186.652,261.405909492
186.667,261.447979703
186.682,261.489403607
186.697,261.530181809
186.71,261.565001094
186.712,261.570314926
186.727,261.60980356
186.742,261.648648312
186.757,261.686849764
186.772,261.724408523
186.787,261.761325148
186.802,261.797600245
186.817,261.833234381
186.832,261.868228143
186.847,261.902582125
186.862,261.936296905
186.877,261.969373068
186.892,262.001811231
186.907,262.033611981
186.922,262.064775928
186.937,262.095303701
186.952,262.12519592
186.967,262.154453223
186.982,262.183076266
186.997,262.211065713
187.012,262.238422218
187.027,262.265146494
187.042,262.291239232
187.057,262.316701157
187.072,262.34153299
187.087,262.365735506
187.102,262.38930946
187.117,262.41225565
187.132,262.434574873
187.147,262.456267965
187.162,262.477335784
187.177,262.49777919
187.192,262.517599078
187.207,262.536796362
187.222,262.555371988
187.237,262.573326914
187.252,262.590662129
187.267,262.607378637
187.282,262.623477484
187.297,262.638959725
187.312,262.653826452
187.327,262.668078768
187.342,262.681717831
187.357,262.694744799
187.372,262.70716087
187.387,262.718967271
187.402,262.73016524
187.417,262.740756068
187.432,262.750741061
187.447,262.760121549
187.46,262.767763389
187.462,262.768898904
187.477,262.777074515
187.492,262.784649806
187.507,262.791626234
187.522,262.798005271
187.537,262.803788437
187.552,262.808977265
187.567,262.813573337
187.582,262.817578247
187.597,262.820993617
187.612,262.82382111
187.627,262.826062416
187.642,262.82771925
187.657,262.828793364
187.672,262.82928654
187.687,262.829200567
187.702,262.828537292
187.717,262.827298576
187.732,262.82548632
187.747,262.823102438
187.762,262.820148878
187.777,262.816627627
187.792,262.812540691
187.807,262.807890107
187.822,262.80267793
187.837,262.796906259
187.852,262.790577212
187.867,262.783692927
187.882,262.776255589
187.897,262.768267395
187.912,262.759730556
187.927,262.750647332
187.942,262.741020018
187.957,262.730850887
187.972,262.720142288
187.987,262.708896562
188.002,262.697116102
188.017,262.684803287
188.032,262.67196056
188.047,262.658590358
188.062,262.644695168
188.077,262.630277466
188.092,262.615339788
188.107,262.599884651
188.122,262.583914638
188.137,262.567432312
188.152,262.550440286
188.167,262.532941183
188.182,262.514937637
188.197,262.496432319
188.21,262.47999057
188.212,262.477427906
188.227,262.457927109
188.242,262.437932632
188.257,262.417447221
188.272,262.396473623
188.287,262.375014618
188.302,262.353072988
188.317,262.33065154
188.332,262.307753099
188.347,262.284380492
188.362,262.260536578
188.377,262.236224212
188.392,262.211446281
188.407,262.186205677
188.422,262.160505304
188.437,262.134348084
188.452,262.107736948
188.467,262.080674838
188.482,262.053164711
188.497,262.02520953
188.512,261.996812277
188.527,261.967975937
188.542,261.938703506
188.557,261.908997988
188.572,261.878862403
188.587,261.848299776
188.602,261.817313135
188.617,261.785905521
188.632,261.754079978
188.647,261.721839572
188.66,261.693564665
188.662,261.689187353
188.677,261.656126386
188.692,261.622659748
188.707,261.588790523
188.722,261.554521789
188.737,261.519856624
