# 10410 EDZE Essen Observations at 12Z 08 Jan 2019
Frequency [GHz],TB
175.31,264.047240419
175.322,264.055872473
175.337,264.066494219
175.352,264.076928225
175.367,264.087173731
175.382,264.097229978
175.397,264.107096213
175.412,264.116771687
175.427,264.126255654
175.442,264.135547373
175.457,264.144646108
175.472,264.153551127
175.487,264.162261701
175.502,264.170777108
175.517,264.17909663
175.532,264.187219553
175.547,264.195145169
175.562,264.202872776
175.577,264.210401674
175.592,264.217731172
175.607,264.22486058
175.622,264.231789219
175.637,264.238516409
175.652,264.245041482
175.667,264.251363772
175.682,264.257482619
175.697,264.263397371
175.712,264.269107379
175.727,264.274612002
175.742,264.279910607
175.757,264.285002563
175.772,264.289887249
175.787,264.294564049
175.802,264.299032354
175.817,264.303291563
175.832,264.307341078
175.847,264.311180312
175.862,264.314808684
175.877,264.318225619
175.892,264.321430549
175.907,264.324422916
175.922,264.327202166
175.937,264.329767755
175.952,264.332119146
175.967,264.334255809
175.982,264.336177223
175.997,264.337882873
176.012,264.339372255
176.027,264.34064487
176.042,264.341700229
176.057,264.342537851
176.072,264.343157263
176.087,264.343558002
176.102,264.343739612
176.117,264.343701645
176.132,264.343443664
176.147,264.34296524
176.162,264.342265952
176.177,264.341345389
176.192,264.340203149
176.207,264.33883884
176.222,264.337252078
176.237,264.335442488
176.252,264.333409708
176.267,264.331153381
176.282,264.328673163
176.297,264.325968717
176.31,264.323443238
176.312,264.32303972
176.327,264.319885854
176.342,264.316506815
176.357,264.312902306
176.372,264.309072043
176.387,264.305015751
176.402,264.300733165
176.417,264.29622403
176.432,264.291488104
176.447,264.286525152
176.46,264.282040116
176.462,264.281334952
176.477,264.275917292
176.492,264.270271972
176.507,264.2643988
176.522,264.258297599
176.537,264.251968198
176.552,264.245410442
176.567,264.238624184
176.582,264.231609289
176.597,264.224365634
176.612,264.216893105
176.627,264.209191601
176.642,264.201261034
176.657,264.193101324
176.672,264.184712404
176.687,264.17609422
176.702,264.167246728
176.717,264.158169895
176.732,264.148863702
176.747,264.139328139
176.762,264.129563209
176.777,264.119568928
176.792,264.109345322
176.807,264.098892428
176.822,264.088210299
176.837,264.077298995
176.852,264.06615859
176.867,264.054789172
176.882,264.043190838
176.897,264.031363697
176.912,264.019307871
176.927,264.007023495
176.942,263.994510714
176.957,263.981769686
176.972,263.968800581
176.987,263.955603581
177.002,263.942178878
177.017,263.928526681
177.032,263.914647205
177.047,263.90054068
177.062,263.886207349
177.077,263.871647464
177.092,263.856861291
177.107,263.841849108
177.122,263.826611203
177.137,263.811147877
177.152,263.795459443
177.167,263.779546226
177.182,263.763408561
177.197,263.747046796
177.21,263.732685605
177.212,263.730461291
177.227,263.713652416
177.242,263.696620553
177.257,263.679366098
177.272,263.661889453
177.287,263.644191037
177.302,263.626271276
177.31,263.616623717
177.317,263.60813061
177.332,263.589769489
177.347,263.571188372
177.362,263.552387733
177.377,263.533368053
177.392,263.514129827
177.407,263.494673558
177.422,263.47499976
177.437,263.45510896
177.452,263.435001692
177.467,263.414678501
177.482,263.394139944
177.497,263.373386587
177.512,263.352419005
177.527,263.331237783
177.542,263.309843517
177.557,263.288236811
177.572,263.266418279
177.587,263.244388545
177.602,263.222148241
177.617,263.199698008
177.632,263.177038496
177.647,263.154170364
177.66,263.134183081
177.662,263.131094279
177.677,263.107810918
177.692,263.084320963
177.707,263.060625108
177.722,263.036724051
177.737,263.0126185
177.752,262.988309171
177.767,262.963796784
177.782,262.939082071
177.797,262.914165767
177.812,262.889048616
177.827,262.863731368
177.842,262.838214778
177.857,262.81249961
177.872,262.786586632
177.887,262.760476619
177.902,262.73417035
177.917,262.70766861
177.932,262.680972191
177.947,262.654081887
177.96,262.630620745
177.962,262.6269985
177.977,262.599722834
177.992,262.572255698
178.007,262.544597906
178.022,262.516750275
178.037,262.488713625
178.052,262.460488782
178.067,262.432076572
178.082,262.403477827
178.097,262.374693378
178.112,262.345724063
178.127,262.316570718
178.142,262.287234185
178.157,262.257715305
178.172,262.228014921
178.187,262.198133877
178.202,262.16807302
178.217,262.137833196
178.232,262.107415252
178.247,262.076820035
178.262,262.046048392
178.277,262.015101172
178.292,261.98397922
178.307,261.952683383
178.322,261.921214506
178.337,261.889573433
178.352,261.857761006
178.367,261.825778066
178.382,261.793625452
178.397,261.761304001
178.41,261.73315615
178.412,261.728814546
178.427,261.69615792
178.442,261.66333495
178.457,261.630346463
178.472,261.59719328
178.487,261.56387622
178.502,261.530396095
178.517,261.496753718
178.532,261.462949893
178.547,261.428985422
178.562,261.3948611
178.577,261.360577718
178.592,261.326136063
178.607,261.291536913
178.622,261.256781043
178.637,261.221869221
178.652,261.186802208
178.667,261.15158076
178.682,261.116205625
178.697,261.080677544
178.712,261.044997251
178.727,261.009165474
178.742,260.97318293
178.757,260.937050332
178.772,260.900768382
178.787,260.864337775
178.802,260.827759198
178.817,260.791033328
178.832,260.754160834
178.847,260.717142376
178.862,260.679978604
178.877,260.64267016
178.892,260.605217676
178.907,260.567621771
178.922,260.52988306
178.937,260.492002143
178.952,260.453979612
178.967,260.415816048
178.982,260.37751202
178.997,260.33906809
179.012,260.300484805
179.027,260.261762703
179.042,260.222902311
179.057,260.183904144
179.072,260.144768706
179.087,260.105496489
179.102,260.066087974
179.117,260.026543629
179.132,259.986863912
179.147,259.947049267
179.16,259.912434436
179.162,259.907100128
179.177,259.867016915
179.192,259.826800035
179.207,259.786449887
179.222,259.745966852
179.237,259.705351302
179.252,259.664603595
179.267,259.623724077
179.282,259.582713082
179.297,259.54157093
179.312,259.500297927
179.327,259.458894369
179.342,259.417360538
179.357,259.375696702
179.372,259.333903116
179.387,259.291980025
179.402,259.249927657
179.417,259.207746228
179.432,259.165435944
179.447,259.122996994
179.462,259.080429555
179.477,259.037733792
179.492,258.994909856
179.507,258.951957885
179.522,258.908878005
179.537,258.865670327
179.552,258.822334951
179.567,258.778871961
179.582,258.735281432
179.597,258.691563423
179.612,258.647717981
179.627,258.603745139
179.642,258.55964492
179.657,258.515417332
179.672,258.471062369
179.687,258.426580015
179.702,258.381970241
179.717,258.337233002
179.732,258.292368244
179.747,258.247375899
179.762,258.202255887
179.777,258.157008115
179.792,258.111632478
179.807,258.066128857
179.822,258.020497125
179.837,257.974737137
179.852,257.928848741
179.867,257.88283177
179.882,257.836686045
179.897,257.790411376
179.91,257.750202205
179.912,257.744007561
179.927,257.697474386
179.942,257.650811625
179.957,257.60401904
179.972,257.557096382
179.987,257.510043391
180.002,257.462859794
180.017,257.415545307
180.032,257.368099634
180.047,257.32052247
180.062,257.272813496
180.077,257.224972382
180.092,257.176998789
180.107,257.128892365
180.122,257.080652747
180.137,257.032279561
180.152,256.983772423
180.167,256.935130937
180.182,256.886354695
180.197,256.837443281
180.212,256.788396265
180.227,256.739213208
180.242,256.689893661
180.257,256.64043716
180.272,256.590843236
180.287,256.541111403
180.302,256.49124117
180.317,256.441232031
180.332,256.391083472
180.347,256.340794965
180.362,256.290365974
180.377,256.23979595
180.392,256.189084335
180.407,256.138230559
180.422,256.087234041
180.437,256.036094189
180.452,255.984810399
180.467,255.933382058
180.482,255.881808539
180.497,255.830089206
180.512,255.77822341
180.527,255.726210491
180.542,255.674049777
180.557,255.621740586
180.56,255.611260869
180.572,255.569282222
180.587,255.516673977
180.602,255.463915132
180.617,255.411004956
180.632,255.357942704
180.647,255.304727619
180.66,255.25848366
180.662,255.251358932
180.677,255.197835861
180.692,255.14415761
180.707,255.090323369
180.722,255.036332316
180.737,254.982183614
180.752,254.927876414
180.767,254.87340985
180.782,254.818783043
180.797,254.763995099
180.812,254.709045109
180.827,254.653932148
180.842,254.598655277
180.857,254.543213539
180.872,254.487605962
180.887,254.431831557
180.902,254.375889319
180.917,254.319778225
180.932,254.263497234
180.947,254.207045288
180.962,254.15042131
180.977,254.093624205
180.992,254.036652858
181.007,253.979506136
181.022,253.922182886
181.037,253.864681933
181.052,253.807002082
181.067,253.74914212
181.082,253.691100808
181.097,253.632876889
181.112,253.574469081
181.127,253.51587608
181.142,253.457096561
181.157,253.398129172
181.172,253.338972541
181.187,253.279625268
181.202,253.22008593
181.217,253.16035308
181.232,253.100425243
181.247,253.04030092
181.262,252.979978585
181.277,252.919456685
181.292,252.858733642
181.307,252.797807848
181.31,252.785598216
181.322,252.73667767
181.337,252.675341444
181.352,252.613797482
181.367,252.552044064
181.382,252.490079443
181.397,252.427901845
181.412,252.365509465
181.427,252.302900469
181.442,252.240072996
181.457,252.177025155
181.472,252.113755026
181.487,252.050260661
181.502,251.986540085
181.517,251.922591291
181.532,251.858412249
181.547,251.794000898
181.562,251.729355152
181.577,251.664472897
181.592,251.599351997
181.607,251.533990288
181.622,251.468385584
181.637,251.402535674
181.652,251.336438328
181.667,251.270091295
181.682,251.203492304
181.697,251.136639068
181.712,251.069529284
181.727,251.002160635
181.742,250.934530792
181.757,250.866637417
181.772,250.798478167
181.787,250.730050691
181.802,250.66135264
181.817,250.592381664
181.832,250.523135419
181.847,250.45361157
181.862,250.383807793
181.877,250.313721781
181.892,250.243351247
181.907,250.172693928
181.922,250.101747594
181.937,250.030510046
181.952,249.958979129
181.967,249.887152731
181.982,249.815028794
181.997,249.742605318
182.012,249.669880368
182.027,249.596852081
182.042,249.523518673
182.057,249.449878447
182.06,249.435113441
182.072,249.375929801
182.087,249.301671237
182.102,249.227101366
182.117,249.152218922
182.132,249.077022767
182.147,249.001511902
182.162,248.925685476
182.177,248.849542796
182.192,248.773083337
182.207,248.696306753
182.222,248.619212885
182.237,248.541801773
182.252,248.464073663
182.267,248.386029024
182.282,248.307668549
182.297,248.228993172
182.312,248.150004071
182.327,248.070702681
182.342,247.991090702
182.357,247.911170102
182.372,247.830943128
182.387,247.750412308
182.402,247.669580456
182.417,247.588450673
182.432,247.50702635
182.447,247.42531116
182.462,247.343309059
182.477,247.261024278
182.492,247.178461308
182.507,247.09562489
182.522,247.012519993
182.537,246.929151792
182.552,246.845525638
182.567,246.761647026
182.582,246.677521549
182.597,246.593154849
182.612,246.508552563
182.627,246.423720252
182.642,246.338663325
182.657,246.253386952
182.672,246.167895959
182.687,246.082194714
182.702,245.996287001
182.717,245.910175865
182.732,245.823863457
182.747,245.737350843
182.762,245.650637801
182.777,245.5637226
182.792,245.476601742
182.807,245.389269697
182.822,245.301718599
182.837,245.213937927
182.852,245.125914161
182.867,245.037630414
182.882,244.949066052
182.897,244.860196307
182.912,244.770991889
182.927,244.681418618
182.942,244.591437108
182.957,244.501002524
182.972,244.410064477
182.987,244.318567121
183.002,244.226449563
183.017,244.133646724
183.032,244.040090864
183.047,243.945714057
183.062,243.850452028
183.077,243.75424993
183.092,243.657070867
183.107,243.558908298
183.122,243.459803876
183.137,243.359872838
183.152,243.259339666
183.167,243.158587348
183.182,243.058223639
183.197,242.959166551
183.212,242.862747004
183.227,242.770816654
183.242,242.685830495
183.257,242.610847589
183.367,242.61645849
183.382,242.691146691
183.397,242.77505622
183.412,242.865274403
183.427,242.959502744
183.442,243.056029284
183.457,243.153635854
183.472,243.251489883
183.487,243.349045645
183.502,243.44596378
183.517,243.542049665
183.532,243.637207938
183.547,243.731409723
183.562,243.824669369
183.577,243.917028145
183.592,244.008542926
183.607,244.09927844
183.622,244.189302032
183.637,244.278680202
183.652,244.367476393
183.667,244.455749644
183.682,244.543553849
183.697,244.630937436
183.712,244.717943315
183.727,244.80460902
183.742,244.890966973
183.757,244.977044808
183.772,245.062865745
183.787,245.148448973
183.802,245.233810039
183.817,245.318961219
183.832,245.40391188
183.847,245.488668818
183.862,245.573236575
183.877,245.657617723
183.892,245.741813141
183.907,245.825822248
183.922,245.909643231
183.937,245.993273242
183.952,246.076708574
183.967,246.159944827
183.982,246.242977044
183.997,246.325799843
184.012,246.408407527
184.027,246.490794181
184.042,246.572953761
184.057,246.654880168
184.072,246.736567311
184.087,246.818009168
184.102,246.899199831
184.117,246.980133543
184.132,247.06080474
184.147,247.141208071
184.162,247.221338426
184.177,247.301190953
184.192,247.380761071
184.207,247.460044478
184.222,247.539037166
184.237,247.617735415
184.252,247.696135803
184.267,247.774235202
184.282,247.852030776
184.297,247.929519977
184.312,248.006700542
184.327,248.083570483
184.342,248.160128084
184.357,248.236371889
184.372,248.312300696
184.387,248.387913548
184.402,248.463209721
184.417,248.538188717
184.432,248.612850251
184.447,248.687194243
184.462,248.761220809
184.477,248.834930247
184.492,248.90832303
184.507,248.981399797
184.522,249.054161338
184.537,249.126608591
184.552,249.198742627
184.56,249.237086452
184.567,249.270564647
184.582,249.342075966
184.597,249.413278011
184.612,249.484172307
184.627,249.554760475
184.642,249.62504422
184.657,249.695025324
184.672,249.764705641
184.687,249.834087089
184.702,249.903171644
184.717,249.971961334
184.732,250.040458232
184.747,250.108664452
184.762,250.176582144
184.777,250.244213486
184.792,250.311560685
184.807,250.378625966
184.822,250.445411573
184.837,250.511919763
184.852,250.578152803
184.867,250.644112965
184.882,250.709802524
184.897,250.775223758
184.912,250.840378939
184.927,250.905270335
184.942,250.969900208
184.957,251.034270806
184.972,251.09838437
184.987,251.162243126
185.002,251.225849282
185.017,251.289205033
185.032,251.352312553
185.047,251.415173998
185.062,251.477791503
185.077,251.54016718
185.092,251.602303121
185.107,251.664201391
185.122,251.725864035
185.137,251.78729307
185.152,251.848490488
185.167,251.909458258
185.182,251.970198319
185.197,252.030712587
185.212,252.091002948
185.227,252.151071265
185.242,252.21091937
185.257,252.270549071
185.272,252.329962148
185.287,252.389160354
185.302,252.448145414
185.31,252.479517547
185.317,252.506919027
185.332,252.565482866
185.347,252.623838577
185.362,252.68198778
185.377,252.739932067
185.392,252.797673006
185.407,252.85521214
185.422,252.912550986
185.437,252.969691035
185.452,253.026633754
185.467,253.083380588
185.482,253.139932955
185.497,253.19629225
185.512,253.252459847
185.527,253.308437095
185.542,253.364225322
185.557,253.419825833
185.572,253.475239911
185.587,253.53046882
185.602,253.585513801
185.617,253.640376075
185.632,253.695056844
185.647,253.749557289
185.662,253.803878573
185.677,253.858021839
185.692,253.911988212
185.707,253.9657788
185.722,254.01939469
185.737,254.072836956
185.752,254.126106651
185.767,254.179204815
185.782,254.232132468
185.797,254.284890618
185.812,254.337480253
185.827,254.389902349
185.842,254.442157866
185.857,254.494247749
185.872,254.546172929
185.887,254.597934323
185.902,254.649532834
185.917,254.700969351
185.932,254.752244751
185.947,254.803359897
185.96,254.847530721
185.962,254.85431564
185.977,254.905112818
185.992,254.955752257
186.007,255.006234771
186.022,255.056561162
186.037,255.106732221
186.052,255.156748726
186.06,255.183361267
186.067,255.206611447
186.082,255.256321141
186.097,255.305878554
186.112,255.355284421
186.127,255.404539469
186.142,255.453644413
186.157,255.502599958
186.172,255.551406798
186.187,255.600065621
186.202,255.6485771
186.217,255.696941903
186.232,255.745160687
186.247,255.793234098
186.262,255.841162776
186.277,255.88894735
186.292,255.936588439
186.307,255.984086656
186.322,256.031442604
186.337,256.078656875
186.352,256.125730056
186.367,256.172662724
186.382,256.219455447
186.397,256.266108784
186.412,256.312623287
186.427,256.358999501
186.442,256.405237958
186.457,256.451339188
186.472,256.497303707
186.487,256.543132028
186.502,256.588824652
186.517,256.634382073
186.532,256.679804779
186.547,256.725093247
186.562,256.770247948
186.577,256.815269345
186.592,256.860157892
186.607,256.904914036
186.622,256.949538216
186.637,256.994030862
186.652,257.038392398
186.667,257.082623238
186.682,257.126723791
186.697,257.170694455
186.71,257.208697601
186.712,257.214535622
186.727,257.258247675
186.742,257.301830991
186.757,257.345285937
186.772,257.388612873
186.787,257.431812152
186.802,257.474884118
186.817,257.517829106
186.832,257.560647447
186.847,257.603339459
186.862,257.645905457
186.877,257.688345744
186.892,257.730660617
186.907,257.772850365
186.922,257.814915269
186.937,257.856855602
186.952,257.898671628
186.967,257.940363605
186.982,257.981931782
186.997,258.023376399
187.012,258.064697689
187.027,258.105895878
187.042,258.146971181
187.057,258.187923808
187.072,258.22875396
187.087,258.269461828
187.102,258.310047599
187.117,258.350511448
187.132,258.390853543
187.147,258.431074046
187.162,258.471173109
187.177,258.511150876
187.192,258.551007483
187.207,258.590743059
187.222,258.630357723
187.237,258.669851589
187.252,258.70922476
187.267,258.748477332
187.282,258.787609393
187.297,258.826621024
187.312,258.865512296
187.327,258.904283275
187.342,258.942934015
187.357,258.981464566
187.372,259.019874969
187.387,259.058165255
187.402,259.096335449
187.417,259.134385569
187.432,259.172315624
187.447,259.210125615
187.46,259.242797151
187.462,259.247815536
187.477,259.285385373
187.492,259.322835105
187.507,259.360164703
187.522,259.397374129
187.537,259.434463341
187.552,259.471432286
187.567,259.508280906
187.582,259.545009134
187.597,259.581616897
187.612,259.618104115
187.627,259.654470698
187.642,259.690716553
187.657,259.726841578
187.672,259.762845663
187.687,259.798728693
187.702,259.834490544
187.717,259.870131089
187.732,259.90565019
187.747,259.941047705
187.762,259.976323485
187.777,260.011477374
187.792,260.046509211
187.807,260.081418827
187.822,260.116206047
187.837,260.150870693
187.852,260.185412576
187.867,260.219831505
187.882,260.254127282
187.897,260.288299702
187.912,260.322348557
187.927,260.356273632
187.942,260.390074707
187.957,260.423751555
187.972,260.457303946
187.987,260.490731645
188.002,260.52403441
188.017,260.557211996
188.032,260.590264153
188.047,260.623190626
188.062,260.655991154
188.077,260.688665476
188.092,260.721213321
188.107,260.753634418
188.122,260.785928491
188.137,260.818095259
188.152,260.850134438
188.167,260.882045741
188.182,260.913828877
188.197,260.94548355
188.21,260.972813458
188.212,260.977009463
188.227,261.008406315
188.242,261.039673802
188.257,261.070811616
188.272,261.101819448
188.287,261.132696986
188.302,261.163443914
188.317,261.194059916
188.332,261.224544671
188.347,261.254897858
188.362,261.285119154
188.377,261.315208232
188.392,261.345164766
188.407,261.374988427
188.422,261.404678884
188.437,261.434235806
188.452,261.463658861
188.467,261.492947713
188.482,261.522102029
188.497,261.551121474
188.512,261.58000571
188.527,261.608754401
188.542,261.63736721
188.557,261.665843799
188.572,261.694183831
188.587,261.722386969
188.602,261.750452875
188.617,261.778381212
188.632,261.806171644
188.647,261.833823833
188.66,261.857676982
188.662,261.861337444
188.677,261.888712143
188.692,261.915947596
188.707,261.943043469
188.722,261.969999431
188.737,261.996815152
