# 78954 TBPB Grantley Adams Observations at 12Z 29 Jan 2019
Frequency [GHz],TB
175.31,287.168485383
175.322,287.172796662
175.337,287.178065906
175.352,287.183201772
175.367,287.188204042
175.382,287.193072503
175.397,287.197806946
175.412,287.202407167
175.427,287.206872967
175.442,287.211204153
175.457,287.215400533
175.472,287.219461924
175.487,287.223388147
175.502,287.227179026
175.517,287.230834392
175.532,287.23435408
175.547,287.237737931
175.562,287.24098579
175.577,287.244097508
175.592,287.247072941
175.607,287.24991195
175.622,287.2526144
175.637,287.255180165
175.652,287.25760912
175.667,287.259901147
175.682,287.262056135
175.697,287.264073975
175.712,287.265954567
175.727,287.267697814
175.742,287.269303625
175.757,287.270771914
175.772,287.272102603
175.787,287.273295617
175.802,287.274350887
175.817,287.275268349
175.832,287.276047947
175.847,287.276689628
175.862,287.277193347
175.877,287.277559062
175.892,287.277786739
175.907,287.277876348
175.922,287.277827866
175.937,287.277641276
175.952,287.277316564
175.967,287.276853725
175.982,287.276252759
175.997,287.27551367
176.012,287.27463647
176.027,287.273621176
176.042,287.272467809
176.057,287.2711764
176.072,287.269746981
176.087,287.268179593
176.102,287.266474282
176.117,287.2646311
176.132,287.262650105
176.147,287.260531359
176.162,287.258274932
176.177,287.255880899
176.192,287.253349341
176.207,287.250680345
176.222,287.247874003
176.237,287.244930414
176.252,287.241849681
176.267,287.238631915
176.282,287.235277231
176.297,287.23178575
176.31,287.228649246
176.312,287.228157601
176.327,287.224392915
176.342,287.22049183
176.357,287.216454493
176.372,287.212281051
176.387,287.207971662
176.402,287.203526486
176.417,287.198945689
176.432,287.194229445
176.447,287.18937793
176.46,287.185064008
176.462,287.18439133
176.477,287.179269831
176.492,287.174013629
176.507,287.168622924
176.522,287.163097919
176.537,287.157438827
176.552,287.151645862
176.567,287.145719246
176.582,287.139659205
176.597,287.13346597
176.612,287.127139777
176.627,287.120680868
176.642,287.114089491
176.657,287.107365895
176.672,287.100510338
176.687,287.093523082
176.702,287.086404391
176.717,287.079154538
176.732,287.071773798
176.747,287.064262451
176.762,287.056620781
176.777,287.048849079
176.792,287.040947637
176.807,287.032916755
176.822,287.024756733
176.837,287.01646788
176.852,287.008050506
176.867,286.999504925
176.882,286.990831457
176.897,286.982030424
176.912,286.973102153
176.927,286.964046975
176.942,286.954865223
176.957,286.945557235
176.972,286.936123352
176.987,286.926563919
177.002,286.916879283
177.017,286.907069797
177.032,286.897135813
177.047,286.88707769
177.062,286.876895787
177.077,286.866590467
177.092,286.856162097
177.107,286.845611045
177.122,286.834937681
177.137,286.824142379
177.152,286.813225515
177.167,286.802187467
177.182,286.791028614
177.197,286.779749338
177.21,286.769876854
177.212,286.768350024
177.227,286.756831057
177.242,286.745192823
177.257,286.733435712
177.272,286.721560114
177.287,286.70956642
177.302,286.697455023
177.31,286.690947619
177.317,286.685226315
177.332,286.672880692
177.347,286.660418549
177.362,286.647840281
177.377,286.635146284
177.392,286.622336956
177.407,286.609412693
177.422,286.596373891
177.437,286.583220948
177.452,286.569954261
177.467,286.556574226
177.482,286.543081239
177.497,286.529475695
177.512,286.515757988
177.527,286.501928513
177.542,286.487987663
177.557,286.473935827
177.572,286.459773397
177.587,286.445500762
177.602,286.431118307
177.617,286.416626419
177.632,286.402025481
177.647,286.387315874
177.66,286.374479939
177.662,286.372497976
177.677,286.357572165
177.692,286.342538814
177.707,286.327398295
177.722,286.312150976
177.737,286.296797223
177.752,286.281337397
177.767,286.265771858
177.782,286.25010096
177.797,286.234325056
177.812,286.218444494
177.827,286.202459617
177.842,286.186370765
177.857,286.170178273
177.872,286.153882473
177.887,286.137483691
177.902,286.120982248
177.917,286.10437846
177.932,286.08767264
177.947,286.070865093
177.96,286.056216499
177.962,286.05395612
177.977,286.036946016
177.992,286.01983507
178.007,286.002623565
178.022,285.985311778
178.037,285.967899981
178.052,285.950388437
178.067,285.932777405
178.082,285.915067134
178.097,285.89725787
178.112,285.879349849
178.127,285.861343301
178.142,285.843238447
178.157,285.825035502
178.172,285.806734673
178.187,285.788336158
178.202,285.769840148
178.217,285.751246826
178.232,285.732556364
178.247,285.713768928
178.262,285.694884675
178.277,285.675903751
178.292,285.656826296
178.307,285.637652438
178.322,285.618382296
178.337,285.599015981
178.352,285.579553593
178.367,285.559995221
178.382,285.540340946
178.397,285.520590838
178.41,285.503396605
178.412,285.500744956
178.427,285.480803349
178.442,285.460766054
178.457,285.440633099
178.472,285.4204045
178.487,285.400080261
178.502,285.379660375
178.517,285.359144825
178.532,285.33853358
178.547,285.317826599
178.562,285.297023826
178.577,285.276125197
178.592,285.255130632
178.607,285.23404004
178.622,285.212853317
178.637,285.191570347
178.652,285.170191
178.667,285.148715132
178.682,285.127142588
178.697,285.105473197
178.712,285.083706776
178.727,285.061843127
178.742,285.03988204
178.757,285.017823289
178.772,284.995666633
178.787,284.973411819
178.802,284.951058577
178.817,284.928606624
178.832,284.90605566
178.847,284.883405373
178.862,284.860655431
178.877,284.837805492
178.892,284.814855194
178.907,284.791804162
178.922,284.768652002
178.937,284.745398308
178.952,284.722042653
178.967,284.698584597
178.982,284.675023683
178.997,284.651359434
179.012,284.627591361
179.027,284.603718953
179.042,284.579741686
179.057,284.555659014
179.072,284.531470376
179.087,284.507175193
179.102,284.482772867
179.117,284.458262782
179.132,284.433644305
179.147,284.408916781
179.16,284.387397535
179.162,284.384079539
179.177,284.359131887
179.192,284.334073117
179.207,284.308902497
179.222,284.283619278
179.237,284.258222691
179.252,284.232711947
179.267,284.207086235
179.282,284.181344725
179.297,284.155486567
179.312,284.129510887
179.327,284.103416794
179.342,284.077203371
179.357,284.050869683
179.372,284.024414771
179.387,283.997837655
179.402,283.971137332
179.417,283.944312776
179.432,283.917362939
179.447,283.890286748
179.462,283.86308311
179.477,283.835750904
179.492,283.808288989
179.507,283.780696197
179.522,283.752971336
179.537,283.725113189
179.552,283.697120516
179.567,283.668992048
179.582,283.640726493
179.597,283.612322532
179.612,283.58377882
179.627,283.555093984
179.642,283.526266625
179.657,283.497295316
179.672,283.468178603
179.687,283.438915005
179.702,283.409503009
179.717,283.379941075
179.732,283.350227636
179.747,283.320361092
179.762,283.290339815
179.777,283.260162146
179.792,283.229826396
179.807,283.199330842
179.822,283.168673734
179.837,283.137853286
179.852,283.10686768
179.867,283.075715068
179.882,283.044393566
179.897,283.012901256
179.91,282.985468248
179.912,282.981236186
179.927,282.949396371
179.942,282.917379788
179.957,282.88518438
179.972,282.852808053
179.987,282.820248676
180.002,282.78750408
180.017,282.754572059
180.032,282.721450369
180.047,282.688136725
180.062,282.654628805
180.077,282.620924243
180.092,282.587020636
180.107,282.552915538
180.122,282.518606459
180.137,282.484090869
180.152,282.449366194
180.167,282.414429815
180.182,282.379279068
180.197,282.343911244
180.212,282.30832359
180.227,282.272513302
180.242,282.236477532
180.257,282.200213382
180.272,282.163717904
180.287,282.126988102
180.302,282.090020929
180.317,282.052813284
180.332,282.015362018
180.347,281.977663924
180.362,281.939715745
180.377,281.901514167
180.392,281.86305582
180.407,281.824337279
180.422,281.785355059
180.437,281.746105619
180.452,281.706585356
180.467,281.666790609
180.482,281.626717652
180.497,281.586362701
180.512,281.545721904
180.527,281.504791347
180.542,281.463567049
180.557,281.422044964
180.56,281.413704452
180.572,281.380220976
180.587,281.338090901
180.602,281.295650485
180.617,281.252895402
180.632,281.209821252
180.647,281.166423565
180.66,281.128547017
180.662,281.122697792
180.677,281.07863931
180.692,281.034243418
180.707,280.989505334
180.722,280.944420198
180.737,280.898983067
180.752,280.853188917
180.767,280.807032636
180.782,280.760509029
180.797,280.713612812
180.812,280.666338612
180.827,280.618680967
180.842,280.570634322
180.857,280.522193027
180.872,280.473351339
180.887,280.424103418
180.902,280.374443323
180.917,280.324365015
180.932,280.273862352
180.947,280.222929089
180.962,280.171558875
180.977,280.119745252
180.992,280.067481651
181.007,280.014761395
181.022,279.961577691
181.037,279.907923632
181.052,279.853792194
181.067,279.799176235
181.082,279.744068489
181.097,279.688461571
181.112,279.632347966
181.127,279.575720035
181.142,279.518570008
181.157,279.460889982
181.172,279.402671922
181.187,279.343907654
181.202,279.284588867
181.217,279.224707107
181.232,279.164253778
181.247,279.103220135
181.262,279.041597288
181.277,278.979376193
181.292,278.916547652
181.307,278.853102311
181.31,278.840338393
181.322,278.789030658
181.337,278.724323018
181.352,278.658969551
181.367,278.59296025
181.382,278.526284937
181.397,278.458933262
181.412,278.390894698
181.427,278.32215854
181.442,278.252713899
181.457,278.182549704
181.472,278.111654692
181.487,278.040017412
181.502,277.967626218
181.517,277.894469266
181.532,277.82053451
181.547,277.745809702
181.562,277.670282387
181.577,277.593939898
181.592,277.516769353
181.607,277.438757657
181.622,277.359891489
181.637,277.280157308
181.652,277.199541342
181.667,277.118029592
181.682,277.03560782
181.697,276.952261552
181.712,276.867976073
181.727,276.78273642
181.742,276.696527384
181.757,276.609333502
181.772,276.521139053
181.787,276.431928059
181.802,276.341684277
181.817,276.250391195
181.832,276.158032032
181.847,276.06458973
181.862,275.970046954
181.877,275.874386085
181.892,275.777589216
181.907,275.679638152
181.922,275.5805144
181.937,275.48019917
181.952,275.378673368
181.967,275.275917593
181.982,275.17191213
181.997,275.066636947
182.012,274.960071693
182.027,274.852195686
182.042,274.742987914
182.057,274.632427025
182.06,274.61015057
182.072,274.520491322
182.087,274.407158759
182.102,274.292406928
182.117,274.176213055
182.132,274.05855399
182.147,273.939406199
182.162,273.818745747
182.177,273.696548295
182.192,273.572789076
182.207,273.447442887
182.222,273.320484068
182.237,273.19188648
182.252,273.061623486
182.267,272.929667919
182.282,272.795992057
182.297,272.660567582
182.312,272.523365545
182.327,272.384356315
182.342,272.243509526
182.357,272.100794018
182.372,271.95617776
182.387,271.809627771
182.402,271.661110021
182.417,271.510589321
182.432,271.358029196
182.447,271.20339173
182.462,271.046637399
182.477,270.887724867
182.492,270.726610756
182.507,270.563249374
182.522,270.397592401
182.537,270.229588528
182.552,270.059183035
182.567,269.886317296
182.582,269.71092821
182.597,269.532947535
182.612,269.352301112
182.627,269.168907963
182.642,268.982679232
182.657,268.793516955
182.672,268.601312613
182.687,268.405945449
182.702,268.207280482
182.717,268.00516618
182.732,267.799431732
182.747,267.58988382
182.762,267.376302828
182.777,267.158438349
182.792,266.936003877
182.807,266.708670511
182.822,266.47605947
182.837,266.237733192
182.852,265.993184706
182.867,265.741824933
182.882,265.482967472
182.897,265.215810329
182.912,264.939413937
182.927,264.652674659
182.942,264.35429277
182.957,264.042733721
182.972,263.716181196
182.987,263.372480176
183.002,263.00906786
183.017,262.62288992
183.032,262.210299154
183.047,261.76693335
183.062,261.287569037
183.077,260.765948266
183.092,260.194576914
183.107,259.564496285
183.122,258.865036278
183.137,258.083570951
183.152,257.205320186
183.167,256.213282776
183.182,255.088462111
183.197,253.810688644
183.212,252.360630518
183.227,250.724207761
183.242,248.902056447
183.257,246.929813394
183.367,247.410198172
183.382,249.344246986
183.397,251.114531525
183.412,252.697115577
183.427,254.096382222
183.442,255.328310649
183.457,256.412682449
183.472,257.369452391
183.487,258.217120848
183.502,258.972102716
183.517,259.648596107
183.532,260.25869269
183.547,260.8125925
183.562,261.318850966
183.577,261.784621583
183.592,262.215877354
183.607,262.617604768
183.622,262.993969582
183.637,263.348456377
183.652,263.683984896
183.667,264.003006472
183.682,264.307583683
183.697,264.599456039
183.712,264.880094136
183.727,265.150744316
183.742,265.412465543
183.757,265.666159889
183.772,265.912597791
183.787,266.152439008
183.802,266.386250055
183.817,266.614518732
183.832,266.83766626
183.847,267.056057435
183.862,267.270009157
183.877,267.479797585
183.892,267.685664176
183.907,267.887820773
183.922,268.08645391
183.937,268.281728457
183.952,268.473790714
183.967,268.662771038
183.982,268.848786075
183.997,269.031940673
184.012,269.2123295
184.027,269.39003844
184.042,269.565145775
184.057,269.737723205
184.072,269.907836717
184.087,270.075547339
184.102,270.240911774
184.117,270.403982958
184.132,270.564810528
184.147,270.723441238
184.162,270.879919301
184.177,271.0342867
184.192,271.186583443
184.207,271.336847791
184.222,271.485116448
184.237,271.631424734
184.252,271.775806723
184.267,271.918295372
184.282,272.058922629
184.297,272.197719521
184.312,272.334716241
184.327,272.469942211
184.342,272.603426149
184.357,272.735196114
184.372,272.865279557
184.387,272.993703358
184.402,273.120493858
184.417,273.245676891
184.432,273.369277811
184.447,273.49132151
184.462,273.611832442
184.477,273.730834637
184.492,273.848351719
184.507,273.964406918
184.522,274.07902308
184.537,274.192222682
184.552,274.304027837
184.56,274.363094606
184.567,274.414460305
184.582,274.523541499
184.597,274.631292496
184.612,274.737734038
184.627,274.842886542
184.642,274.946770103
184.657,275.049404501
184.672,275.150809206
184.687,275.25100338
184.702,275.350005887
184.717,275.44783529
184.732,275.544509861
184.747,275.640047583
184.762,275.734466154
184.777,275.827782991
184.792,275.920015233
184.807,276.011179748
184.822,276.10129313
184.837,276.19037171
184.852,276.278431557
184.867,276.36548848
184.882,276.451558033
184.897,276.536655517
184.912,276.620795989
184.927,276.703994256
184.942,276.786264888
184.957,276.867622217
184.972,276.948080339
184.987,277.02765312
185.002,277.1063542
185.017,277.184196994
185.032,277.261194696
185.047,277.337360284
185.062,277.412706522
185.077,277.487245963
185.092,277.560990953
185.107,277.633953633
185.122,277.706145944
185.137,277.77757963
185.152,277.848266239
185.167,277.918217128
185.182,277.987443466
185.197,278.055956235
185.212,278.123766238
185.227,278.190884095
185.242,278.257320251
185.257,278.323084979
185.272,278.388188378
185.287,278.452640381
185.302,278.516450756
185.31,278.550223925
185.317,278.579629108
185.332,278.642184883
185.347,278.704127368
185.362,278.765465699
185.377,278.826208856
185.392,278.886365673
185.407,278.945944836
185.422,279.004954886
185.437,279.063404224
185.452,279.121301109
185.467,279.178653666
185.482,279.235469882
185.497,279.291757614
185.512,279.347524588
185.527,279.402778401
185.542,279.457526524
185.557,279.511776307
185.572,279.565534976
185.587,279.618809637
185.602,279.671607281
185.617,279.723934781
185.632,279.775798898
185.647,279.827206281
185.662,279.878163469
185.677,279.928676894
185.692,279.978752882
185.707,280.028397653
185.722,280.077617326
185.737,280.126417921
185.752,280.174805357
185.767,280.222785456
185.782,280.270363944
185.797,280.317546456
185.812,280.364338531
185.827,280.410745619
185.842,280.456773081
185.857,280.502426189
185.872,280.547710131
185.887,280.592630009
185.902,280.637190841
185.917,280.681397564
185.932,280.725255035
185.947,280.768768031
185.96,280.806204287
185.962,280.811941252
185.977,280.854779321
185.992,280.897286785
186.007,280.939468119
186.022,280.981327724
186.037,281.022869931
186.052,281.064098999
186.06,281.085961246
186.067,281.105019119
186.082,281.145634414
186.097,281.18594894
186.112,281.225966688
186.127,281.265691584
186.142,281.30512749
186.157,281.344278207
186.172,281.383147474
186.187,281.421738969
186.202,281.460056312
186.217,281.498103064
186.232,281.535882728
186.247,281.573398752
186.262,281.610654528
186.277,281.647653392
186.292,281.684398628
186.307,281.720893467
186.322,281.757141088
186.337,281.793144619
186.352,281.828907137
186.367,281.864431671
186.382,281.8997212
186.397,281.934778655
186.412,281.969606922
186.427,282.004208839
186.442,282.038587198
186.457,282.072744749
186.472,282.106684194
186.487,282.140408196
186.502,282.17391937
186.517,282.207220295
186.532,282.240313503
186.547,282.27320149
186.562,282.305886709
186.577,282.338371576
186.592,282.370658465
186.607,282.402749714
186.622,282.434647624
186.637,282.466354457
186.652,282.497872441
186.667,282.529203767
186.682,282.560350589
186.697,282.591315029
186.71,282.618004965
186.712,282.622099174
186.727,282.652705078
186.742,282.683134758
186.757,282.713390204
186.772,282.743473371
186.787,282.773386181
186.802,282.803130527
186.817,282.832708272
186.832,282.862121246
186.847,282.89137125
186.862,282.920460058
186.877,282.949389414
186.892,282.97816103
186.907,283.006776596
186.922,283.035237769
186.937,283.063546183
186.952,283.091703442
186.967,283.119711125
186.982,283.147570785
186.997,283.175283949
187.012,283.202852119
187.027,283.230276772
187.042,283.257559361
187.057,283.284701312
187.072,283.311704032
187.087,283.338568899
187.102,283.365297273
187.117,283.391890486
187.132,283.418349853
187.147,283.444676662
187.162,283.470872182
187.177,283.496937658
187.192,283.522874316
187.207,283.54868336
187.222,283.574365973
187.237,283.599923318
187.252,283.625356538
187.267,283.650666754
187.282,283.675855072
187.297,283.700922574
187.312,283.725870324
187.327,283.75069937
187.342,283.775410737
187.357,283.800005435
187.372,283.824484456
187.387,283.848848771
187.402,283.873099336
187.417,283.897237089
187.432,283.921262951
187.447,283.945177826
187.46,283.96581496
187.462,283.9689826
187.477,283.992678146
187.492,284.016265315
187.507,284.039744949
187.522,284.063117868
187.537,284.086384879
187.552,284.109546774
187.567,284.132604329
187.582,284.155558304
187.597,284.178409447
187.612,284.201158487
187.627,284.223806143
187.642,284.246353118
187.657,284.268800098
187.672,284.29114776
187.687,284.313396763
187.702,284.335547756
187.717,284.357601371
187.732,284.37955823
187.747,284.401418939
187.762,284.423184094
187.777,284.444854276
187.792,284.466430054
187.807,284.487911985
187.822,284.509300614
187.837,284.530596472
187.852,284.551800081
187.867,284.572911948
187.882,284.59393257
187.897,284.614862434
187.912,284.635702013
187.927,284.656451769
187.942,284.677112155
187.957,284.697683611
187.972,284.718166568
187.987,284.738561443
188.002,284.758868648
188.017,284.779088579
188.032,284.799221625
188.047,284.819268165
188.062,284.839228565
188.077,284.859103186
188.092,284.878892374
188.107,284.89859647
188.122,284.918215803
188.137,284.937750693
188.152,284.957201451
188.167,284.976568379
188.182,284.995851771
188.197,285.015051911
188.21,285.031624903
188.212,285.034169074
188.227,285.053203527
188.242,285.072155529
188.257,285.09102533
188.272,285.109813173
188.287,285.128519291
188.302,285.147143911
188.317,285.16568725
188.332,285.18414952
188.347,285.202530923
188.362,285.220831655
188.377,285.239051903
188.392,285.257191849
188.407,285.275251667
188.422,285.293231522
188.437,285.311131575
188.452,285.328951979
188.467,285.34669288
188.482,285.364354418
188.497,285.381936726
188.512,285.399439931
188.527,285.416864154
188.542,285.434209509
188.557,285.451476105
188.572,285.468664045
188.587,285.485773425
188.602,285.502804336
188.617,285.519756864
188.632,285.53663109
188.647,285.553427088
188.66,285.567920395
188.662,285.570144927
188.677,285.586784672
188.692,285.603346382
188.707,285.619830111
188.722,285.636235909
188.737,285.65256382
