# 10410 EDZE Essen Observations at 12Z 10 Mar 2019
Frequency [GHz],TB
175.31,270.715966284
175.322,270.72529977
175.337,270.736814199
175.352,270.748158686
175.367,270.759332613
175.382,270.770335374
175.397,270.781166363
175.412,270.791824978
175.427,270.802310623
175.442,270.812622706
175.457,270.822760642
175.472,270.832723848
175.487,270.842511748
175.502,270.852123769
175.517,270.861559346
175.532,270.870817916
175.547,270.879898926
175.562,270.888801825
175.577,270.897526066
175.592,270.906071112
175.607,270.914436427
175.622,270.922621486
175.637,270.930625766
175.652,270.93844875
175.667,270.946089932
175.682,270.9535488
175.697,270.960824867
175.712,270.967917632
175.727,270.974826619
175.742,270.981551344
175.757,270.988091337
175.772,270.994446131
175.787,271.000615272
175.802,271.006598305
175.817,271.012394783
175.832,271.018004274
175.847,271.023426344
175.862,271.028660571
175.877,271.03370654
175.892,271.038563839
175.907,271.043232068
175.922,271.047710833
175.937,271.051999749
175.952,271.056098437
175.967,271.060006524
175.982,271.06372365
175.997,271.067249459
176.012,271.070583603
176.027,271.073725744
176.042,271.07667555
176.057,271.079432701
176.072,271.081996879
176.087,271.084367781
176.102,271.086545107
176.117,271.088528572
176.132,271.090317894
176.147,271.091912798
176.162,271.093313027
176.177,271.094518323
176.192,271.095528442
176.207,271.096343149
176.222,271.096962218
176.237,271.097385429
176.252,271.097612571
176.267,271.09764345
176.282,271.097477874
176.297,271.097115662
176.31,271.096642555
176.312,271.096556642
176.327,271.095800654
176.342,271.094847543
176.357,271.093697171
176.372,271.092349403
176.387,271.090804115
176.402,271.089061194
176.417,271.087120539
176.432,271.084982053
176.447,271.082645655
176.46,271.080460633
176.462,271.080111272
176.477,271.07737884
176.492,271.074448306
176.507,271.071319626
176.522,271.067992767
176.537,271.064467709
176.552,271.060744434
176.567,271.056822948
176.582,271.052703252
176.597,271.048385369
176.612,271.043869324
176.627,271.039155162
176.642,271.034242929
176.657,271.029132687
176.672,271.023824507
176.687,271.018318468
176.702,271.012614668
176.717,271.006713205
176.732,271.000614193
176.747,270.994317755
176.762,270.987824029
176.777,270.981133158
176.792,270.974245297
176.807,270.967160615
176.822,270.959879285
176.837,270.952401497
176.852,270.944727451
176.867,270.936857354
176.882,270.928791425
176.897,270.920529893
176.912,270.912073004
176.927,270.903421005
176.942,270.894574159
176.957,270.885532738
176.972,270.876297022
176.987,270.866867309
177.002,270.857243901
177.017,270.847427111
177.032,270.837417265
177.047,270.827214696
177.062,270.81681975
177.077,270.806232784
177.092,270.79545416
177.107,270.784484255
177.122,270.773323456
177.137,270.761972156
177.152,270.750430763
177.167,270.738699691
177.182,270.726779365
177.197,270.714670221
177.21,270.704023239
177.212,270.702372703
177.227,270.689887265
177.242,270.67721437
177.257,270.664354493
177.272,270.651308115
177.287,270.638075729
177.302,270.624657834
177.31,270.617425946
177.317,270.61105494
177.332,270.597267567
177.347,270.583296241
177.362,270.569141499
177.377,270.554803885
177.392,270.540283955
177.407,270.525582268
177.422,270.510699394
177.437,270.495635912
177.452,270.48039241
177.467,270.464969477
177.482,270.449367719
177.497,270.433587743
177.512,270.417630168
177.527,270.401495614
177.542,270.385184714
177.557,270.368698106
177.572,270.352036435
177.587,270.335200353
177.602,270.318190519
177.617,270.301007594
177.632,270.283652249
177.647,270.266125164
177.66,270.25079663
177.662,270.248427018
177.677,270.230558498
177.692,270.212520302
177.707,270.194313124
177.722,270.175937671
177.737,270.157394649
177.752,270.138684771
177.767,270.119808757
177.782,270.100767327
177.797,270.08156121
177.812,270.062191133
177.827,270.042657827
177.842,270.022962035
177.857,270.003104493
177.872,269.983085945
177.887,269.962907138
177.902,269.94256882
177.917,269.92207174
177.932,269.901416653
177.947,269.880604314
177.96,269.862440335
177.962,269.859635476
177.977,269.838510899
177.992,269.817231341
178.007,269.795797564
178.022,269.774210327
178.037,269.752470389
178.052,269.730578511
178.067,269.708535455
178.082,269.68634198
178.097,269.66399885
178.112,269.641506816
178.127,269.618866642
178.142,269.596079082
178.157,269.573144889
178.172,269.550064818
178.187,269.52683962
178.202,269.503470039
178.217,269.479956823
178.232,269.456300713
178.247,269.432502449
178.262,269.408562765
178.277,269.384482393
178.292,269.360262059
178.307,269.335902488
178.322,269.311404394
178.337,269.286768496
178.352,269.261995496
178.367,269.237086101
178.382,269.212041002
178.397,269.186860894
178.41,269.164929454
178.412,269.161546459
178.427,269.136098376
178.442,269.110517314
178.457,269.084803936
178.472,269.058958897
178.487,269.032982843
178.502,269.006876418
178.517,268.980640252
178.532,268.954274965
178.547,268.927781173
178.562,268.901159478
178.577,268.874410477
178.592,268.847534754
178.607,268.820532884
178.622,268.793405431
178.637,268.766152949
178.652,268.738775982
178.667,268.711275058
178.682,268.683650702
178.697,268.655903416
178.712,268.628033703
178.727,268.60004204
178.742,268.571928903
178.757,268.543694751
178.772,268.515340024
178.787,268.486865155
178.802,268.458270564
178.817,268.429556653
178.832,268.400723811
178.847,268.371772415
178.862,268.342702821
178.877,268.313515377
178.892,268.284210411
178.907,268.254788237
178.922,268.225249153
178.937,268.195593439
178.952,268.165821363
178.967,268.13593317
178.982,268.105929091
178.997,268.075809345
179.012,268.045574124
179.027,268.015223608
179.042,267.984757955
179.057,267.954177314
179.072,267.923481803
179.087,267.892671527
179.102,267.861746574
179.117,267.830707009
179.132,267.799552882
179.147,267.768284215
179.16,267.741092062
179.162,267.736901017
179.177,267.705403277
179.192,267.673790956
179.207,267.642064004
179.222,267.610222342
179.237,267.578265873
179.252,267.546194475
179.267,267.514008013
179.282,267.481706318
179.297,267.449289207
179.312,267.416756472
179.327,267.38410788
179.342,267.351343179
179.357,267.318462089
179.372,267.285464308
179.387,267.252349514
179.402,267.219117353
179.417,267.185767452
179.432,267.152299415
179.447,267.118712814
179.462,267.085007202
179.477,267.051182103
179.492,267.017237019
179.507,266.983171422
179.522,266.948984758
179.537,266.914676449
179.552,266.880245887
179.567,266.84569244
179.582,266.811015447
179.597,266.776214218
179.612,266.741288037
179.627,266.706236158
179.642,266.671057808
179.657,266.635752185
179.672,266.600318456
179.687,266.56475576
179.702,266.529063206
179.717,266.493239873
179.732,266.457284808
179.747,266.421197028
179.762,266.384975523
179.777,266.348619243
179.792,266.312127115
179.807,266.275498027
179.822,266.238730839
179.837,266.201824377
179.852,266.164777433
179.867,266.127588765
179.882,266.090257098
179.897,266.052781126
179.91,266.020184183
179.912,266.015159501
179.927,265.977390848
179.942,265.939473749
179.957,265.901406757
179.972,265.863188384
179.987,265.824817107
180.002,265.786291366
180.017,265.747609563
180.032,265.708770066
180.047,265.669771195
180.062,265.630611244
180.077,265.591288456
180.092,265.551801045
180.107,265.512147174
180.122,265.472324976
180.137,265.432332535
180.152,265.392167895
180.167,265.351829062
180.182,265.311313997
180.197,265.270620617
180.212,265.229746796
180.227,265.188690364
180.242,265.147449107
180.257,265.106020768
180.272,265.06440304
180.287,265.022593574
180.302,264.98058997
180.317,264.938389785
180.332,264.895990528
180.347,264.853389658
180.362,264.810584583
180.377,264.76757267
180.392,264.724351224
180.407,264.680917511
180.422,264.63726874
180.437,264.593402071
180.452,264.549314608
180.467,264.505003408
180.482,264.460465468
180.497,264.415697741
180.512,264.370697115
180.527,264.32546043
180.542,264.279984469
180.557,264.234265958
180.56,264.225092858
180.572,264.188301567
180.587,264.14208791
180.602,264.095621542
180.617,264.048898962
180.632,264.001916608
180.647,263.954670862
180.66,263.913508651
180.662,263.907158043
180.677,263.859374416
180.692,263.811316175
180.707,263.762979463
180.722,263.714360359
180.737,263.66545488
180.752,263.616258979
180.767,263.566768549
180.782,263.51697942
180.797,263.46688736
180.812,263.416488071
180.827,263.365777192
180.842,263.314750301
180.857,263.26340291
180.872,263.211730467
180.887,263.159728356
180.902,263.107391897
180.917,263.054716347
180.932,263.001696897
180.947,262.948328675
180.962,262.894606746
180.977,262.840526109
180.992,262.786081702
181.007,262.7312684
181.022,262.676081014
181.037,262.620514294
181.052,262.564562929
181.067,262.508221545
181.082,262.451484713
181.097,262.394346938
181.112,262.336802671
181.127,262.278846307
181.142,262.220472185
181.157,262.161674587
181.172,262.10244774
181.187,262.042785827
181.202,261.982682973
181.217,261.922133259
181.232,261.861130719
181.247,261.799669347
181.262,261.737743088
181.277,261.675345855
181.292,261.61247152
181.307,261.549113921
181.31,261.536383867
181.322,261.485266873
181.337,261.420924154
181.352,261.356079526
181.367,261.290726726
181.382,261.224859481
181.397,261.158471498
181.412,261.091556486
181.427,261.024108146
181.442,260.956120185
181.457,260.887586315
181.472,260.818500264
181.487,260.748855784
181.502,260.678646644
181.517,260.607866655
181.532,260.536509662
181.547,260.464569562
181.562,260.392040307
181.577,260.318915909
181.592,260.245190459
181.607,260.170858124
181.622,260.095913166
181.637,260.020349947
181.652,259.944162945
181.667,259.867346754
181.682,259.789896109
181.697,259.711805891
181.712,259.633071142
181.727,259.553687073
181.742,259.473649088
181.757,259.392952789
181.772,259.311593998
181.787,259.229568766
181.802,259.146873396
181.817,259.063504462
181.832,258.979458813
181.847,258.894733609
181.862,258.809326331
181.877,258.723234799
181.892,258.636457202
181.907,258.548992111
181.922,258.460838502
181.937,258.371995785
181.952,258.282463826
181.967,258.192242966
181.982,258.101334052
181.997,258.009738466
182.012,257.917458142
182.027,257.824495604
182.042,257.730853991
182.057,257.636537086
182.06,257.617593048
182.072,257.541549344
182.087,257.44589593
182.102,257.349582745
182.117,257.252616457
182.132,257.15500454
182.147,257.056755305
182.162,256.957877931
182.177,256.85838251
182.192,256.758280064
182.207,256.657582603
182.222,256.556303146
182.237,256.454455764
182.252,256.352055611
182.267,256.249118968
182.282,256.145663276
182.297,256.041707176
182.312,255.937270543
182.327,255.832374518
182.342,255.727041556
182.357,255.621295454
182.372,255.515161382
182.387,255.40866593
182.402,255.301837124
182.417,255.194704478
182.432,255.087299001
182.447,254.979653255
182.462,254.871801351
182.477,254.763779003
182.492,254.655623534
182.507,254.547373902
182.522,254.439070722
182.537,254.330756278
182.552,254.222474545
182.567,254.114271188
182.582,254.006193579
182.597,253.898290798
182.612,253.790613635
182.627,253.683214591
182.642,253.576147867
182.657,253.469469361
182.672,253.363236656
182.687,253.257509001
182.702,253.152347304
182.717,253.047814097
182.732,252.943973533
182.747,252.840891351
182.762,252.738634862
182.777,252.637272921
182.792,252.53687591
182.807,252.437515726
182.822,252.339265769
182.837,252.242200936
182.852,252.146397633
182.867,252.051933792
182.882,251.958888911
182.897,251.867344112
182.912,251.777382223
182.927,251.689087888
182.942,251.602547728
182.957,251.517850517
182.972,251.435087437
182.987,251.35435237
183.002,251.275742273
183.017,251.1993576
183.032,251.125302831
183.047,251.053687063
183.062,250.984624694
183.077,250.918236166
183.092,250.854648776
183.107,250.793997493
183.122,250.736425717
183.137,250.682085902
183.152,250.6311399
183.167,250.583758843
183.182,250.540122345
183.197,250.500416793
183.212,250.464832463
183.227,250.433559321
183.242,250.406781423
183.257,250.384670089
183.367,250.374304786
183.382,250.393539305
183.397,250.41740965
183.412,250.44574256
183.427,250.478353725
183.442,250.515054338
183.457,250.555656346
183.472,250.599976331
183.487,250.647838071
183.502,250.699074023
183.517,250.753525928
183.532,250.811044801
183.547,250.871490518
183.562,250.934731151
183.577,251.000642191
183.592,251.069105725
183.607,251.14000966
183.622,251.213246977
183.637,251.288715089
183.652,251.366315244
183.667,251.445952053
183.682,251.527533055
183.697,251.610968377
183.712,251.696170447
183.727,251.783053768
183.742,251.871534735
183.757,251.96153149
183.772,252.052963826
183.787,252.145753098
183.802,252.239822189
183.817,252.335095456
183.832,252.431498724
183.847,252.528959283
183.862,252.627405885
183.877,252.726768765
183.892,252.826979646
183.907,252.927971769
183.922,253.029679911
183.937,253.132040412
183.952,253.234991189
183.967,253.338471761
183.982,253.442423271
183.997,253.546788502
184.012,253.651511885
184.027,253.756539521
184.042,253.861819179
184.057,253.967300308
184.072,254.072934037
184.087,254.178673172
184.102,254.284472197
184.117,254.390287255
184.132,254.49607615
184.147,254.60179833
184.162,254.707414861
184.177,254.812888425
184.192,254.918183287
184.207,255.023265278
184.222,255.128101761
184.237,255.232661617
184.252,255.336915213
184.267,255.440834358
184.282,255.544392292
184.297,255.647563642
184.312,255.750324393
184.327,255.852651848
184.342,255.954524601
184.357,256.055922496
184.372,256.156826599
184.387,256.257219148
184.402,256.357083534
184.417,256.456404253
184.432,256.555166872
184.447,256.653357996
184.462,256.750965233
184.477,256.847977154
184.492,256.944383261
184.507,257.040173956
184.522,257.135340498
184.537,257.229874976
184.552,257.323770275
184.56,257.37358419
184.567,257.417020041
184.582,257.509618658
184.597,257.601561202
184.612,257.692843425
184.627,257.783461719
184.642,257.873413082
184.657,257.962695105
184.672,258.051305927
184.687,258.139244221
184.702,258.226509163
184.717,258.31310041
184.732,258.39901807
184.747,258.484262684
184.762,258.568835203
184.777,258.652736963
184.792,258.735969666
184.807,258.818535359
184.822,258.900436412
184.837,258.98167551
184.852,259.062255615
184.867,259.142179964
184.882,259.221452051
184.897,259.300075602
184.912,259.378054569
184.927,259.455393107
184.942,259.532095566
184.957,259.608166473
184.972,259.683610523
184.987,259.758432561
185.002,259.832637574
185.017,259.906230679
185.032,259.979217109
185.047,260.051602206
185.062,260.123391412
185.077,260.194590254
185.092,260.26520434
185.107,260.335239345
185.122,260.404701011
185.137,260.473595131
185.152,260.541927544
185.167,260.609704136
185.182,260.676930813
185.197,260.743613521
185.212,260.809758217
185.227,260.875370879
185.242,260.940457491
185.257,261.005024044
185.272,261.069076525
185.287,261.132620921
185.302,261.195663205
185.31,261.229082507
185.317,261.258209339
185.332,261.320265268
185.347,261.381836913
185.362,261.442930181
185.377,261.50355094
185.392,261.563705034
185.407,261.623398274
185.422,261.682636433
185.437,261.741425251
185.452,261.799770422
185.467,261.857677605
185.482,261.915152407
185.497,261.972200396
185.512,262.02882709
185.527,262.085037962
185.542,262.140838425
185.557,262.196233852
185.572,262.251229559
185.587,262.305830805
185.602,262.360042798
185.617,262.413870692
185.632,262.467319584
185.647,262.520394511
185.662,262.573100457
185.677,262.625442347
185.692,262.677425045
185.707,262.729053359
185.722,262.780332041
185.737,262.831265779
185.752,262.881859202
185.767,262.932116884
185.782,262.982043337
185.797,263.031643009
185.812,263.080920299
185.827,263.129879537
185.842,263.178525
185.857,263.2268609
185.872,263.274891397
185.887,263.322620589
185.902,263.370052512
185.917,263.417191154
185.932,263.464040433
185.947,263.510604215
185.96,263.550731508
185.962,263.556886315
185.977,263.602890481
185.992,263.648620411
186.007,263.694079743
186.022,263.739272064
186.037,263.784200904
186.052,263.828869738
186.06,263.852587985
186.067,263.873281986
186.082,263.917441015
186.097,263.961350141
186.112,264.005012625
186.127,264.048431676
186.142,264.091610453
186.157,264.134552062
186.172,264.177259559
186.187,264.219735952
186.202,264.261984196
186.217,264.3040072
186.232,264.345807825
186.247,264.387388879
186.262,264.42875313
186.277,264.469903294
186.292,264.510842042
186.307,264.551572002
186.322,264.592095752
186.337,264.632415829
186.352,264.672534726
186.367,264.712454891
186.382,264.75217873
186.397,264.791708607
186.412,264.831046841
186.427,264.870195714
186.442,264.909157465
186.457,264.947934294
186.472,264.986528357
186.487,265.024941777
186.502,265.063176633
186.517,265.101234969
186.532,265.13911879
186.547,265.176830063
186.562,265.214370721
186.577,265.251742656
186.592,265.288947729
186.607,265.325987765
186.622,265.362864547
186.637,265.399579835
186.652,265.436135348
186.667,265.472532769
186.682,265.508773757
186.697,265.54485993
186.71,265.576010616
186.712,265.580792879
186.727,265.616574157
186.742,265.652205295
186.757,265.687687784
186.772,265.723023091
186.787,265.758212649
186.802,265.793257861
186.817,265.828160104
186.832,265.862920724
186.847,265.897541037
186.862,265.932022335
186.877,265.966365879
186.892,266.000572902
186.907,266.03464461
186.922,266.068582187
186.937,266.102386785
186.952,266.136059532
186.967,266.16960153
186.982,266.203013857
186.997,266.236297563
187.012,266.269453677
187.027,266.3024832
187.042,266.335387113
187.057,266.368166371
187.072,266.400821901
187.087,266.433354616
187.102,266.465765402
187.117,266.498055118
187.132,266.530224609
187.147,266.562274691
187.162,266.594206163
187.177,266.626019799
187.192,266.657716352
187.207,266.68929656
187.222,266.720761135
187.237,266.752110766
187.252,266.783346129
187.267,266.814467876
187.282,266.845476643
187.297,266.87637304
187.312,266.907157664
187.327,266.937831091
187.342,266.968393879
187.357,266.998846567
187.372,267.029189677
187.387,267.059423711
187.402,267.089549157
187.417,267.11956648
187.432,267.149476135
187.447,267.179278555
187.46,267.2050209
187.462,267.208974156
187.477,267.238563345
187.492,267.268046501
187.507,267.297423995
187.522,267.32669618
187.537,267.355863395
187.552,267.384925961
187.567,267.413884187
187.582,267.442738365
187.597,267.47148877
187.612,267.500135667
187.627,267.528679303
187.642,267.557119916
187.657,267.585457724
187.672,267.613692936
187.687,267.641825739
187.702,267.669856325
187.717,267.697784851
187.732,267.725611476
187.747,267.753336339
187.762,267.780959571
187.777,267.80848129
187.792,267.835901599
187.807,267.863220589
187.822,267.890438344
187.837,267.917554933
187.852,267.944570415
187.867,267.971484836
187.882,267.998298234
187.897,268.02501063
187.912,268.051622045
187.927,268.078132481
187.942,268.10454193
187.957,268.130850383
187.972,268.157057809
187.987,268.183164176
188.002,268.209169438
188.017,268.235073544
188.032,268.260876431
188.047,268.286578024
188.062,268.312178248
188.077,268.337677013
188.092,268.363074221
188.107,268.388369768
188.122,268.413563542
188.137,268.438655424
188.152,268.463645281
188.167,268.488532983
188.182,268.513318386
188.197,268.538001339
188.21,268.55931024
188.212,268.562581687
188.227,268.587059265
188.242,268.611433907
188.257,268.635705435
188.272,268.659873669
188.287,268.683938416
188.302,268.707899489
188.317,268.731756685
188.332,268.755509803
188.347,268.779158627
188.362,268.80270295
188.377,268.826142548
188.392,268.849477193
188.407,268.872706666
188.422,268.895830723
188.437,268.918849134
188.452,268.941761655
188.467,268.964568039
188.482,268.98726804
188.497,269.009861403
188.512,269.032347872
188.527,269.054727188
188.542,269.07699909
188.557,269.099163311
188.572,269.121219585
188.587,269.143167643
188.602,269.165007206
188.617,269.186738006
188.632,269.208359761
188.647,269.229872194
188.66,269.248427655
188.662,269.251275023
188.677,269.272567968
188.692,269.29375074
188.707,269.314823059
188.722,269.335784637
188.737,269.356635185
