# 78954 TBPB Grantley Adams Observations at 12Z 21 Mar 2019
Frequency [GHz],TB
175.31,287.063695273
175.322,287.056361325
175.337,287.047132109
175.352,287.037834337
175.367,287.028468106
175.382,287.019033513
175.397,287.009530657
175.412,286.99995964
175.427,286.990320563
175.442,286.98061353
175.457,286.970838646
175.472,286.960996016
175.487,286.951085748
175.502,286.94110795
175.517,286.931062733
175.532,286.920950206
175.547,286.910770483
175.562,286.900523675
175.577,286.890209898
175.592,286.879829267
175.607,286.869381898
175.622,286.858867909
175.637,286.848287418
175.652,286.837640545
175.667,286.82692741
175.682,286.816148135
175.697,286.805302841
175.712,286.794391651
175.727,286.783414691
175.742,286.772372083
175.757,286.761263954
175.772,286.750090429
175.787,286.738851636
175.802,286.727547702
175.817,286.716178754
175.832,286.704744922
175.847,286.693246335
175.862,286.681683122
175.877,286.670055414
175.892,286.658363341
175.907,286.646607034
175.922,286.634786626
175.937,286.622902246
175.952,286.610954027
175.967,286.598942102
175.982,286.586866604
175.997,286.574727663
176.012,286.562525414
176.027,286.550259989
176.042,286.537931521
176.057,286.525540143
176.072,286.513085987
176.087,286.500569187
176.102,286.487989874
176.117,286.475348181
176.132,286.46264424
176.147,286.449878184
176.162,286.437050143
176.177,286.424160249
176.192,286.411208633
176.207,286.398195425
176.222,286.385120755
176.237,286.371984751
176.252,286.358787544
176.267,286.34552926
176.282,286.332210028
176.297,286.318829973
176.31,286.307184824
176.312,286.305389222
176.327,286.291887899
176.342,286.278326129
176.357,286.264704033
176.372,286.251021736
176.387,286.237279357
176.402,286.223477016
176.417,286.209614833
176.432,286.195692924
176.447,286.181711407
176.46,286.169545963
176.462,286.167670395
176.477,286.153570003
176.492,286.139410342
176.507,286.125191523
176.522,286.110913656
176.537,286.096576848
176.552,286.082181204
176.567,286.067726828
176.582,286.053213824
176.597,286.038642291
176.612,286.024012329
176.627,286.009324033
176.642,285.994577499
176.657,285.979772819
176.672,285.964910084
176.687,285.949989382
176.702,285.935010799
176.717,285.919974419
176.732,285.904880323
176.747,285.889728591
176.762,285.874519299
176.777,285.859252521
176.792,285.843928329
176.807,285.828546791
176.822,285.813107974
176.837,285.79761194
176.852,285.782058751
176.867,285.766448463
176.882,285.750781132
176.897,285.735056808
176.912,285.719275541
176.927,285.703437376
176.942,285.687542355
176.957,285.671590517
176.972,285.655581897
176.987,285.639516527
177.002,285.623394437
177.017,285.60721565
177.032,285.59098019
177.047,285.574688073
177.062,285.558339314
177.077,285.541933923
177.092,285.525471907
177.107,285.508953268
177.122,285.492378006
177.137,285.475746114
177.152,285.459057584
177.167,285.442312401
177.182,285.425510548
177.197,285.408652003
177.21,285.393995385
177.212,285.391736739
177.227,285.374764724
177.242,285.357735925
177.257,285.340650301
177.272,285.323507806
177.287,285.306308393
177.302,285.289052006
177.31,285.279825284
177.317,285.271738588
177.332,285.254368073
177.347,285.236940395
177.362,285.219455478
177.377,285.201913244
177.392,285.18431361
177.407,285.166656485
177.422,285.148941776
177.437,285.131169383
177.452,285.113339201
177.467,285.095451119
177.482,285.077505021
177.497,285.059500786
177.512,285.041438285
177.527,285.023317385
177.542,285.005137948
177.557,284.986899829
177.572,284.968602876
177.587,284.950246934
177.602,284.931831839
177.617,284.913357421
177.632,284.894823507
177.647,284.876229914
177.66,284.860067048
177.662,284.857576454
177.677,284.838862933
177.692,284.82008915
177.707,284.801254899
177.722,284.782359963
177.737,284.763404125
177.752,284.744387155
177.767,284.725308819
177.782,284.706168877
177.797,284.68696708
177.812,284.667703173
177.827,284.648376893
177.842,284.628987972
177.857,284.609536133
177.872,284.59002109
177.887,284.570442554
177.902,284.550800225
177.917,284.531093797
177.932,284.511322954
177.947,284.491487377
177.96,284.474243925
177.962,284.471586735
177.977,284.451620691
177.992,284.431588899
178.007,284.411491007
178.022,284.391326652
178.037,284.371095467
178.052,284.350797072
178.067,284.330431082
178.082,284.309997102
178.097,284.289494731
178.112,284.268923556
178.127,284.248283158
178.142,284.227573108
178.157,284.206792969
178.172,284.185942295
178.187,284.16502063
178.202,284.144027511
178.217,284.122962464
178.232,284.101825008
178.247,284.08061465
178.262,284.059330889
178.277,284.037973217
178.292,284.016541112
178.307,283.995034045
178.322,283.973451477
178.337,283.951792859
178.352,283.930057633
178.367,283.90824523
178.382,283.886355072
178.397,283.864386569
178.41,283.845283365
178.412,283.842339122
178.427,283.820212123
178.442,283.798004952
178.457,283.775716978
178.472,283.753347561
178.487,283.730896049
178.502,283.70836178
178.517,283.685744081
178.532,283.663042268
178.547,283.640255646
178.562,283.617383509
178.577,283.594425139
178.592,283.571379806
178.607,283.548246772
178.622,283.525025283
178.637,283.501714576
178.652,283.478313875
178.667,283.454822394
178.682,283.431239333
178.697,283.40756388
178.712,283.383795212
178.727,283.359932493
178.742,283.335974874
178.757,283.311921494
178.772,283.287771481
178.787,283.263523947
178.802,283.239177993
178.817,283.214732706
178.832,283.190187163
178.847,283.165540423
178.862,283.140791535
178.877,283.115939534
178.892,283.09098344
178.907,283.06592226
178.922,283.040754989
178.937,283.015480606
178.952,282.990098076
178.967,282.964606351
178.982,282.939004367
178.997,282.913291047
179.012,282.8874653
179.027,282.861526017
179.042,282.835472079
179.057,282.809302348
179.072,282.783015673
179.087,282.756610888
179.102,282.730086811
179.117,282.703442243
179.132,282.676675973
179.147,282.649786772
179.16,282.626382399
179.162,282.622773396
179.177,282.595634583
179.192,282.568369059
179.207,282.540975529
179.222,282.513452687
179.237,282.485799205
179.252,282.458013744
179.267,282.430094943
179.282,282.402041428
179.297,282.373851806
179.312,282.345524669
179.327,282.31705859
179.342,282.288452125
179.357,282.259703814
179.372,282.230812177
179.387,282.201775718
179.402,282.172592924
179.417,282.143262262
179.432,282.113782182
179.447,282.084151117
179.462,282.05436748
179.477,282.024429667
179.492,281.994336055
179.507,281.964085002
179.522,281.933674848
179.537,281.903103915
179.552,281.872370504
179.567,281.841472899
179.582,281.810409365
179.597,281.779178146
179.612,281.747777469
179.627,281.71620554
179.642,281.684460547
179.657,281.652540658
179.672,281.620444022
179.687,281.588168766
179.702,281.555713001
179.717,281.523074816
179.732,281.49025228
179.747,281.457243444
179.762,281.424046338
179.777,281.390658971
179.792,281.357079335
179.807,281.323305398
179.822,281.289335112
179.837,281.255166406
179.852,281.220797191
179.867,281.186225356
179.882,281.151448772
179.897,281.116465289
179.91,281.085977234
179.912,281.081272736
179.927,281.045868923
179.942,281.010251639
179.957,280.974418656
179.972,280.938367722
179.987,280.902096567
180.002,280.865602901
180.017,280.828884415
180.032,280.791938779
180.047,280.754763644
180.062,280.717356641
180.077,280.679715381
180.092,280.641837458
180.107,280.603720444
180.122,280.565361893
180.137,280.52675934
180.152,280.487910301
180.167,280.448812273
180.182,280.409462735
180.197,280.369859146
180.212,280.32999895
180.227,280.289879571
180.242,280.249498413
180.257,280.208852866
180.272,280.167940301
180.287,280.126758071
180.302,280.085303514
180.317,280.04357395
180.332,280.001566683
180.347,279.959279
180.362,279.916708174
180.377,279.873851461
180.392,279.830706103
180.407,279.787269324
180.422,279.743538338
180.437,279.699510341
180.452,279.655182518
180.467,279.610552038
180.482,279.565616059
180.497,279.520371724
180.512,279.474816167
180.527,279.428946508
180.542,279.382759855
180.557,279.336253306
180.56,279.326913352
180.572,279.289423948
180.587,279.242268859
180.602,279.194785106
180.617,279.146969748
180.632,279.098819835
180.647,279.050332407
180.66,279.008034667
180.662,279.0015045
180.677,278.952333141
180.692,278.902815349
180.707,278.852948139
180.722,278.80272852
180.737,278.752153496
180.752,278.701220066
180.767,278.649925225
180.782,278.598265967
180.797,278.54623928
180.812,278.493842152
180.827,278.441071569
180.842,278.387924516
180.857,278.334397976
180.872,278.280488934
180.887,278.226194375
180.902,278.171511285
180.917,278.116436652
180.932,278.060967466
180.947,278.00510072
180.962,277.948833411
180.977,277.892162538
180.992,277.835085106
181.007,277.777598125
181.022,277.719698608
181.037,277.661383577
181.052,277.602650059
181.067,277.543495085
181.082,277.483915696
181.097,277.42390894
181.112,277.363471871
181.127,277.302601552
181.142,277.241295055
181.157,277.179549459
181.172,277.117361852
181.187,277.05472933
181.202,276.991649
181.217,276.928117975
181.232,276.864133379
181.247,276.799692345
181.262,276.734792013
181.277,276.669429533
181.292,276.603602062
181.307,276.537306767
181.31,276.52399132
181.322,276.470540821
181.337,276.403301405
181.352,276.335585707
181.367,276.267390921
181.382,276.198714247
181.397,276.12955289
181.412,276.059904057
181.427,275.989764962
181.442,275.919132818
181.457,275.84800484
181.472,275.776378245
181.487,275.704250245
181.502,275.631618053
181.517,275.558478876
181.532,275.484829915
181.547,275.410668365
181.562,275.335991411
181.577,275.260796228
181.592,275.185079976
181.607,275.108839801
181.622,275.032072832
181.637,274.954776178
181.652,274.876946924
181.667,274.798582132
181.682,274.719678835
181.697,274.640234037
181.712,274.560244706
181.727,274.479707775
181.742,274.398620137
181.757,274.31697864
181.772,274.234780085
181.787,274.152021223
181.802,274.068698751
181.817,273.984809305
181.832,273.900349459
181.847,273.815315721
181.862,273.729704524
181.877,273.643512226
181.892,273.556735104
181.907,273.469369348
181.922,273.381411054
181.937,273.292856222
181.952,273.203700748
181.967,273.113940417
181.982,273.023570899
181.997,272.932587741
182.012,272.840986358
182.027,272.748762027
182.042,272.655909881
182.057,272.562424894
182.06,272.543651503
182.072,272.468301881
182.087,272.373535477
182.102,272.278120135
182.117,272.182050111
182.132,272.085319449
182.147,271.987921972
182.162,271.889851263
182.177,271.791100647
182.192,271.691663177
182.207,271.591531608
182.222,271.49069838
182.237,271.389155586
182.252,271.286894948
182.267,271.183907782
182.282,271.080184964
182.297,270.975716889
182.312,270.870493422
182.327,270.764503853
182.342,270.65773683
182.357,270.550180299
182.372,270.441821426
182.387,270.332646512
182.402,270.222640896
182.417,270.111788841
182.432,270.000073414
182.447,269.887476338
182.462,269.773977828
182.477,269.659556403
182.492,269.544188677
182.507,269.427849105
182.522,269.31050971
182.537,269.192139756
182.552,269.072705383
182.567,268.95216918
182.582,268.830489695
182.597,268.70762088
182.612,268.583511436
182.627,268.458104073
182.642,268.331334637
182.657,268.203131117
182.672,268.073412478
182.687,267.942087315
182.702,267.809052279
182.717,267.674190242
182.732,267.537368153
182.747,267.398434519
182.762,267.257216447
182.777,267.113516155
182.792,266.967106847
182.807,266.81772782
182.822,266.665078638
182.837,266.508812173
182.852,266.348526269
182.867,266.18375369
182.882,266.013949985
182.897,265.838478735
182.912,265.656593552
182.927,265.467415999
182.942,265.269908343
182.957,265.062839754
182.972,264.844744094
182.987,264.613866863
183.002,264.368098036
183.017,264.104886402
183.032,263.821129453
183.047,263.51303066
183.062,263.175912931
183.077,262.803972705
183.092,262.389953194
183.107,261.924707096
183.122,261.396608389
183.137,260.79076008
183.152,260.087932806
183.167,259.263168265
183.182,258.284020285
183.197,257.10856352
183.212,255.683783636
183.227,253.946323955
183.242,251.831213277
183.257,249.30327986
183.367,249.956446801
183.382,252.375539981
183.397,254.385095537
183.412,256.032919855
183.427,257.385137922
183.442,258.502753857
183.457,259.435833562
183.472,260.223673744
183.487,260.896611435
183.502,261.47798212
183.517,261.985786753
183.532,262.433996214
183.547,262.833536651
183.562,263.193023417
183.577,263.519305937
183.592,263.817873239
183.607,264.093157498
183.622,264.348762938
183.637,264.587639857
183.652,264.812218067
183.667,265.024510072
183.682,265.226191492
183.697,265.418664258
183.712,265.603106619
183.727,265.780513003
183.742,265.951725995
183.757,266.11746214
183.772,266.278332908
183.787,266.434861789
183.802,266.587498331
183.817,266.736629707
183.832,266.882590297
183.847,267.02566965
183.862,267.166119138
183.877,267.30415753
183.892,267.439975677
183.907,267.573740471
183.922,267.705598188
183.937,267.835677334
183.952,267.964091062
183.967,268.090939235
183.982,268.216310194
183.997,268.340282272
184.012,268.462925092
184.027,268.584300692
184.042,268.704464484
184.057,268.823466094
184.072,268.941350081
184.087,269.058156564
184.102,269.173921765
184.117,269.288678478
184.132,269.402456482
184.147,269.515282897
184.162,269.627182495
184.177,269.738177974
184.192,269.848290192
184.207,269.957538375
184.222,270.0659403
184.237,270.173512454
184.252,270.280270169
184.267,270.38622775
184.282,270.491398576
184.297,270.595795198
184.312,270.69942942
184.327,270.802312372
184.342,270.904454573
184.357,271.00586599
184.372,271.106556085
184.387,271.206533858
184.402,271.305807892
184.417,271.404386379
184.432,271.502277159
184.447,271.59948774
184.462,271.696025329
184.477,271.791896847
184.492,271.887108954
184.507,271.981668066
184.522,272.075580367
184.537,272.168851826
184.552,272.261488213
184.56,272.310636544
184.567,272.353495104
184.582,272.444877898
184.597,272.535641826
184.612,272.625791956
184.627,272.715333208
184.642,272.804270357
184.657,272.892608042
184.672,272.980350777
184.687,273.067502949
184.702,273.154068834
184.717,273.240052596
184.732,273.325458294
184.747,273.410289892
184.762,273.494551256
184.777,273.578246169
184.792,273.661378325
184.807,273.743951342
184.822,273.825968764
184.837,273.907434061
184.852,273.988350639
184.867,274.068721843
184.882,274.148550955
184.897,274.227841205
184.912,274.306595771
184.927,274.384817783
184.942,274.462510324
184.957,274.539676437
184.972,274.616319127
184.987,274.692441362
185.002,274.768046075
185.017,274.843136171
185.032,274.917714527
185.047,274.991783993
185.062,275.065347397
185.077,275.138407545
185.092,275.210967226
185.107,275.28302921
185.122,275.354596254
185.137,275.4256711
185.152,275.49625648
185.167,275.566355116
185.182,275.63596972
185.197,275.705102999
185.212,275.773757655
185.227,275.841936383
185.242,275.909641878
185.257,275.976876829
185.272,276.043643928
185.287,276.109945864
185.302,276.175785329
185.31,276.210711539
185.317,276.241165012
185.332,276.30608761
185.347,276.370555817
185.362,276.434572334
185.377,276.498139865
185.392,276.561261116
185.407,276.623938799
185.422,276.686175632
185.437,276.747974335
185.452,276.809337636
185.467,276.870268266
185.482,276.930768963
185.497,276.99084247
185.512,277.050491535
185.527,277.109718911
185.542,277.168527359
185.557,277.226919642
185.572,277.284898529
185.587,277.342466795
185.602,277.399627218
185.617,277.456382583
185.632,277.512735677
185.647,277.568689291
185.662,277.624246221
185.677,277.679409265
185.692,277.734181224
185.707,277.788564903
185.722,277.842563107
185.737,277.896178646
185.752,277.949414327
185.767,278.002272962
185.782,278.054757362
185.797,278.106870338
185.812,278.1586147
185.827,278.209993259
185.842,278.261008823
185.857,278.311664201
185.872,278.361962197
185.887,278.411905613
185.902,278.461497249
185.917,278.510739902
185.932,278.559636364
185.947,278.608189421
185.96,278.649993113
185.962,278.656401857
185.977,278.70427645
185.992,278.751815972
186.007,278.799023187
186.022,278.845900856
186.037,278.892451729
186.052,278.938678552
186.06,278.963201302
186.067,278.98458406
186.082,279.030170983
186.097,279.075442038
186.112,279.120399937
186.127,279.165047381
186.142,279.209387059
186.157,279.253421653
186.172,279.297153833
186.187,279.340586257
186.202,279.383721572
186.217,279.426562415
186.232,279.469111409
186.247,279.511371166
186.262,279.553344284
186.277,279.595033349
186.292,279.636440932
186.307,279.677569594
186.322,279.718421879
186.337,279.759000319
186.352,279.799307429
186.367,279.839345711
186.382,279.879117654
186.397,279.918625728
186.412,279.957872391
186.427,279.996860085
186.442,280.035591234
186.457,280.074068249
186.472,280.112293524
186.487,280.150269435
186.502,280.187998345
186.517,280.225482598
186.532,280.262724522
186.547,280.299726429
186.562,280.336490612
186.577,280.373019349
186.592,280.4093149
186.607,280.445379508
186.622,280.481215398
186.637,280.516824778
186.652,280.55220984
186.667,280.587372755
186.682,280.622315679
186.697,280.657040751
186.71,280.686961232
186.712,280.691550088
186.727,280.725845795
186.742,280.759929954
186.757,280.793804633
186.772,280.82747188
186.787,280.860933724
186.802,280.89419218
186.817,280.927249241
186.832,280.960106884
186.847,280.992767069
186.862,281.025231736
186.877,281.057502808
186.892,281.08958219
186.907,281.12147177
186.922,281.153173418
186.937,281.184688985
186.952,281.216020304
186.967,281.247169193
186.982,281.27813745
186.997,281.308926856
187.012,281.339539175
187.027,281.369976152
187.042,281.400239517
187.057,281.43033098
187.072,281.460252235
187.087,281.490004959
187.102,281.519590813
187.117,281.549011437
187.132,281.578268459
187.147,281.607363486
187.162,281.63629811
187.177,281.665073907
187.192,281.693692436
187.207,281.722155237
187.222,281.750463836
187.237,281.778619744
187.252,281.806624452
187.267,281.834479438
187.282,281.862186162
187.297,281.889746069
187.312,281.917160587
187.327,281.944431131
187.342,281.971559098
187.357,281.99854587
187.372,282.025392813
187.387,282.052101279
187.402,282.078672605
187.417,282.105108111
187.432,282.131409103
187.447,282.157576874
187.46,282.180148833
187.462,282.183612699
187.477,282.20951784
187.492,282.235293546
187.507,282.260941049
187.522,282.286461568
187.537,282.311856309
187.552,282.33712646
187.567,282.362273201
187.582,282.387297693
187.597,282.412201087
187.612,282.436984517
187.627,282.461649106
187.642,282.486195964
187.657,282.510626186
187.672,282.534940855
187.687,282.559141041
187.702,282.583227801
187.717,282.607202179
187.732,282.631065207
187.747,282.654817905
187.762,282.678461278
187.777,282.701996321
187.792,282.725424018
187.807,282.748745338
187.822,282.771961239
187.837,282.79507267
187.852,282.818080563
187.867,282.840985844
187.882,282.863789423
187.897,282.886492202
187.912,282.90909507
187.927,282.931598904
187.942,282.954004574
187.957,282.976312934
187.972,282.99852483
187.987,283.020641098
188.002,283.042662561
188.017,283.064590033
188.032,283.086424318
188.047,283.108166209
188.062,283.129816489
188.077,283.151375931
188.092,283.172845298
188.107,283.194225344
188.122,283.215516811
188.137,283.236720433
188.152,283.257836936
188.167,283.278867032
188.182,283.29981143
188.197,283.320670823
188.21,283.338680737
188.212,283.3414459
188.227,283.362137338
188.242,283.382745806
188.257,283.403271966
188.272,283.423716467
188.287,283.444079954
188.302,283.464363059
188.317,283.484566409
188.332,283.504690621
188.347,283.524736305
188.362,283.544704059
188.377,283.564594479
188.392,283.584408147
188.407,283.60414564
188.422,283.623807528
188.437,283.64339437
188.452,283.662906721
188.467,283.682345126
188.482,283.701710122
188.497,283.721002241
188.512,283.740222005
188.527,283.759369931
188.542,283.778446527
188.557,283.797452295
188.572,283.816387728
188.587,283.835253316
188.602,283.854049537
188.617,283.872776866
188.632,283.891435771
188.647,283.91002671
188.66,283.926084232
188.662,283.928550138
188.677,283.947006502
188.692,283.965396243
188.707,283.983719795
188.722,284.001977585
188.737,284.020170036
