# 10410 EDZE Essen Observations at 12Z 21 Mar 2019
Frequency [GHz],TB
175.31,272.398036032
175.322,272.398663495
175.337,272.399304112
175.352,272.399784763
175.367,272.400105145
175.382,272.400264963
175.397,272.400263926
175.412,272.400101747
175.427,272.399778147
175.442,272.39929285
175.457,272.398645587
175.472,272.397836095
175.487,272.396864115
175.502,272.395729394
175.517,272.394431685
175.532,272.392970748
175.547,272.391346346
175.562,272.38955825
175.577,272.387606236
175.592,272.385490086
175.607,272.383209589
175.622,272.380764538
175.637,272.378154733
175.652,272.375379981
175.667,272.372440093
175.682,272.369334887
175.697,272.366064189
175.712,272.362627829
175.727,272.359025644
175.742,272.355257477
175.757,272.351323178
175.772,272.347222603
175.787,272.342955613
175.802,272.338522078
175.817,272.333921873
175.832,272.329154879
175.847,272.324220985
175.862,272.319120085
175.877,272.313852081
175.892,272.308416878
175.907,272.302814394
175.922,272.297044549
175.937,272.291107269
175.952,272.285002489
175.967,272.278730152
175.982,272.272290203
175.997,272.265682598
176.012,272.258907297
176.027,272.251964269
176.042,272.244853488
176.057,272.237574936
176.072,272.230128601
176.087,272.222514477
176.102,272.214732568
176.117,272.206782881
176.132,272.198665431
176.147,272.190380242
176.162,272.181927341
176.177,272.173306766
176.192,272.164518558
176.207,272.155562767
176.222,272.146439449
176.237,272.137148667
176.252,272.127690491
176.267,272.118064999
176.282,272.108272273
176.297,272.098312402
176.31,272.089545388
176.312,272.088185484
176.327,272.077891624
176.342,272.06743093
176.357,272.05680352
176.372,272.046009517
176.387,272.035049051
176.402,272.02392226
176.417,272.012629286
176.432,272.001170279
176.447,271.989545397
176.46,271.979336449
176.462,271.977754801
176.477,271.965798661
176.492,271.953677153
176.507,271.941390458
176.522,271.928938765
176.537,271.916322268
176.552,271.903541169
176.567,271.890595674
176.582,271.877485996
176.597,271.864212355
176.612,271.850774975
176.627,271.837174088
176.642,271.82340993
176.657,271.809482744
176.672,271.79539278
176.687,271.781140291
176.702,271.766725536
176.717,271.752148783
176.732,271.7374103
176.747,271.722510364
176.762,271.707449259
176.777,271.692227268
176.792,271.676844686
176.807,271.661301808
176.822,271.645598938
176.837,271.629736381
176.852,271.613714451
176.867,271.597533462
176.882,271.581193736
176.897,271.5646956
176.912,271.548039381
176.927,271.531225415
176.942,271.514254042
176.957,271.497125601
176.972,271.479840441
176.987,271.462398912
177.002,271.444801368
177.017,271.427048166
177.032,271.409139669
177.047,271.391076239
177.062,271.372858246
177.077,271.354486061
177.092,271.335960056
177.107,271.317280611
177.122,271.298448103
177.137,271.279462915
177.152,271.260325431
177.167,271.24103604
177.182,271.221595129
177.197,271.20200309
177.21,271.184901381
177.212,271.182260316
177.227,271.162367202
177.242,271.142324144
177.257,271.12213154
177.272,271.101789789
177.287,271.081299291
177.302,271.060660447
177.31,271.049592545
177.317,271.039873658
177.332,271.018939329
177.347,270.99785786
177.362,270.976629655
177.377,270.955255119
177.392,270.933734653
177.407,270.912068661
177.422,270.890257546
177.437,270.868301709
177.452,270.846201551
177.467,270.823957474
177.482,270.801569875
177.497,270.779039153
177.512,270.756365704
177.527,270.733549923
177.542,270.710592202
177.557,270.687492933
177.572,270.664252502
177.587,270.640871297
177.602,270.6173497
177.617,270.593688092
177.632,270.56988685
177.647,270.545946349
177.66,270.525085555
177.662,270.521866958
177.677,270.497649046
177.692,270.473292974
177.707,270.448799103
177.722,270.424167787
177.737,270.399399377
177.752,270.374494218
177.767,270.349452651
177.782,270.324275012
177.797,270.298961631
177.812,270.273512835
177.827,270.247928941
177.842,270.222210263
177.857,270.19635711
177.872,270.170369782
177.887,270.144248572
177.902,270.117993771
177.917,270.091605657
177.932,270.065084504
177.947,270.03843058
177.96,270.015223315
177.962,270.011644143
177.977,269.984725443
177.992,269.957674725
178.007,269.930492222
178.022,269.903178161
178.037,269.87573276
178.052,269.848156228
178.067,269.820448765
178.082,269.792610561
178.097,269.764641798
178.112,269.736542648
178.127,269.708313273
178.142,269.679953823
178.157,269.651464442
178.172,269.62284526
178.187,269.594096397
178.202,269.565217963
178.217,269.536210058
178.232,269.507072767
178.247,269.477806168
178.262,269.448410324
178.277,269.418885288
178.292,269.389231101
178.307,269.359447791
178.322,269.329535374
178.337,269.299493853
178.352,269.269323219
178.367,269.23902345
178.382,269.208594511
178.397,269.178036352
178.41,269.151448044
178.412,269.147348913
178.427,269.116532116
178.442,269.085585873
178.457,269.054510081
178.472,269.02330462
178.487,268.99196936
178.502,268.960504153
178.517,268.92890884
178.532,268.897183244
178.547,268.865327174
178.562,268.833340424
178.577,268.801222773
178.592,268.768973984
178.607,268.736593805
178.622,268.704081968
178.637,268.67143819
178.652,268.638662169
178.667,268.605753591
178.682,268.572712124
178.697,268.539537418
178.712,268.506229108
178.727,268.472786813
178.742,268.439210133
178.757,268.405498653
178.772,268.371651941
178.787,268.337669545
178.802,268.303551
178.817,268.269295819
178.832,268.234903503
178.847,268.200373529
178.862,268.16570536
178.877,268.130898442
178.892,268.0959522
178.907,268.060866043
178.922,268.025639361
178.937,267.990271526
178.952,267.954761891
178.967,267.919109791
178.982,267.883314544
178.997,267.847375445
179.012,267.811291775
179.027,267.775062793
179.042,267.738687741
179.057,267.70216584
179.072,267.665496293
179.087,267.628678284
179.102,267.591710978
179.117,267.554593519
179.132,267.517325032
179.147,267.479904624
179.16,267.447350011
179.162,267.442331382
179.177,267.40460437
179.192,267.366722637
179.207,267.328685209
179.222,267.290491093
179.237,267.252139276
179.252,267.213628725
179.267,267.174958387
179.282,267.136127187
179.297,267.097134033
179.312,267.057977809
179.327,267.018657381
179.342,266.979171593
179.357,266.939519271
179.372,266.899699216
179.387,266.859710211
179.402,266.819551019
179.417,266.77922038
179.432,266.738717013
179.447,266.698039617
179.462,266.657186871
179.477,266.616157429
179.492,266.574949927
179.507,266.533562979
179.522,266.491995176
179.537,266.45024509
179.552,266.408311268
179.567,266.366192237
179.582,266.323886504
179.597,266.28139255
179.612,266.238708837
179.627,266.195833805
179.642,266.152765869
179.657,266.109503425
179.672,266.066044844
179.687,266.022388476
179.702,265.978532647
179.717,265.934475662
179.732,265.890215802
179.747,265.845751325
179.762,265.801080465
179.777,265.756201436
179.792,265.711112424
179.807,265.665811595
179.822,265.620297091
179.837,265.574567028
179.852,265.5286195
179.867,265.482452577
179.882,265.436064305
179.897,265.389452703
179.91,265.348873785
179.912,265.342615768
179.927,265.295551473
179.942,265.248257765
179.957,265.200732564
179.972,265.152973767
179.987,265.104979247
180.002,265.05674685
180.017,265.008274394
180.032,264.959559675
180.047,264.910600461
180.062,264.861394493
180.077,264.811939487
180.092,264.762233132
180.107,264.71227309
180.122,264.662056994
180.137,264.611582452
180.152,264.560847045
180.167,264.509848324
180.182,264.458583814
180.197,264.407051008
180.212,264.355247376
180.227,264.303170356
180.242,264.250817356
180.257,264.198185758
180.272,264.145272912
180.287,264.092076139
180.302,264.03859273
180.317,263.984819945
180.332,263.930755015
180.347,263.87639514
180.362,263.821737487
180.377,263.766779193
180.392,263.711517364
180.407,263.655949072
180.422,263.600071358
180.437,263.543881232
180.452,263.487375668
180.467,263.430551608
180.482,263.373405963
180.497,263.315935606
180.512,263.25813738
180.527,263.200008091
180.542,263.141544512
180.557,263.082743379
180.56,263.070942357
180.572,263.023601396
180.587,262.964115228
180.602,262.904281507
180.617,262.844096826
180.632,262.783557744
180.647,262.722660783
180.66,262.669591216
180.662,262.661402428
180.677,262.599779124
180.692,262.537787282
180.707,262.475423274
180.722,262.412683433
180.737,262.349564055
180.752,262.286061395
180.767,262.222171672
180.782,262.157891065
180.797,262.093215711
180.812,262.028141712
180.827,261.962665126
180.842,261.896781974
180.857,261.830488234
180.872,261.763779846
180.887,261.69665271
180.902,261.629102681
180.917,261.561125579
180.932,261.492717179
180.947,261.423873216
180.962,261.354589385
180.977,261.284861338
180.992,261.214684689
181.007,261.144055007
181.022,261.072967824
181.037,261.001418627
181.052,260.929402866
181.067,260.856915947
181.082,260.783953237
181.097,260.710510063
181.112,260.636581712
181.127,260.562163429
181.142,260.487250422
181.157,260.411837859
181.172,260.33592087
181.187,260.259494545
181.202,260.182553939
181.217,260.105094068
181.232,260.027109912
181.247,259.948596415
181.262,259.869548489
181.277,259.789961008
181.292,259.709828816
181.307,259.629146723
181.31,259.612943858
181.322,259.54790951
181.337,259.466111928
181.352,259.383748698
181.367,259.300814516
181.382,259.217304051
181.397,259.133211951
181.412,259.048532839
181.427,258.963261318
181.442,258.877391976
181.457,258.790919381
181.472,258.703838089
181.487,258.616142644
181.502,258.527827584
181.517,258.438887437
181.532,258.34931673
181.547,258.259109989
181.562,258.168261745
181.577,258.076766534
181.592,257.984618903
181.607,257.891813415
181.622,257.79834465
181.637,257.704207212
181.652,257.609395732
181.667,257.513904874
181.682,257.417729342
181.697,257.320863882
181.712,257.223303289
181.727,257.125042417
181.742,257.02607618
181.757,256.926399562
181.772,256.826007625
181.787,256.724895516
181.802,256.623058473
181.817,256.52049184
181.832,256.417191069
181.847,256.313151733
181.862,256.20836954
181.877,256.102840336
181.892,255.996560123
181.907,255.889525069
181.922,255.781731521
181.937,255.673176017
181.952,255.563855303
181.967,255.453766345
181.982,255.34290635
181.997,255.231272774
182.012,255.11886335
182.027,255.005676098
182.042,254.891709348
182.057,254.776961763
182.06,254.753918452
182.072,254.661432354
182.087,254.545120511
182.102,254.428026017
182.117,254.310149084
182.132,254.19149037
182.147,254.07205101
182.162,253.951832648
182.177,253.830837462
182.192,253.709068196
182.207,253.586528198
182.222,253.46322145
182.237,253.339152602
182.252,253.214327015
182.267,253.088750797
182.282,252.962430842
182.297,252.835374872
182.312,252.707591482
182.327,252.579090181
182.342,252.449881443
182.357,252.319976747
182.372,252.189388629
182.387,252.058130729
182.402,251.926217843
182.417,251.793665965
182.432,251.660492346
182.447,251.526715538
182.462,251.392355439
182.477,251.25743335
182.492,251.121972008
182.507,250.985995639
182.522,250.849529989
182.537,250.712602362
182.552,250.57524165
182.567,250.437478348
182.582,250.299344573
182.597,250.160874065
182.612,250.022102171
182.627,249.883065827
182.642,249.743803507
182.657,249.604355162
182.672,249.464762128
182.687,249.325067005
182.702,249.185313502
182.717,249.045546242
182.732,248.905810515
182.747,248.766151981
182.762,248.626616302
182.777,248.4872487
182.792,248.348093427
182.807,248.209193126
182.822,248.070588074
182.837,247.932315283
182.852,247.794407425
182.867,247.656891568
182.882,247.519787676
182.897,247.383106837
182.912,247.24684916
182.927,247.111001294
182.942,246.975533487
182.957,246.840396087
182.972,246.705515394
182.987,246.570788715
183.002,246.436078453
183.017,246.301205042
183.032,246.165938456
183.047,246.029988007
183.062,245.892990056
183.077,245.754493226
183.092,245.613940662
183.107,245.470648928
183.122,245.323783381
183.137,245.172330473
183.152,245.015069076
183.167,244.850546614
183.182,244.67707419
183.197,244.492773897
183.212,244.295754051
183.227,244.084582473
183.242,243.85942427
183.257,243.6245463
183.367,243.666912954
183.382,243.895722775
183.397,244.113199456
183.412,244.316451116
183.427,244.505874959
183.442,244.683085411
183.457,244.849994842
183.472,245.008439745
183.487,245.160048568
183.502,245.30621223
183.517,245.448095729
183.532,245.586663977
183.547,245.722710474
183.562,245.856884261
183.577,245.989713607
183.592,246.121626186
183.607,246.252965994
183.622,246.384007436
183.637,246.514967034
183.652,246.646013147
183.667,246.777274064
183.682,246.908844747
183.697,247.040792474
183.712,247.173161568
183.727,247.305977363
183.742,247.439249552
183.757,247.572975002
183.772,247.707140137
183.787,247.841722948
183.802,247.976694696
183.817,248.11202135
183.832,248.247664801
183.847,248.38358389
183.862,248.519735273
183.877,248.656074147
183.892,248.792554864
183.907,248.929131435
183.922,249.065757958
183.937,249.202388966
183.952,249.338979715
183.967,249.475486413
183.982,249.611866414
183.997,249.74807836
184.012,249.884082294
184.027,250.019839752
184.042,250.155313813
184.057,250.290469151
184.072,250.425272049
184.087,250.55969041
184.102,250.693693754
184.117,250.827253203
184.132,250.960341458
184.147,251.092932771
184.162,251.225002908
184.177,251.35652911
184.192,251.487490053
184.207,251.6178658
184.222,251.747637754
184.237,251.876788612
184.252,252.005302315
184.267,252.133163995
184.282,252.260359932
184.297,252.386877502
184.312,252.512705127
184.327,252.637832233
184.342,252.762249196
184.357,252.885947304
184.372,253.008918711
184.387,253.13115639
184.402,253.252654098
184.417,253.373406333
184.432,253.493408295
184.447,253.612655851
184.462,253.731145498
184.477,253.84887433
184.492,253.965840004
184.507,254.082040711
184.522,254.197475144
184.537,254.312142469
184.552,254.426042302
184.56,254.486475056
184.567,254.539174676
184.582,254.651540025
184.597,254.76313915
184.612,254.873973208
184.627,254.984043681
184.642,255.09335236
184.657,255.201901328
184.672,255.309692935
184.687,255.416729787
184.702,255.523014727
184.717,255.628550817
184.732,255.733341328
184.747,255.837389722
184.762,255.94069964
184.777,256.043274888
184.792,256.145119429
184.807,256.246237366
184.822,256.346632935
184.837,256.446310493
184.852,256.545274509
184.867,256.643529557
184.882,256.741080301
184.897,256.837931495
184.912,256.934087969
184.927,257.029554623
184.942,257.124336422
184.957,257.218438388
184.972,257.311865595
184.987,257.404623159
185.002,257.49671624
185.017,257.588150028
185.032,257.678929744
185.047,257.769060635
185.062,257.858547965
185.077,257.947397019
185.092,258.035613088
185.107,258.123201477
185.122,258.210167492
185.137,258.296516443
185.152,258.382253637
185.167,258.467384377
185.182,258.55191396
185.197,258.635847671
185.212,258.719190786
185.227,258.801948565
185.242,258.88412625
185.257,258.965729066
185.272,259.046762219
185.287,259.12723089
185.302,259.207140239
185.31,259.249531631
185.317,259.286495398
185.332,259.365301476
185.347,259.443563549
185.362,259.521286669
185.377,259.598475855
185.392,259.675136093
185.407,259.751272341
185.422,259.82688952
185.437,259.901992518
185.452,259.976586189
185.467,260.050675352
185.482,260.124264786
185.497,260.197359239
185.512,260.269963417
185.527,260.342081992
185.542,260.413719594
185.557,260.484880819
185.572,260.555570221
185.587,260.625792315
185.602,260.69555158
185.617,260.764852453
185.632,260.83369933
185.647,260.90209657
185.662,260.970048492
185.677,261.037559374
185.692,261.104633454
185.707,261.17127493
185.722,261.237487962
185.737,261.303276669
185.752,261.368645129
185.767,261.433597381
185.782,261.498137425
185.797,261.562269222
185.812,261.625996693
185.827,261.689323718
185.842,261.752254141
185.857,261.814791765
185.872,261.876940357
185.887,261.938703641
185.902,262.000085308
185.917,262.061089008
185.932,262.121718353
185.947,262.181976919
185.96,262.233903826
185.962,262.241868244
185.977,262.301395829
185.992,262.360563139
186.007,262.419373602
186.022,262.477830611
186.037,262.53593752
186.052,262.59369765
186.06,262.624362395
186.067,262.651114288
186.082,262.708190683
186.097,262.764930051
186.112,262.821335573
186.127,262.877410397
186.142,262.933157636
186.157,262.988580371
186.172,263.043681648
186.187,263.098464481
186.202,263.152931853
186.217,263.207086712
186.232,263.260931977
186.247,263.314470533
186.262,263.367705235
186.277,263.420638907
186.292,263.473274341
186.307,263.525614302
186.322,263.577661521
186.337,263.629418701
186.352,263.680888516
186.367,263.732073609
186.382,263.782976597
186.397,263.833600067
186.412,263.883946576
186.427,263.934018656
186.442,263.983818808
186.457,264.033349509
186.472,264.082613207
186.487,264.131612322
186.502,264.180349249
186.517,264.228826358
186.532,264.277045988
186.547,264.325010458
186.562,264.372722057
186.577,264.420183051
186.592,264.46739568
186.607,264.51436216
186.622,264.561084681
186.637,264.607565409
186.652,264.653806487
186.667,264.699810033
186.682,264.745578142
186.697,264.791112885
186.71,264.830389145
186.712,264.83641631
186.727,264.881490442
186.742,264.926337282
186.757,264.970958812
186.772,265.015356987
186.787,265.059533743
186.802,265.103490993
186.817,265.147230628
186.832,265.190754518
186.847,265.23406451
186.862,265.277162433
186.877,265.320050091
186.892,265.362729271
186.907,265.405201736
186.922,265.44746923
186.937,265.489533478
186.952,265.531396182
186.967,265.573059027
186.982,265.614523676
186.997,265.655791772
187.012,265.696864941
187.027,265.737744788
187.042,265.778432897
187.057,265.818930837
187.072,265.859240156
187.087,265.899362382
187.102,265.939299026
187.117,265.979051581
187.132,266.01862152
187.147,266.058010299
187.162,266.097219355
187.177,266.136250107
187.192,266.175103959
187.207,266.213782293
187.222,266.252286477
187.237,266.290617858
187.252,266.328777771
187.267,266.366767527
187.282,266.404588427
187.297,266.442241749
187.312,266.479728758
187.327,266.517050701
187.342,266.554208808
187.357,266.591204294
187.372,266.628038355
187.387,266.664712173
187.402,266.701226914
187.417,266.737583726
187.432,266.773783743
187.447,266.809828081
187.46,266.840941433
187.462,266.845717843
187.477,266.881454114
187.492,266.917037964
187.507,266.95247045
187.522,266.987752609
187.537,267.022885467
187.552,267.057870033
187.567,267.092707302
187.582,267.127398251
187.597,267.161943847
187.612,267.196345038
187.627,267.230602761
187.642,267.264717935
187.657,267.298691466
187.672,267.332524247
187.687,267.366217155
187.702,267.399771054
187.717,267.433186792
187.732,267.466465206
187.747,267.499607117
187.762,267.532613332
187.777,267.565484647
187.792,267.598221842
187.807,267.630825683
187.822,267.663296925
187.837,267.695636308
187.852,267.72784456
187.867,267.759922395
187.882,267.791870515
187.897,267.823689607
187.912,267.855380347
187.927,267.8869434
187.942,267.918379414
187.957,267.949689029
187.972,267.98087287
187.987,268.011931549
188.002,268.042865669
188.017,268.073675819
188.032,268.104362575
188.047,268.134926503
188.062,268.165368157
188.077,268.19568808
188.092,268.2258868
188.107,268.255964837
188.122,268.285922699
188.137,268.315760882
188.152,268.345479872
188.167,268.375080143
188.182,268.404562158
188.197,268.433926369
188.21,268.459280405
188.212,268.46317322
188.227,268.492303141
188.242,268.521316553
188.257,268.550213867
188.272,268.578995483
188.287,268.607661791
188.302,268.636213172
188.317,268.664649995
188.332,268.692972622
188.347,268.721181402
188.362,268.749276679
188.377,268.777258782
188.392,268.805128035
188.407,268.832884751
188.422,268.860529235
188.437,268.888061781
188.452,268.915482676
188.467,268.942792198
188.482,268.969990615
188.497,268.997078188
188.512,269.02405517
188.527,269.050921803
188.542,269.077678325
188.557,269.104324962
188.572,269.130861934
188.587,269.157289454
188.602,269.183607725
188.617,269.209816945
188.632,269.235917302
188.647,269.26190898
188.66,269.284347325
188.662,269.287792152
188.677,269.313566987
188.692,269.339233645
188.707,269.364792281
188.722,269.390243042
188.737,269.415586068
