# 10410 EDZE Essen Observations at 12Z 26 Feb 2020
Frequency [GHz],TB
175.31,257.899792713
175.322,257.931705176
175.337,257.97145156
175.352,258.011036316
175.367,258.050457919
175.382,258.089714846
175.397,258.128805565
175.412,258.167728542
175.427,258.206482238
175.442,258.245065112
175.457,258.283475617
175.472,258.321712201
175.487,258.359773309
175.502,258.397657385
175.517,258.435362865
175.532,258.472888185
175.547,258.510231773
175.562,258.547392058
175.577,258.584367464
175.592,258.621156413
175.607,258.657757321
175.622,258.694168601
175.637,258.730388667
175.652,258.766415927
175.667,258.802248787
175.682,258.83788565
175.697,258.873324917
175.712,258.908564986
175.727,258.943604255
175.742,258.978441113
175.757,259.013073956
175.772,259.047501172
175.787,259.08172115
175.802,259.115732275
175.817,259.149532932
175.832,259.183121503
175.847,259.216496372
175.862,259.249655917
175.877,259.282598518
175.892,259.315322553
175.907,259.347826401
175.922,259.380108437
175.937,259.412167039
175.952,259.444000579
175.967,259.475607437
175.982,259.506985985
175.997,259.5381346
176.012,259.569051657
176.027,259.59973553
176.042,259.630184598
176.057,259.660397236
176.072,259.690371821
176.087,259.720106733
176.102,259.749600349
176.117,259.77885105
176.132,259.807857221
176.147,259.836617242
176.162,259.865129499
176.177,259.893392381
176.192,259.921404273
176.207,259.94916357
176.222,259.976668663
176.237,260.003917951
176.252,260.030909829
176.267,260.057642703
176.282,260.084114974
176.297,260.110325053
176.31,260.13282714
176.312,260.136271348
176.327,260.161952279
176.342,260.187366261
176.357,260.212511719
176.372,260.237387079
176.387,260.261990772
176.402,260.286321236
176.417,260.310376911
176.432,260.334156244
176.447,260.357657683
176.46,260.377799618
176.462,260.380879685
176.477,260.403820714
176.492,260.426479235
176.507,260.448853724
176.522,260.470942659
176.537,260.492744528
176.552,260.51425782
176.567,260.535481039
176.582,260.556412688
176.597,260.577051282
176.612,260.597395341
176.627,260.617443395
176.642,260.63719398
176.657,260.656645641
176.672,260.675796929
176.687,260.694646409
176.702,260.713192647
176.717,260.731434224
176.732,260.749369729
176.747,260.766997757
176.762,260.784316917
176.777,260.801325825
176.792,260.818023109
176.807,260.834407405
176.822,260.850477362
176.837,260.866231636
176.852,260.881668899
176.867,260.89678783
176.882,260.911587122
176.897,260.926065478
176.912,260.940221613
176.927,260.954054255
176.942,260.967562142
176.957,260.980744029
176.972,260.993598679
176.987,261.00612487
177.002,261.018321395
177.017,261.030187058
177.032,261.041720674
177.047,261.05292108
177.062,261.063787119
177.077,261.074317653
177.092,261.084511556
177.107,261.09436772
177.122,261.103885047
177.137,261.113062459
177.152,261.12189889
177.167,261.130393294
177.182,261.138544634
177.197,261.146351898
177.21,261.152839097
177.212,261.153814081
177.227,261.1609302
177.242,261.16769929
177.257,261.174120398
177.272,261.180192592
177.287,261.185914954
177.302,261.191286589
177.31,261.194007748
177.317,261.196306614
177.332,261.200974168
177.347,261.205288404
177.362,261.209248498
177.377,261.212853642
177.392,261.216103045
177.407,261.21899594
177.422,261.221531573
177.437,261.223709215
177.452,261.225528152
177.467,261.226987693
177.482,261.228087163
177.497,261.228825911
177.512,261.229203302
177.527,261.229218727
177.542,261.228871591
177.557,261.228161323
177.572,261.227087372
177.587,261.225649211
177.602,261.223846329
177.617,261.221678237
177.632,261.21914447
177.647,261.216244585
177.66,261.213434873
177.662,261.212978156
177.677,261.209344781
177.692,261.205344082
177.707,261.200975699
177.722,261.196239297
177.737,261.191134562
177.752,261.1856612
177.767,261.179818943
177.782,261.173607543
177.797,261.167026775
177.812,261.160076437
177.827,261.152756348
177.842,261.145066351
177.857,261.137006309
177.872,261.128576112
177.887,261.11977567
177.902,261.110604916
177.917,261.101063805
177.932,261.091152315
177.947,261.080870449
177.96,261.071659923
177.962,261.07021823
177.977,261.059195704
177.992,261.047802942
178.007,261.036040035
178.022,261.023907097
178.037,261.011404267
178.052,260.998531703
178.067,260.985289591
178.082,260.971678132
178.097,260.957697555
178.112,260.943348108
178.127,260.928630065
178.142,260.913543719
178.157,260.898089386
178.172,260.882267403
178.187,260.86607813
178.202,260.849521949
178.217,260.832599262
178.232,260.815310492
178.247,260.797656086
178.262,260.779636508
178.277,260.761252248
178.292,260.742503813
178.307,260.72339173
178.322,260.703916547
178.337,260.684078835
178.352,260.663879181
178.367,260.643318194
178.382,260.6223965
178.397,260.601114747
178.41,260.582379826
178.412,260.5794736
178.427,260.557473743
178.442,260.535115878
178.457,260.512400726
178.472,260.489329025
178.487,260.465901531
178.502,260.442119016
178.517,260.41798227
178.532,260.393492101
178.547,260.368649329
178.562,260.343454793
178.577,260.317909347
178.592,260.292013858
178.607,260.265769211
178.622,260.239176304
178.637,260.212236048
178.652,260.184949368
178.667,260.157317204
178.682,260.129340505
178.697,260.101020236
178.712,260.072357373
178.727,260.043352901
178.742,260.014007819
178.757,259.984323137
178.772,259.954299872
178.787,259.923939052
178.802,259.893241714
178.817,259.862208908
178.832,259.830841683
178.847,259.799141105
178.862,259.767108241
178.877,259.73474417
178.892,259.702049972
178.907,259.669026736
178.922,259.635675555
178.937,259.601997528
178.952,259.567993756
178.967,259.533665345
178.982,259.499013404
178.997,259.464039045
179.012,259.428743381
179.027,259.393127528
179.042,259.357192601
179.057,259.320939717
179.072,259.284369993
179.087,259.247484542
179.102,259.210284481
179.117,259.172770921
179.132,259.134944974
179.147,259.096807744
179.16,259.063504542
179.162,259.058360339
179.177,259.019603856
179.192,258.980539391
179.207,258.941168034
179.222,258.901490871
179.237,258.861508977
179.252,258.821223427
179.267,258.780635284
179.282,258.739745604
179.297,258.698555436
179.312,258.657065819
179.327,258.615277782
179.342,258.573192345
179.357,258.53081052
179.372,258.488133301
179.387,258.445161679
179.402,258.401896626
179.417,258.358339107
179.432,258.314490069
179.447,258.270350451
179.462,258.225921172
179.477,258.181203143
179.492,258.136197256
179.507,258.090904388
179.522,258.045325401
179.537,257.999461142
179.552,257.953312441
179.567,257.906880109
179.582,257.860164941
179.597,257.813167717
179.612,257.765889193
179.627,257.718330113
179.642,257.670491197
179.657,257.622373149
179.672,257.573976653
179.687,257.525302372
179.702,257.476350951
179.717,257.427123012
179.732,257.377619158
179.747,257.327839973
179.762,257.277786016
179.777,257.227457829
179.792,257.176855928
179.807,257.125980811
179.822,257.074832952
179.837,257.023412805
179.852,256.971720801
179.867,256.919757347
179.882,256.86752283
179.897,256.815017614
179.91,256.769294392
179.912,256.76224204
179.927,256.709196427
179.942,256.655881071
179.957,256.602296245
179.972,256.548442202
179.987,256.49431917
180.002,256.439927355
180.017,256.38526694
180.032,256.330338087
180.047,256.275140937
180.062,256.219675605
180.077,256.163942188
180.092,256.107940757
180.107,256.051671367
180.122,255.995134048
180.137,255.938328808
180.152,255.881255638
180.167,255.823914505
180.182,255.766305357
180.197,255.708428123
180.212,255.65028271
180.227,255.591869008
180.242,255.533186888
180.257,255.474236201
180.272,255.41501678
180.287,255.355528444
180.302,255.295770991
180.317,255.235744203
180.332,255.175447848
180.347,255.114881676
180.362,255.054045425
180.377,254.992938815
180.392,254.931561557
180.407,254.869913344
180.422,254.80799386
180.437,254.745802775
180.452,254.683339752
180.467,254.620604438
180.482,254.557596476
180.497,254.494315498
180.512,254.430761126
180.527,254.36693298
180.542,254.302830669
180.557,254.2384538
180.56,254.225545445
180.572,254.173801976
180.587,254.108874793
180.602,254.043671849
180.617,253.978192738
180.632,253.912437056
180.647,253.846404397
180.66,253.788951738
180.662,253.780094359
180.677,253.713506542
180.692,253.646640552
180.707,253.579495998
180.722,253.512072498
180.737,253.444369677
180.752,253.376387167
180.767,253.308124615
180.782,253.239581676
180.797,253.17075802
180.812,253.101653332
180.827,253.032267313
180.842,252.96259968
180.857,252.892650173
180.872,252.822418548
180.887,252.751904588
180.902,252.681108097
180.917,252.610028906
180.932,252.538666874
180.947,252.467021888
180.962,252.395093866
180.977,252.322882762
180.992,252.25038856
181.007,252.177611285
181.022,252.104551
181.037,252.031207807
181.052,251.957581853
181.067,251.883673329
181.082,251.809482473
181.097,251.735009573
181.112,251.66025497
181.127,251.585219058
181.142,251.509902287
181.157,251.434305167
181.172,251.358428269
181.187,251.282272229
181.202,251.205837747
181.217,251.129125596
181.232,251.052136617
181.247,250.974871731
181.262,250.89733193
181.277,250.819518292
181.292,250.741431977
181.307,250.663074229
181.31,250.647370224
181.322,250.584446386
181.337,250.505549874
181.352,250.426386217
181.367,250.346957039
181.382,250.267264066
181.397,250.187309127
181.412,250.107094165
181.427,250.02662123
181.442,249.945892492
181.457,249.864910241
181.472,249.783676888
181.487,249.702194972
181.502,249.620467164
181.517,249.538496267
181.532,249.456285226
181.547,249.373837126
181.562,249.291155199
181.577,249.208242827
181.592,249.125103546
181.607,249.041741052
181.622,248.958159201
181.637,248.874362019
181.652,248.790353701
181.667,248.706138614
181.682,248.62172131
181.697,248.537106521
181.712,248.452299166
181.727,248.367304357
181.742,248.282127401
181.757,248.196773807
181.772,248.111249286
181.787,248.025559758
181.802,247.939711356
181.817,247.853710428
181.832,247.767563544
181.847,247.681277496
181.862,247.594859306
181.877,247.508316225
181.892,247.42165574
181.907,247.334885576
181.922,247.2480137
181.937,247.161048321
181.952,247.073997898
181.967,246.986871137
181.982,246.899676997
181.997,246.812424689
182.012,246.72512368
182.027,246.637783695
182.042,246.550414713
182.057,246.463026974
182.06,246.445548094
182.072,246.375630973
182.087,246.288237463
182.102,246.200857453
182.117,246.113502205
182.132,246.026183235
182.147,245.938912305
182.162,245.851701421
182.177,245.764562831
182.192,245.677509015
182.207,245.590552679
182.222,245.50370675
182.237,245.416984362
182.252,245.33039885
182.267,245.243963735
182.282,245.157692711
182.297,245.071599631
182.312,244.985698486
182.327,244.900003392
182.342,244.814528563
182.357,244.729288289
182.372,244.64429691
182.387,244.559568784
182.402,244.475118258
182.417,244.39095963
182.432,244.307107108
182.447,244.223574765
182.462,244.140376496
182.477,244.057525955
182.492,243.975036501
182.507,243.892921133
182.522,243.811192413
182.537,243.729862386
182.552,243.648942493
182.567,243.56844347
182.582,243.488375239
182.597,243.408746785
182.612,243.329566018
182.627,243.250839626
182.642,243.172572902
182.657,243.094769554
182.672,243.017431494
182.687,242.940558598
182.702,242.864148434
182.717,242.788195959
182.732,242.712693168
182.747,242.637628701
182.762,242.562987391
182.777,242.488749742
182.792,242.414891336
182.807,242.341382135
182.822,242.268185678
182.837,242.195258142
182.852,242.122547232
182.867,242.049990883
182.882,241.977515704
182.897,241.905035131
182.912,241.832447196
182.927,241.759631836
182.942,241.686447607
182.957,241.612727644
182.972,241.538274664
182.987,241.462854725
183.002,241.386189346
183.017,241.307945495
183.032,241.227722692
183.047,241.145036232
183.062,241.059295095
183.077,240.969772449
183.092,240.875565719
183.107,240.775541649
183.122,240.668259403
183.137,240.551860816
183.152,240.42391033
183.167,240.281155813
183.182,240.119161307
183.197,239.93172628
183.212,239.709939646
183.227,239.440603192
183.242,239.103617514
183.257,238.668115364
183.367,238.774781686
183.382,239.178148891
183.397,239.492101943
183.412,239.744368707
183.427,239.952973464
183.442,240.129826334
183.457,240.283030906
183.472,240.418267267
183.487,240.539625561
183.502,240.650121451
183.517,240.752024574
183.532,240.847073989
183.547,240.936623287
183.562,241.021740652
183.577,241.103279336
183.592,241.181928236
183.607,241.258248807
183.622,241.332702429
183.637,241.405670986
183.652,241.477472528
183.667,241.548373353
183.682,241.618597421
183.697,241.688333765
183.712,241.757742389
183.727,241.826958994
183.742,241.896098806
183.757,241.965259701
183.772,242.034524763
183.787,242.103964413
183.802,242.173638172
183.817,242.243596146
183.832,242.313880276
183.847,242.384525394
183.862,242.45556013
183.877,242.527007686
183.892,242.598886501
183.907,242.671210828
183.922,242.743991236
183.937,242.817235044
183.952,242.890946706
183.967,242.965128146
183.982,243.039779051
183.997,243.11489714
184.012,243.190478388
184.027,243.26651724
184.042,243.343006787
184.057,243.41993894
184.072,243.49730457
184.087,243.575093641
184.102,243.653295334
184.117,243.731898149
184.132,243.810890001
184.147,243.890258312
184.162,243.969990084
184.177,244.050071974
184.192,244.130490356
184.207,244.211231379
184.222,244.292281021
184.237,244.373625137
184.252,244.4552495
184.267,244.53713984
184.282,244.619281881
184.297,244.701661374
184.312,244.784264119
184.327,244.867076001
184.342,244.950083002
184.357,245.033271232
184.372,245.116626942
184.387,245.200136541
184.402,245.283786612
184.417,245.367563926
184.432,245.451455452
184.447,245.535448368
184.462,245.61953007
184.477,245.703688178
184.492,245.787910545
184.507,245.872185263
184.522,245.956500663
184.537,246.040845326
184.552,246.12520808
184.56,246.170205164
184.567,246.209578003
184.582,246.29394443
184.597,246.378296946
184.612,246.462625395
184.627,246.546919871
184.642,246.631170725
184.657,246.715368562
184.672,246.799504236
184.687,246.883568854
184.702,246.967553771
184.717,247.051450587
184.732,247.135251147
184.747,247.218947535
184.762,247.302532078
184.777,247.385997331
184.792,247.469336088
184.807,247.552541365
184.822,247.635606406
184.837,247.718524678
184.852,247.80128986
184.867,247.883895849
184.882,247.966336751
184.897,248.048606876
184.912,248.130700738
184.927,248.212613045
184.942,248.294338703
184.957,248.375872805
184.972,248.45721063
184.987,248.538347638
185.002,248.619279467
185.017,248.700001926
185.032,248.780510997
185.047,248.860802824
185.062,248.940873712
185.077,249.020720125
185.092,249.100338678
185.107,249.179726138
185.122,249.258879414
185.137,249.337795559
185.152,249.416471762
185.167,249.494905349
185.182,249.573093772
185.197,249.651034612
185.212,249.728725575
185.227,249.806164483
185.242,249.883349276
185.257,249.960278008
185.272,250.036948839
185.287,250.113360038
185.302,250.189509976
185.31,250.230015918
185.317,250.265397124
185.332,250.341020048
185.347,250.41637741
185.362,250.491467962
185.377,250.566290541
185.392,250.640844071
185.407,250.71512756
185.422,250.78914009
185.437,250.862880823
185.452,250.936348995
185.467,251.009543911
185.482,251.082464948
185.497,251.155111545
185.512,251.227483209
185.527,251.299579505
185.542,251.371400059
185.557,251.442944554
185.572,251.514212727
185.587,251.585204368
185.602,251.655919317
185.617,251.726357463
185.632,251.79651874
185.647,251.866403127
185.662,251.936010648
185.677,252.005341363
185.692,252.074395374
185.707,252.14317282
185.722,252.211673873
185.737,252.279898742
185.752,252.347847664
185.767,252.415520911
185.782,252.482918779
185.797,252.550041596
185.812,252.616889711
185.827,252.683463501
185.842,252.749763365
185.857,252.815789722
185.872,252.881543013
185.887,252.947023698
185.902,253.012232253
185.917,253.077169172
185.932,253.141834964
185.947,253.20623015
185.96,253.261820836
185.962,253.270355267
185.977,253.334210863
185.992,253.397797495
186.007,253.46111573
186.022,253.524166146
186.037,253.586949325
186.052,253.649465859
186.06,253.682699189
186.067,253.711716345
186.082,253.773701384
186.097,253.835421579
186.112,253.896877542
186.127,253.95806988
186.142,254.018999208
186.157,254.079666136
186.172,254.140071278
186.187,254.200215246
186.202,254.26009865
186.217,254.319722097
186.232,254.379086193
186.247,254.438191539
186.262,254.497038732
186.277,254.555628366
186.292,254.613961025
186.307,254.672037294
186.322,254.729857745
186.337,254.787422945
186.352,254.844733457
186.367,254.901789831
186.382,254.958592612
186.397,255.015142332
186.412,255.071439519
186.427,255.127484687
186.442,255.183278341
186.457,255.238820977
186.472,255.294113078
186.487,255.349155118
186.502,255.403947556
186.517,255.458490842
186.532,255.512785413
186.547,255.566831692
186.562,255.620630093
186.577,255.674181013
186.592,255.727484838
186.607,255.780541939
186.622,255.833352676
186.637,255.885917392
186.652,255.938236419
186.667,255.990310072
186.682,256.042138653
186.697,256.093722451
186.71,256.138230616
186.712,256.145061736
186.727,256.196156771
186.742,256.247007796
186.757,256.297615041
186.772,256.34797872
186.787,256.398099033
186.802,256.447976161
186.817,256.497610277
186.832,256.547001532
186.847,256.596150066
186.862,256.645056004
186.877,256.693719454
186.892,256.742140511
186.907,256.790319254
186.922,256.838255747
186.937,256.88595004
186.952,256.933402169
186.967,256.980612153
186.982,257.027579999
186.997,257.074305698
187.012,257.120789227
187.027,257.167030551
187.042,257.213029619
187.057,257.258786364
187.072,257.304300711
187.087,257.349572565
187.102,257.394601823
187.117,257.439388367
187.132,257.483932065
187.147,257.528232773
187.162,257.572290336
187.177,257.616104583
187.192,257.659675335
187.207,257.703002398
187.222,257.746085569
187.237,257.788924629
187.252,257.831519355
187.267,257.873869507
187.282,257.915974837
187.297,257.957835086
187.312,257.999449985
187.327,258.040819254
187.342,258.081942607
187.357,258.122819746
187.372,258.163450363
187.387,258.203834143
187.402,258.243970763
187.417,258.283859891
187.432,258.323501189
187.447,258.362894307
187.46,258.396833989
187.462,258.402038895
187.477,258.440934588
187.492,258.479581021
187.507,258.517977821
187.522,258.556124606
187.537,258.594020993
187.552,258.631666591
187.567,258.669061006
187.582,258.706203837
187.597,258.74309468
187.612,258.779733127
187.627,258.816118767
187.642,258.852251186
187.657,258.888129966
187.672,258.923754685
187.687,258.959124922
187.702,258.994240254
187.717,259.029100251
187.732,259.063704489
187.747,259.098052538
187.762,259.132143971
187.777,259.165978356
187.792,259.199555265
187.807,259.232874269
187.822,259.26593494
187.837,259.29873685
187.852,259.331279574
187.867,259.363562687
187.882,259.395585766
187.897,259.427348392
187.912,259.458850146
187.927,259.490090613
187.942,259.521069382
187.957,259.551786044
187.972,259.582240194
187.987,259.612431431
188.002,259.64235936
188.017,259.672023588
188.032,259.701423727
188.047,259.730559397
188.062,259.759430221
188.077,259.788035827
188.092,259.81637585
188.107,259.844449931
188.122,259.872257719
188.137,259.899798867
188.152,259.927073037
188.167,259.954079896
188.182,259.98081912
188.197,260.007290393
188.21,260.03001518
188.212,260.033493404
188.227,260.059427855
188.242,260.085093452
188.257,260.110489911
188.272,260.135616956
188.287,260.160474321
188.302,260.185061749
188.317,260.209378992
188.332,260.233425809
188.347,260.257201974
188.362,260.280707267
188.377,260.303941477
188.392,260.326904406
188.407,260.349595866
188.422,260.372015679
188.437,260.394163675
188.452,260.4160397
188.467,260.437643606
188.482,260.45897526
188.497,260.480034536
188.512,260.500821324
188.527,260.521335521
188.542,260.541577038
188.557,260.561545798
188.572,260.581241734
188.587,260.600664793
188.602,260.61981493
188.617,260.638692118
188.632,260.657296337
188.647,260.675627583
188.66,260.69129386
188.662,260.69368586
188.677,260.711471187
188.692,260.728983597
188.707,260.746223132
188.722,260.763189848
188.737,260.779883814
