# 48698 WSSS Singapore Observations at 12Z 05 Dec 2019
Frequency [GHz],TB
175.31,274.522338399
175.322,274.50101054
175.337,274.474285179
175.352,274.447486738
175.367,274.420614925
175.382,274.393669448
175.397,274.366650027
175.412,274.339556357
175.427,274.312388142
175.442,274.285145104
175.457,274.257826919
175.472,274.230433299
175.487,274.202963951
175.502,274.175418544
175.517,274.147796804
175.532,274.120098385
175.547,274.092323011
175.562,274.064470349
175.577,274.036540099
175.592,274.008531932
175.607,273.980445525
175.622,273.95228058
175.637,273.924036754
175.652,273.895713731
175.667,273.867311177
175.682,273.838828771
175.697,273.810266186
175.712,273.781623074
175.727,273.752899112
175.742,273.724093958
175.757,273.695207275
175.772,273.666238719
175.787,273.63718795
175.802,273.608054612
175.817,273.578838364
175.832,273.549538868
175.847,273.520155742
175.862,273.490688665
175.877,273.461137251
175.892,273.431501156
175.907,273.401780014
175.922,273.371973465
175.937,273.342081135
175.952,273.312102669
175.967,273.282037676
175.982,273.251885806
175.997,273.221646661
176.012,273.191319876
176.027,273.160905069
176.042,273.13040186
176.057,273.099809856
176.072,273.06912867
176.087,273.038357921
176.102,273.007497208
176.117,272.976546144
176.132,272.945504327
176.147,272.914371345
176.162,272.883146818
176.177,272.851830324
176.192,272.820421464
176.207,272.788919826
176.222,272.757324996
176.237,272.725636558
176.252,272.693854092
176.267,272.66197719
176.282,272.630005414
176.297,272.597938342
176.31,272.570069472
176.312,272.565775549
176.327,272.533516605
176.342,272.501161077
176.357,272.468708524
176.372,272.4361585
176.387,272.403510578
176.402,272.370764304
176.417,272.337919237
176.432,272.304974922
176.447,272.271930904
176.46,272.243211756
176.462,272.23878673
176.477,272.205541943
176.492,272.172196081
176.507,272.138748682
176.522,272.10519927
176.537,272.071547385
176.552,272.037792547
176.567,272.003934286
176.582,271.969972122
176.597,271.935905564
176.612,271.90173414
176.627,271.867457359
176.642,271.833074727
176.657,271.79858575
176.672,271.76398994
176.687,271.729286786
176.702,271.694475796
176.717,271.659556457
176.732,271.624528257
176.747,271.589390688
176.762,271.554143246
176.777,271.518785395
176.792,271.483316623
176.807,271.447736405
176.822,271.412044215
176.837,271.376239512
176.852,271.340321782
176.867,271.304290471
176.882,271.268145043
176.897,271.231884948
176.912,271.195509657
176.927,271.159018612
176.942,271.122411249
176.957,271.085687021
176.972,271.048845358
176.987,271.011885713
177.002,270.974807509
177.017,270.937610177
177.032,270.900293148
177.047,270.862855846
177.062,270.825297676
177.077,270.787618075
177.092,270.749816435
177.107,270.711892181
177.122,270.673844711
177.137,270.635673429
177.152,270.597377741
177.167,270.558957031
177.182,270.520410708
177.197,270.481738142
177.21,270.448119334
177.212,270.442938726
177.227,270.404011837
177.242,270.364956856
177.257,270.325773166
177.272,270.286460123
177.287,270.2470171
177.302,270.207443465
177.31,270.18628389
177.317,270.167738564
177.332,270.127901766
177.347,270.08793242
177.362,270.047829871
177.377,270.007593463
177.392,269.967222546
177.407,269.926716448
177.422,269.88607451
177.437,269.845296059
177.452,269.804380413
177.467,269.763326906
177.482,269.722134846
177.497,269.680803569
177.512,269.639332358
177.527,269.597720535
177.542,269.555967404
177.557,269.514072258
177.572,269.472034392
177.587,269.429853111
177.602,269.387527681
177.617,269.345057409
177.632,269.302441546
177.647,269.259679398
177.66,269.222499959
177.662,269.216770215
177.677,269.173713276
177.692,269.130507845
177.707,269.087153185
177.722,269.043648538
177.737,268.999993161
177.752,268.956186305
177.767,268.912227222
177.782,268.868115134
177.797,268.823849294
177.812,268.779428922
177.827,268.734853249
177.842,268.690121493
177.857,268.645232892
177.872,268.600186644
177.887,268.554981962
177.902,268.509618054
177.917,268.46409413
177.932,268.418409382
177.947,268.372563007
177.96,268.332698117
177.962,268.326554194
177.977,268.280382131
177.992,268.234045998
178.007,268.187544983
178.022,268.140878242
178.037,268.094044955
178.052,268.04704429
178.067,267.999875405
178.082,267.952537452
178.097,267.905029598
178.112,267.857350972
178.127,267.809500734
178.142,267.761478016
178.157,267.713281961
178.172,267.664911695
178.187,267.616366348
178.202,267.567645038
178.217,267.518746894
178.232,267.469671014
178.247,267.420416529
178.262,267.37098253
178.277,267.321368131
178.292,267.271572416
178.307,267.221594489
178.322,267.171433428
178.337,267.121088327
178.352,267.070558269
178.367,267.019842322
178.382,266.968939559
178.397,266.91784905
178.41,266.873418022
178.412,266.866569866
178.427,266.815101052
178.442,266.763441667
178.457,266.711590766
178.472,266.659547391
178.487,266.607310589
178.502,266.55487939
178.517,266.502252841
178.532,266.449429954
178.547,266.396409762
178.562,266.343191286
178.577,266.289773542
178.592,266.236155543
178.607,266.182336292
178.622,266.128314796
178.637,266.07409006
178.652,266.019661063
178.667,265.965026813
178.682,265.91018629
178.697,265.855138476
178.712,265.799882343
178.727,265.744416871
178.742,265.688741034
178.757,265.632853786
178.772,265.576754094
178.787,265.520440919
178.802,265.46391321
178.817,265.407169916
178.832,265.350209976
178.847,265.293032336
178.862,265.235635933
178.877,265.17801969
178.892,265.12018254
178.907,265.062123415
178.922,265.003841222
178.937,264.945334866
178.952,264.886603288
178.967,264.827645368
178.982,264.768460029
178.997,264.70904615
179.012,264.649402637
179.027,264.589528373
179.042,264.529422246
179.057,264.469083139
179.072,264.40850993
179.087,264.347701483
179.102,264.286656686
179.117,264.22537439
179.132,264.163853455
179.147,264.102092738
179.16,264.048371947
179.162,264.040091104
179.177,263.977847386
179.192,263.915360432
179.207,263.852629076
179.222,263.789652167
179.237,263.726428529
179.252,263.662956981
179.267,263.599236362
179.282,263.535265482
179.297,263.471043148
179.312,263.406568182
179.327,263.341839387
179.342,263.276855555
179.357,263.211615482
179.372,263.146117974
179.387,263.080361807
179.402,263.014345766
179.417,262.948068635
179.432,262.881529178
179.447,262.814726171
179.462,262.747658388
179.477,262.680324564
179.492,262.612723473
179.507,262.544853861
179.522,262.476714469
179.537,262.408304047
179.552,262.339621312
179.567,262.270665016
179.582,262.20143387
179.597,262.131926583
179.612,262.062141893
179.627,261.992078498
179.642,261.921735103
179.657,261.851110392
179.672,261.780203068
179.687,261.709011817
179.702,261.637535308
179.717,261.565772219
179.732,261.493721218
179.747,261.421380965
179.762,261.348750112
179.777,261.275827311
179.792,261.20261119
179.807,261.129100381
179.822,261.055293522
179.837,260.98118921
179.852,260.906786072
179.867,260.832082695
179.882,260.757077681
179.897,260.681769603
179.91,260.61625636
179.912,260.606157038
179.927,260.530238564
179.942,260.454012729
179.957,260.377478071
179.972,260.300633135
179.987,260.223476449
180.002,260.146006524
180.017,260.068221866
180.032,259.990120967
180.047,259.911702305
180.062,259.832964352
180.077,259.753905568
180.092,259.674524388
180.107,259.59481924
180.122,259.514788555
180.137,259.434430718
180.152,259.353744124
180.167,259.272727129
180.182,259.191378113
180.197,259.109695397
180.212,259.027677304
180.227,258.945322147
180.242,258.862628186
180.257,258.779593719
180.272,258.69621697
180.287,258.612496175
180.302,258.528429527
180.317,258.444015226
180.332,258.359251422
180.347,258.274136248
180.362,258.188667831
180.377,258.102844251
180.392,258.016663571
180.407,257.930123825
180.422,257.843223026
180.437,257.755959153
180.452,257.66833015
180.467,257.580333945
180.482,257.491968424
180.497,257.403231442
180.512,257.314120818
180.527,257.224634358
180.542,257.134769801
180.557,257.044524854
180.56,257.026430016
180.572,256.953897215
180.587,256.862884514
180.602,256.771484353
180.617,256.679694286
180.632,256.587511833
180.647,256.494934468
180.66,256.414379309
180.662,256.401959599
180.677,256.308584624
180.692,256.214806876
180.707,256.12062363
180.722,256.026032119
180.737,255.931029523
180.752,255.835612967
180.767,255.73977953
180.782,255.643526223
180.797,255.546850005
180.812,255.449747782
180.827,255.352216386
180.842,255.254252601
180.857,255.155853138
180.872,255.057014637
180.887,254.957733694
180.902,254.858006818
180.917,254.757830455
180.932,254.657200983
180.947,254.556114709
180.962,254.45456785
180.977,254.352556572
180.992,254.250076947
181.007,254.147124984
181.022,254.043696596
181.037,253.939787632
181.052,253.83539385
181.067,253.730510927
181.082,253.62513446
181.097,253.519259951
181.112,253.41288283
181.127,253.305998431
181.142,253.198602006
181.157,253.090688708
181.172,252.982253624
181.187,252.873291714
181.202,252.763797884
181.217,252.653766926
181.232,252.543193548
181.247,252.43207238
181.262,252.320397939
181.277,252.208164657
181.292,252.09536688
181.307,251.981998856
181.31,251.959256313
181.322,251.868054762
181.337,251.753528663
181.352,251.638414546
181.367,251.522706302
181.382,251.40639775
181.397,251.289482611
181.412,251.171954541
181.427,251.053807094
181.442,250.935033756
181.457,250.815627937
181.472,250.695582973
181.487,250.574892137
181.502,250.453548609
181.517,250.331545542
181.532,250.208876
181.547,250.085533012
181.562,249.961509536
181.577,249.836798504
181.592,249.711392798
181.607,249.585285262
181.622,249.458468722
181.637,249.330935973
181.652,249.202679785
181.667,249.073692951
181.682,248.94396823
181.697,248.81349839
181.712,248.682276242
181.727,248.550294598
181.742,248.417546303
181.757,248.284024254
181.772,248.149721413
181.787,248.014630763
181.802,247.878745412
181.817,247.74205853
181.832,247.60456339
181.847,247.466253369
181.862,247.32712199
181.877,247.187162881
181.892,247.046369863
181.907,246.904736896
181.922,246.76225813
181.937,246.61892791
181.952,246.474740808
181.967,246.329691616
181.982,246.183775371
181.997,246.036987399
182.012,245.889323296
182.027,245.740778961
182.042,245.59135063
182.057,245.441034876
182.06,245.410864969
182.072,245.289828657
182.087,245.137729306
182.102,244.984734571
182.117,244.830842652
182.132,244.676052191
182.147,244.520362354
182.162,244.363772789
182.177,244.20628371
182.192,244.047895903
182.207,243.888610758
182.222,243.728430316
182.237,243.567357283
182.252,243.40539507
182.267,243.242547842
182.282,243.078820575
182.297,242.914219041
182.312,242.748749917
182.327,242.582420784
182.342,242.415240223
182.357,242.247217827
182.372,242.078364287
182.387,241.908691457
182.402,241.738212385
182.417,241.566941418
182.432,241.394894264
182.447,241.222088092
182.462,241.048541578
182.477,240.874275033
182.492,240.69931049
182.507,240.523671805
182.522,240.347384762
182.537,240.170477224
182.552,239.992979215
182.567,239.814923086
182.582,239.636343642
182.597,239.457278296
182.612,239.277767213
182.627,239.097853507
182.642,238.917583353
182.657,238.737006215
182.672,238.556175005
182.687,238.375146253
182.702,238.193980325
182.717,238.012741571
182.732,237.831498521
182.747,237.650324055
182.762,237.469295594
182.777,237.288495191
182.792,237.108009703
182.807,236.927930873
182.822,236.748355363
182.837,236.569384811
182.852,236.39112576
182.867,236.213689506
182.882,236.037191941
182.897,235.861753191
182.912,235.687497165
182.927,235.514550945
182.942,235.343043952
182.957,235.173106915
182.972,235.004870509
182.987,234.838463663
183.002,234.674011413
183.017,234.511632282
183.032,234.35143488
183.047,234.193513797
183.062,234.037944328
183.077,233.884775965
183.092,233.734024068
183.107,233.585659604
183.122,233.439596233
183.137,233.295674827
183.152,233.153645715
183.167,233.013151425
183.182,232.873717227
183.197,232.734768733
183.212,232.595721427
183.227,232.456240514
183.242,232.316863224
183.257,232.180282988
183.367,232.200812773
183.382,232.335072264
183.397,232.471170794
183.412,232.607127411
183.427,232.742712809
183.442,232.878363209
183.457,233.014674401
183.472,233.152198642
183.487,233.291379818
183.502,233.43254552
183.517,233.575919631
183.532,233.721640139
183.547,233.869776465
183.562,234.020344254
183.577,234.173317591
183.592,234.328638767
183.607,234.486226071
183.622,234.645979975
183.637,234.807788076
183.652,234.97152904
183.667,235.13707574
183.682,235.304297796
183.697,235.473063577
183.712,235.643241782
183.727,235.814702777
183.742,235.987319498
183.757,236.160968297
183.772,236.335529448
183.787,236.510887608
183.802,236.686932138
183.817,236.863557214
183.832,237.040662015
183.847,237.218150673
183.862,237.395932328
183.877,237.573921001
183.892,237.752035527
183.907,237.930199395
183.922,238.108340623
183.937,238.286391538
183.952,238.464288673
183.967,238.641972538
183.982,238.819387446
183.997,238.996481305
184.012,239.173205466
184.027,239.349514522
184.042,239.52536615
184.057,239.70072092
184.072,239.875542141
184.087,240.049795705
184.102,240.223449944
184.117,240.39647547
184.132,240.568845066
184.147,240.740533533
184.162,240.911517607
184.177,241.081775792
184.192,241.251288339
184.207,241.420037021
184.222,241.588005196
184.237,241.755177588
184.252,241.921540276
184.267,242.087080607
184.282,242.251787112
184.297,242.415649443
184.312,242.578658328
184.327,242.740805493
184.342,242.90208362
184.357,243.062486291
184.372,243.222007936
184.387,243.380643801
184.402,243.538389884
184.417,243.695242926
184.432,243.851200342
184.447,244.006260211
184.462,244.160421209
184.477,244.313682629
184.492,244.466044297
184.507,244.617506574
184.522,244.768070312
184.537,244.917736851
184.552,245.066507956
184.56,245.145487163
184.567,245.214385838
184.582,245.361373081
184.597,245.507472677
184.612,245.652687943
184.627,245.797022555
184.642,245.940480475
184.657,246.083066007
184.672,246.22478367
184.687,246.3656383
184.702,246.505634933
184.717,246.644778859
184.732,246.783075555
184.747,246.9205307
184.762,247.057150159
184.777,247.192939955
184.792,247.327906255
184.807,247.462055366
184.822,247.595393733
184.837,247.727927892
184.852,247.859664483
184.867,247.990610257
184.882,248.120772007
184.897,248.250156619
184.912,248.378771025
184.927,248.506622208
184.942,248.633717183
184.957,248.760063002
184.972,248.885666722
184.987,249.010535439
185.002,249.13467623
185.017,249.258096183
185.032,249.380802369
185.047,249.502801851
185.062,249.62410166
185.077,249.744708815
185.092,249.864630285
185.107,249.983873015
185.122,250.102443903
185.137,250.220349786
185.152,250.337597481
185.167,250.45419372
185.182,250.570145191
185.197,250.685458505
185.212,250.800140227
185.227,250.914196859
185.242,251.027634809
185.257,251.140460415
185.272,251.25267996
185.287,251.364299644
185.302,251.475325568
185.31,251.534298708
185.317,251.585763786
185.332,251.695620242
185.347,251.804900814
185.362,251.913611293
185.377,252.021757385
185.392,252.129344715
185.407,252.236378826
185.422,252.342865173
185.437,252.448809119
185.452,252.554215946
185.467,252.659090862
185.482,252.76343897
185.497,252.867265303
185.512,252.970574814
185.527,253.073372356
185.542,253.175662707
185.557,253.277450567
185.572,253.378740551
185.587,253.479537184
185.602,253.579844936
185.617,253.679668167
185.632,253.779011171
185.647,253.877878181
185.662,253.976273325
185.677,254.074200675
185.692,254.171664231
185.707,254.268667914
185.722,254.365215565
185.737,254.461310967
185.752,254.556957828
185.767,254.652159803
185.782,254.746920441
185.797,254.841243274
185.812,254.935131746
185.827,255.028589226
185.842,255.121619053
185.857,255.214224478
185.872,255.306408711
185.887,255.398174884
185.902,255.489526102
185.917,255.580465378
185.932,255.670995714
185.947,255.761120018
185.96,255.838901549
185.962,255.850841183
185.977,255.94016202
185.992,256.029085307
186.007,256.117613782
186.022,256.205750118
186.037,256.293496958
186.052,256.380856894
186.06,256.427291541
186.067,256.467832469
186.082,256.554426205
186.097,256.64064056
186.112,256.72647796
186.127,256.811940798
186.142,256.897031421
186.157,256.981752157
186.172,257.06610527
186.187,257.15009301
186.202,257.233717596
186.217,257.316981193
186.232,257.399885958
186.247,257.482433998
186.262,257.564627408
186.277,257.646468244
186.292,257.727958533
186.307,257.809100276
186.322,257.889895446
186.337,257.970345996
186.352,258.050453848
186.367,258.130220902
186.382,258.209649026
186.397,258.288740086
186.412,258.367495915
186.427,258.445918307
186.442,258.524009056
186.457,258.601769934
186.472,258.679202684
186.487,258.756309042
186.502,258.833090716
186.517,258.909549396
186.532,258.985686751
186.547,259.061504448
186.562,259.137004129
186.577,259.212187411
186.592,259.287055908
186.607,259.36161122
186.622,259.435854917
186.637,259.509788572
186.652,259.583413736
186.667,259.656731948
186.682,259.729744733
186.697,259.802453598
186.71,259.865223273
186.712,259.87486005
186.727,259.946965575
186.742,260.018771654
186.757,260.090279743
186.772,260.161491307
186.787,260.232407785
186.802,260.303030605
186.817,260.373361197
186.832,260.443400978
186.847,260.513151344
186.862,260.58261368
186.877,260.651789389
186.892,260.720679834
186.907,260.789286387
186.922,260.85761041
186.937,260.925653243
186.952,260.99341623
186.967,261.060900703
186.982,261.128108
186.997,261.195039431
187.012,261.261696298
187.027,261.328079916
187.042,261.394191584
187.057,261.460032572
187.072,261.525604188
187.087,261.590907682
187.102,261.655944337
187.117,261.720715411
187.132,261.785222163
187.147,261.849465835
187.162,261.913447675
187.177,261.977168917
187.192,262.040630796
187.207,262.103834525
187.222,262.166781339
187.237,262.229472432
187.252,262.291909038
187.267,262.35409232
187.282,262.416023509
187.297,262.477703786
187.312,262.539134315
187.327,262.600316302
187.342,262.661250906
187.357,262.721939303
187.372,262.782382653
187.387,262.842582117
187.402,262.90253884
187.417,262.962253981
187.432,263.021728676
187.447,263.080964059
187.46,263.132108701
187.462,263.139961277
187.477,263.198721442
187.492,263.257245689
187.507,263.315535125
187.522,263.373590875
187.537,263.43141404
187.552,263.489005722
187.567,263.54636702
187.582,263.603499037
187.597,263.660402853
187.612,263.717079551
187.627,263.773530222
187.642,263.829755932
187.657,263.885757758
187.672,263.941536755
187.687,263.997093991
187.702,264.052430531
187.717,264.107547411
187.732,264.162445691
187.747,264.217126405
187.762,264.271590604
187.777,264.325839305
187.792,264.379873547
187.807,264.433694356
187.822,264.487302755
187.837,264.540699747
187.852,264.593886356
187.867,264.646863587
187.882,264.69963244
187.897,264.752193913
187.912,264.804548994
187.927,264.856698683
187.942,264.908643967
187.957,264.96038581
187.972,265.011925205
187.987,265.063263112
188.002,265.114400506
188.017,265.16533834
188.032,265.216077584
188.047,265.266619189
188.062,265.316964101
188.077,265.367113272
188.092,265.417067636
188.107,265.466828127
188.122,265.516395691
188.137,265.565771248
188.152,265.614955721
188.167,265.663950029
188.182,265.712755091
188.197,265.761371814
188.21,265.803354669
188.212,265.809801111
188.227,265.858043876
188.242,265.906101015
188.257,265.953973419
188.272,266.001661977
188.287,266.04916758
188.302,266.0964911
188.317,266.14363342
188.332,266.190595416
188.347,266.237377942
188.362,266.283981881
188.377,266.330408081
188.392,266.376657402
188.407,266.422730699
188.422,266.468628812
188.437,266.514352598
188.452,266.55990288
188.467,266.605280505
188.482,266.650486299
188.497,266.695521095
188.512,266.740385709
188.527,266.785080967
188.542,266.829607676
188.557,266.873966651
188.572,266.9181587
188.587,266.962184621
188.602,267.006045223
188.617,267.049741293
188.632,267.093273615
188.647,267.136642989
188.66,267.174098572
188.662,267.179850194
188.677,267.222896004
188.692,267.265781191
188.707,267.308506536
188.722,267.3510728
188.737,267.393480747
