# 01004 ENAS Ny-Alesund Ii Observations at 12Z 01 Aug 2020
Frequency [GHz],TB
175.31,274.112260082
175.322,274.111481211
175.337,274.110378674
175.352,274.109132617
175.367,274.10774278
175.382,274.1062089
175.397,274.104530715
175.412,274.102707979
175.427,274.100740435
175.442,274.098627843
175.457,274.096369955
175.472,274.093966527
175.487,274.091417329
175.502,274.088722119
175.517,274.085880666
175.532,274.082892752
175.547,274.079758144
175.562,274.076476621
175.577,274.073047968
175.592,274.069471965
175.607,274.065748408
175.622,274.06187708
175.637,274.057857784
175.652,274.053690312
175.667,274.049374469
175.682,274.044910059
175.697,274.040296887
175.712,274.03553477
175.727,274.030623519
175.742,274.025562953
175.757,274.020352887
175.772,274.014993153
175.787,274.009483573
175.802,274.003823983
175.817,273.998014212
175.832,273.992054098
175.847,273.985943483
175.862,273.979682208
175.877,273.973270119
175.892,273.966707066
175.907,273.959992901
175.922,273.953127483
175.937,273.946110664
175.952,273.938942312
175.967,273.931622291
175.982,273.924150465
175.997,273.916526711
176.012,273.908750892
176.027,273.900822892
176.042,273.892742593
176.057,273.88450987
176.072,273.876124613
176.087,273.867586705
176.102,273.858896043
176.117,273.850052515
176.132,273.841056018
176.147,273.83190645
176.162,273.822603718
176.177,273.813147723
176.192,273.803538365
176.207,273.79377556
176.222,273.783859216
176.237,273.773789245
176.252,273.763565568
176.267,273.753188096
176.282,273.742656759
176.297,273.731971471
176.31,273.722586306
176.312,273.721132163
176.327,273.710138756
176.342,273.698991184
176.357,273.687689378
176.372,273.676233267
176.387,273.664622788
176.402,273.652857876
176.417,273.640938469
176.432,273.628864513
176.447,273.616635939
176.46,273.605912739
176.462,273.604252698
176.477,273.591714739
176.492,273.579021995
176.507,273.56617442
176.522,273.553171963
176.537,273.540014575
176.552,273.526702202
176.567,273.5132348
176.582,273.499612323
176.597,273.485834717
176.612,273.471901948
176.627,273.457813963
176.642,273.443570724
176.657,273.429172183
176.672,273.414618295
176.687,273.399909021
176.702,273.385044321
176.717,273.37002415
176.732,273.354848465
176.747,273.339517225
176.762,273.324030388
176.777,273.308387913
176.792,273.292589756
176.807,273.276635879
176.822,273.26052623
176.837,273.244260768
176.852,273.227839454
176.867,273.211262238
176.882,273.194529076
176.897,273.17763992
176.912,273.160594724
176.927,273.143393431
176.942,273.126036
176.957,273.108522372
176.972,273.0908525
176.987,273.073026323
177.002,273.055043785
177.017,273.036904829
177.032,273.018609394
177.047,273.000157416
177.062,272.981548835
177.077,272.962783577
177.092,272.943861574
177.107,272.924782754
177.122,272.905547042
177.137,272.886154365
177.152,272.866604632
177.167,272.846897767
177.182,272.827033682
177.197,272.807012283
177.21,272.789533087
177.212,272.78683348
177.227,272.766497175
177.242,272.746003265
177.257,272.725351649
177.272,272.704542212
177.287,272.683574846
177.302,272.662449434
177.31,272.65111788
177.317,272.641165853
177.332,272.619723974
177.347,272.598123675
177.362,272.576364813
177.377,272.554447252
177.392,272.532370845
177.407,272.510135441
177.422,272.487740888
177.437,272.465187021
177.452,272.442473675
177.467,272.419600682
177.482,272.396567856
177.497,272.373375019
177.512,272.350021979
177.527,272.326508541
177.542,272.302834502
177.557,272.278999651
177.572,272.255003775
177.587,272.230846652
177.602,272.20652805
177.617,272.182047736
177.632,272.157405463
177.647,272.132600983
177.66,272.110972358
177.662,272.107634036
177.677,272.082504356
177.692,272.057211669
177.707,272.031755701
177.722,272.006136149
177.737,271.980352726
177.752,271.954405126
177.767,271.928293032
177.782,271.902016116
177.797,271.875574058
177.812,271.848966512
177.827,271.822193131
177.842,271.795253553
177.857,271.768147418
177.872,271.740874345
177.887,271.713433946
177.902,271.685825832
177.917,271.658049594
177.932,271.63010482
177.947,271.601991082
177.96,271.577488836
177.962,271.573707946
177.977,271.545254972
177.992,271.516631702
178.007,271.487837669
178.022,271.458872397
178.037,271.429735399
178.052,271.400426182
178.067,271.370944234
178.082,271.341289035
178.097,271.311460063
178.112,271.281456766
178.127,271.251278597
178.142,271.220924988
178.157,271.190395366
178.172,271.159689144
178.187,271.128805724
178.202,271.097744492
178.217,271.066504823
178.232,271.035086087
178.247,271.003487637
178.262,270.971708812
178.277,270.939748935
178.292,270.907607331
178.307,270.875283297
178.322,270.842776124
178.337,270.810085095
178.352,270.777209468
178.367,270.744148493
178.382,270.710901417
178.397,270.677467462
178.41,270.648339597
178.412,270.643845842
178.427,270.610035754
178.442,270.576036389
178.457,270.541846909
178.472,270.507466483
178.487,270.472894252
178.502,270.438129345
178.517,270.403170883
178.532,270.368017974
178.547,270.3326697
178.562,270.297125141
178.577,270.261383361
178.592,270.225443403
178.607,270.189304299
178.622,270.152965076
178.637,270.11642473
178.652,270.079682257
178.667,270.04273663
178.682,270.00558681
178.697,269.968231744
178.712,269.930670363
178.727,269.892901586
178.742,269.854924313
178.757,269.81673743
178.772,269.77833981
178.787,269.739730309
178.802,269.700907774
178.817,269.661871024
178.832,269.622618876
178.847,269.583150122
178.862,269.543463545
178.877,269.503557909
178.892,269.463431969
178.907,269.423084453
178.922,269.382514081
178.937,269.341719554
178.952,269.300699567
178.967,269.259452783
178.982,269.217977862
178.997,269.176273442
179.012,269.134338149
179.027,269.092170586
179.042,269.049769351
179.057,269.007133016
179.072,268.964260139
179.087,268.921149268
179.102,268.877798925
179.117,268.834207623
179.132,268.790373856
179.147,268.746296103
179.16,268.707896838
179.162,268.701972824
179.177,268.657402464
179.192,268.612583446
179.207,268.567514186
179.222,268.522193081
179.237,268.476618509
179.252,268.430788819
179.267,268.38470237
179.282,268.338357477
179.297,268.291752461
179.312,268.244885605
179.327,268.19775519
179.342,268.150359471
179.357,268.102696697
179.372,268.05476508
179.387,268.006562835
179.402,267.958088148
179.417,267.909339188
179.432,267.860314113
179.447,267.811011055
179.462,267.761428133
179.477,267.711563452
179.492,267.661415086
179.507,267.610981111
179.522,267.560259562
179.537,267.509248473
179.552,267.457945856
179.567,267.406349699
179.582,267.354457977
179.597,267.302268648
179.612,267.249779648
179.627,267.196988894
179.642,267.143894284
179.657,267.090493707
179.672,267.036785014
179.687,266.982766061
179.702,266.928434664
179.717,266.873788634
179.732,266.818825753
179.747,266.763543797
179.762,266.7079405
179.777,266.652013607
179.792,266.595760822
179.807,266.539179833
179.822,266.482268312
179.837,266.425023913
179.852,266.367444267
179.867,266.309526985
179.882,266.251269662
179.897,266.192669866
179.91,266.141604463
179.912,266.133725151
179.927,266.074433056
179.942,266.014791083
179.957,265.954796734
179.972,265.894447472
179.987,265.833740757
180.002,265.772674014
180.017,265.711244654
180.032,265.649450071
180.047,265.587287628
180.062,265.524754684
180.077,265.461848559
180.092,265.398566561
180.107,265.334905976
180.122,265.270864068
180.137,265.206438083
180.152,265.141625244
180.167,265.07642275
180.182,265.010827783
180.197,264.944837499
180.212,264.878449037
180.227,264.811659512
180.242,264.744466018
180.257,264.676865624
180.272,264.608855382
180.287,264.540432325
180.302,264.471593454
180.317,264.40233575
180.332,264.332656184
180.347,264.262551687
180.362,264.192019185
180.377,264.121055568
180.392,264.049657712
180.407,263.977822466
180.422,263.905546654
180.437,263.832827092
180.452,263.759660553
180.467,263.686043803
180.482,263.611973573
180.497,263.537446585
180.512,263.462459527
180.527,263.387009064
180.542,263.311091849
180.557,263.234704498
180.56,263.219370315
180.572,263.157843616
180.587,263.080505773
180.602,263.00268753
180.617,262.924385408
180.632,262.84559592
180.647,262.766315544
180.66,262.697206078
180.662,262.686540744
180.677,262.606267955
180.692,262.525493585
180.707,262.444214032
180.722,262.362425657
180.737,262.280124799
180.752,262.197307784
180.767,262.113970904
180.782,262.030110428
180.797,261.945722609
180.812,261.860803667
180.827,261.775349806
180.842,261.689357205
180.857,261.602822017
180.872,261.515740371
180.887,261.428108381
180.902,261.339922128
180.917,261.251177673
180.932,261.161871059
180.947,261.0719983
180.962,260.981555392
180.977,260.890538301
180.992,260.798942981
181.007,260.706765361
181.022,260.614001341
181.037,260.520646812
181.052,260.426697633
181.067,260.332149649
181.082,260.236998682
181.097,260.141240536
181.112,260.044870993
181.127,259.94788582
181.142,259.850280765
181.157,259.752051554
181.172,259.653193899
181.187,259.553703502
181.202,259.453576034
181.217,259.352807178
181.232,259.251392581
181.247,259.149327883
181.262,259.046608719
181.277,258.943230708
181.292,258.839189469
181.307,258.734480607
181.31,258.713458331
181.322,258.629099723
181.337,258.52304242
181.352,258.416304294
181.367,258.308880951
181.382,258.200767983
181.397,258.091961004
181.412,257.982455631
181.427,257.872247495
181.442,257.761332229
181.457,257.649705501
181.472,257.537362987
181.487,257.424300397
181.502,257.310513456
181.517,257.195997937
181.532,257.080749646
181.547,256.964764427
181.562,256.848038171
181.577,256.730566835
181.592,256.61234642
181.607,256.493373008
181.622,256.373642741
181.637,256.253151847
181.652,256.131896653
181.667,256.00987356
181.682,255.887079093
181.697,255.76350989
181.712,255.639162707
181.727,255.514034442
181.742,255.388122145
181.757,255.26142301
181.772,255.133934428
181.787,255.005653961
181.802,254.876579368
181.817,254.746708641
181.832,254.616039992
181.847,254.484571893
181.862,254.352303079
181.877,254.219232577
181.892,254.085359727
181.907,253.950684191
181.922,253.815205992
181.937,253.678925533
181.952,253.54184362
181.967,253.403961485
181.982,253.265280825
181.997,253.125803829
182.012,252.985533206
182.027,252.84447222
182.042,252.702624722
182.057,252.559995192
182.06,252.531375887
182.072,252.416588782
182.087,252.272411337
182.102,252.127469462
182.117,251.981770544
182.132,251.835322824
182.147,251.688135413
182.162,251.540218377
182.177,251.391582763
182.192,251.242240676
182.207,251.092205311
182.222,250.941491046
182.237,250.79011347
182.252,250.638089472
182.267,250.485437302
182.282,250.332176644
182.297,250.178328672
182.312,250.023916145
182.327,249.86896348
182.342,249.71349682
182.357,249.557544123
182.372,249.401135258
182.387,249.244302065
182.402,249.087078477
182.417,248.929500576
182.432,248.771606714
182.447,248.613437589
182.462,248.455036351
182.477,248.296448687
182.492,248.137722935
182.507,247.978910161
182.522,247.820064274
182.537,247.661242123
182.552,247.502503576
182.567,247.343911642
182.582,247.185532541
182.597,247.027435812
182.612,246.86969439
182.627,246.712384685
182.642,246.555586694
182.657,246.399384022
182.672,246.243863984
182.687,246.089117648
182.702,245.935239884
182.717,245.782329397
182.732,245.630488749
182.747,245.479824368
182.762,245.330446527
182.777,245.182469323
182.792,245.036010618
182.807,244.891191954
182.822,244.748138456
182.837,244.606978659
182.852,244.467844354
182.867,244.330870345
182.882,244.196194154
182.897,244.063955683
182.912,243.934296778
182.927,243.807360715
182.942,243.683291566
182.957,243.562233417
182.972,243.444329397
182.987,243.329720495
183.002,243.218544052
183.017,243.110931779
183.032,243.007007289
183.047,242.90688271
183.062,242.810654157
183.077,242.71839545
183.092,242.630149178
183.107,242.5459137
183.122,242.465623662
183.137,242.389119992
183.152,242.316102255
183.167,242.246050531
183.182,242.178093254
183.197,242.110776499
183.212,242.041651033
183.227,241.966528717
183.242,241.878216037
183.257,241.764963226
183.367,241.782052887
183.382,241.88290671
183.397,241.962310398
183.412,242.030765552
183.427,242.094546745
183.442,242.15729898
183.457,242.221160204
183.472,242.287403071
183.487,242.356790442
183.502,242.429774888
183.517,242.50661383
183.532,242.587438072
183.547,242.672293953
183.562,242.761170072
183.577,242.854014763
183.592,242.950747851
183.607,243.051268758
183.622,243.155462257
183.637,243.263202648
183.652,243.374356848
183.667,243.488786744
183.682,243.606351002
183.697,243.726906476
183.712,243.850309336
183.727,243.976415997
183.742,244.105083811
183.757,244.236171712
183.772,244.369540676
183.787,244.50505414
183.802,244.642578331
183.817,244.781982532
183.832,244.923139296
183.847,245.065924643
183.862,245.210218157
183.877,245.355903118
183.892,245.50286657
183.907,245.650999354
183.922,245.800196162
183.937,245.950355516
183.952,246.10137977
183.967,246.253175097
183.982,246.40565143
183.997,246.558722427
184.012,246.712305413
184.027,246.866321307
184.042,247.020694558
184.057,247.175353057
184.072,247.330228057
184.087,247.485254086
184.102,247.640368861
184.117,247.79551318
184.132,247.95063084
184.147,248.105668539
184.162,248.260575775
184.177,248.415304746
184.192,248.56981027
184.207,248.724049665
184.222,248.877982671
184.237,249.031571344
184.252,249.184779979
184.267,249.337575001
184.282,249.48992489
184.297,249.641800085
184.312,249.793172901
184.327,249.944017443
184.342,250.09430954
184.357,250.244026646
184.372,250.39314777
184.387,250.541653418
184.402,250.6895255
184.417,250.83674727
184.432,250.983303269
184.447,251.129179244
184.462,251.274362099
184.477,251.418839825
184.492,251.562601465
184.507,251.70563703
184.522,251.847937464
184.537,251.9894946
184.552,252.130301086
184.56,252.205088657
184.567,252.270350377
184.582,252.409636652
184.597,252.548154802
184.612,252.685900371
184.627,252.822869537
184.642,252.959059044
184.657,253.094466216
184.672,253.229088867
184.687,253.362925315
184.702,253.495974332
184.717,253.628235126
184.732,253.759707294
184.747,253.890390818
184.762,254.020286037
184.777,254.149393613
184.792,254.277714518
184.807,254.405250019
184.822,254.53200164
184.837,254.657971169
184.852,254.783160617
184.867,254.907572213
184.882,255.031208393
184.897,255.154071772
184.912,255.276165148
184.927,255.397491464
184.942,255.518053828
184.957,255.637855471
184.972,255.756899756
184.987,255.875190162
185.002,255.992730266
185.017,256.109523753
185.032,256.22557439
185.047,256.340886018
185.062,256.455462565
185.077,256.569308017
185.092,256.682426422
185.107,256.794821873
185.122,256.906498518
185.137,257.017460549
185.152,257.127712194
185.167,257.237257707
185.182,257.346101379
185.197,257.45424752
185.212,257.561700461
185.227,257.668464548
185.242,257.774544145
185.257,257.879943621
185.272,257.984667356
185.287,258.088719735
185.302,258.192105143
185.31,258.246972823
185.317,258.294827963
185.332,258.396892582
185.347,258.498303379
185.362,258.599064722
185.377,258.699180989
185.392,258.798656524
185.407,258.897495684
185.422,258.995702791
185.437,259.093282178
185.452,259.190238141
185.467,259.286574978
185.482,259.382296962
185.497,259.477408351
185.512,259.571913382
185.527,259.665816278
185.542,259.759121241
185.557,259.851832453
185.572,259.943954071
185.587,260.035490239
185.602,260.126445075
185.617,260.216822676
185.632,260.306627111
185.647,260.395862441
185.662,260.484532686
185.677,260.572641863
185.692,260.660193944
185.707,260.747192893
185.722,260.833642645
185.737,260.919547111
185.752,261.004910181
185.767,261.089735718
185.782,261.17402756
185.797,261.257789523
185.812,261.341025398
185.827,261.423738951
185.842,261.505933929
185.857,261.587614045
185.872,261.668782997
185.887,261.749444449
185.902,261.829602056
185.917,261.909259428
185.932,261.98842017
185.947,262.067087849
185.96,262.13487042
185.962,262.145266019
185.977,262.222958196
185.992,262.300167894
186.007,262.376898576
186.022,262.4531537
186.037,262.528936699
186.052,262.604250969
186.06,262.644228095
186.067,262.679099901
186.082,262.753486843
186.097,262.827415139
186.112,262.900888089
186.127,262.973908989
186.142,263.0464811
186.157,263.118607665
186.172,263.190291901
186.187,263.261536999
186.202,263.332346137
186.217,263.402722467
186.232,263.472669104
186.247,263.542189164
186.262,263.611285723
186.277,263.679961843
186.292,263.748220559
186.307,263.816064886
186.322,263.883497819
186.337,263.950522329
186.352,264.017141361
186.367,264.083357847
186.382,264.149174688
186.397,264.214594773
186.412,264.279620964
186.427,264.344256097
186.442,264.408502996
186.457,264.472364461
186.472,264.535843268
186.487,264.598942173
186.502,264.661663914
186.517,264.724011203
186.532,264.785986739
186.547,264.847593195
186.562,264.908833224
186.577,264.969709458
186.592,265.030224513
186.607,265.090380979
186.622,265.150181431
186.637,265.209628422
186.652,265.268724484
186.667,265.327472132
186.682,265.38587386
186.697,265.443932141
186.71,265.493973406
186.712,265.501649435
186.727,265.559028166
186.742,265.616070765
186.757,265.672779621
186.772,265.729157117
186.787,265.78520561
186.802,265.840927442
186.817,265.896324933
186.832,265.951400387
186.847,266.006156092
186.862,266.060594311
186.877,266.114717298
186.892,266.168527279
186.907,266.222026466
186.922,266.275217058
186.937,266.328101225
186.952,266.380681129
186.967,266.432958916
186.982,266.4849367
186.997,266.536616591
187.012,266.58800068
187.027,266.639091036
187.042,266.689889717
187.057,266.740398756
187.072,266.790620174
187.087,266.840555975
187.102,266.890208143
187.117,266.939578651
187.132,266.988669452
187.147,267.037482484
187.162,267.086019665
187.177,267.134282902
187.192,267.182274082
187.207,267.229995074
187.222,267.277447736
187.237,267.324633908
187.252,267.371555415
187.267,267.418214065
187.282,267.464611648
187.297,267.510749947
187.312,267.556630721
187.327,267.602255715
187.342,267.647626664
187.357,267.692745278
187.372,267.737613263
187.387,267.782232302
187.402,267.826604073
187.417,267.870730221
187.432,267.914612399
187.447,267.958252226
187.46,267.995878625
187.462,268.001651319
187.477,268.044811271
187.492,268.08773367
187.507,268.130420081
187.522,268.172872066
187.537,268.215091159
187.552,268.25707889
187.567,268.298836774
187.582,268.340366304
187.597,268.381668969
187.612,268.422746239
187.627,268.463599578
187.642,268.504230422
187.657,268.544640205
187.672,268.584830344
187.687,268.624802245
187.702,268.664557299
187.717,268.704096883
187.732,268.74342236
187.747,268.782535083
187.762,268.821436393
187.777,268.860127613
187.792,268.898610058
187.807,268.936885026
187.822,268.974953808
187.837,269.01281768
187.852,269.050477902
187.867,269.087935723
187.882,269.125192389
187.897,269.162249118
187.912,269.199107127
187.927,269.235767622
187.942,269.272231787
187.957,269.308500802
187.972,269.344575831
187.987,269.380458033
188.002,269.416148548
188.017,269.451648505
188.032,269.486959026
188.047,269.52208122
188.062,269.557016184
188.077,269.591765001
188.092,269.62632874
188.107,269.660708474
188.122,269.694905248
188.137,269.728920102
188.152,269.762754071
188.167,269.796408168
188.182,269.82988341
188.197,269.863180785
188.21,269.891895397
188.212,269.896301279
188.227,269.929245873
188.242,269.962015534
188.257,269.994611211
188.272,270.027033856
188.287,270.059284396
188.302,270.091363758
188.317,270.123272858
188.332,270.155012597
188.347,270.18658387
188.362,270.21798756
188.377,270.249224541
188.392,270.280295681
188.407,270.311201832
188.422,270.341943835
188.437,270.37252253
188.452,270.402938745
188.467,270.43319329
188.482,270.463286978
188.497,270.493220606
188.512,270.522994962
188.527,270.55261082
188.542,270.582068961
188.557,270.611370139
188.572,270.640515113
188.587,270.66950462
188.602,270.6983394
188.617,270.727020178
188.632,270.755547674
188.647,270.783922594
188.66,270.80839132
188.662,270.812145643
188.677,270.840217512
188.692,270.868138886
188.707,270.895910442
188.722,270.923532846
188.737,270.951006764
