# 10410 EDZE Essen Observations at 12Z 01 Aug 2020
Frequency [GHz],TB
175.31,272.284981151
175.322,272.260241236
175.337,272.229244471
175.352,272.19816773
175.367,272.167010868
175.382,272.135773762
175.397,272.104456269
175.412,272.073058254
175.427,272.041579583
175.442,272.010020111
175.457,271.978379701
175.472,271.946658214
175.487,271.914855507
175.502,271.882971433
175.517,271.851005845
175.532,271.818958611
175.547,271.786829563
175.562,271.754618571
175.577,271.722325477
175.592,271.689950128
175.607,271.657492376
175.622,271.624952066
175.637,271.59232904
175.652,271.55962315
175.667,271.526834229
175.682,271.493962123
175.697,271.461006674
175.712,271.427967712
175.727,271.394845081
175.742,271.361638616
175.757,271.328348146
175.772,271.294973511
175.787,271.261514536
175.802,271.227971056
175.817,271.19434289
175.832,271.160629876
175.847,271.126831832
175.862,271.092948581
175.877,271.058979949
175.892,271.024925755
175.907,270.990785816
175.922,270.956559953
175.937,270.922247977
175.952,270.887849703
175.967,270.853364948
175.982,270.818793517
175.997,270.784135223
176.012,270.749389869
176.027,270.714557264
176.042,270.679637207
176.057,270.644629507
176.072,270.609533962
176.087,270.574350366
176.102,270.539078524
176.117,270.503718224
176.132,270.468269261
176.147,270.432731425
176.162,270.397104506
176.177,270.361388294
176.192,270.32558257
176.207,270.289687124
176.222,270.253701731
176.237,270.217626176
176.252,270.181460232
176.267,270.145203679
176.282,270.108856285
176.297,270.072417831
176.31,270.040763996
176.312,270.035888079
176.327,269.999266799
176.342,269.962553759
176.357,269.925748714
176.372,269.888851436
176.387,269.851861682
176.402,269.814779202
176.417,269.777603758
176.432,269.740335099
176.447,269.702972979
176.46,269.670516678
176.462,269.665517145
176.477,269.627967337
176.492,269.590323314
176.507,269.552584797
176.522,269.514751544
176.537,269.476823281
176.552,269.438799744
176.567,269.400680666
176.582,269.362465783
176.597,269.324154815
176.612,269.285747486
176.627,269.247243529
176.642,269.208642649
176.657,269.169944576
176.672,269.131149017
176.687,269.092255689
176.702,269.053264303
176.717,269.014174562
176.732,268.974986177
176.747,268.935698848
176.762,268.896312272
176.777,268.856826145
176.792,268.817240169
176.807,268.777554031
176.822,268.737767415
176.837,268.697880017
176.852,268.657891517
176.867,268.617801592
176.882,268.577609925
176.897,268.537316188
176.912,268.496920051
176.927,268.456421193
176.942,268.415819272
176.957,268.375113952
176.972,268.334304895
176.987,268.293391763
177.002,268.2523742
177.017,268.211251874
177.032,268.170024419
177.047,268.128691484
177.062,268.087252716
177.077,268.045707755
177.092,268.00405623
177.107,267.962297784
177.122,267.920432032
177.137,267.878458617
177.152,267.836377155
177.167,267.794187266
177.182,267.751888568
177.197,267.709480676
177.21,267.672638541
177.212,267.666963201
177.227,267.624335746
177.242,267.581597914
177.257,267.538749311
177.272,267.495789529
177.287,267.452718167
177.302,267.409534806
177.31,267.386457745
177.317,267.36623904
177.332,267.322830447
177.347,267.279308608
177.362,267.235673099
177.377,267.191923491
177.392,267.148059354
177.407,267.104080252
177.422,267.059985737
177.437,267.015775387
177.452,266.971448731
177.467,266.927005337
177.482,266.88244474
177.497,266.837766484
177.512,266.792970113
177.527,266.748055153
177.542,266.703021136
177.557,266.657867593
177.572,266.61259404
177.587,266.567199999
177.602,266.521684981
177.617,266.476048499
177.632,266.430290056
177.647,266.384409152
177.66,266.344546263
177.662,266.338405292
177.677,266.292277963
177.692,266.246026654
177.707,266.19965085
177.722,266.153150035
177.737,266.106523682
177.752,266.059771262
177.767,266.012892245
177.782,265.96588609
177.797,265.918752257
177.812,265.871490201
177.827,265.824099371
177.842,265.776579212
177.857,265.728929165
177.872,265.681148662
177.887,265.633237138
177.902,265.585194021
177.917,265.537018721
177.932,265.488710671
177.947,265.440269274
177.96,265.398178406
177.962,265.391693937
177.977,265.342984065
177.992,265.294139057
178.007,265.245158304
178.022,265.196041193
178.037,265.146787106
178.052,265.097395428
178.067,265.047865523
178.082,264.998196766
178.097,264.948388517
178.112,264.898440135
178.127,264.848350967
178.142,264.798120373
178.157,264.747747687
178.172,264.697232244
178.187,264.646573382
178.202,264.595770427
178.217,264.544822698
178.232,264.493729514
178.247,264.442490184
178.262,264.391104016
178.277,264.339570309
178.292,264.287888361
178.307,264.236057457
178.322,264.184076883
178.337,264.131945918
178.352,264.07966384
178.367,264.027229907
178.382,263.974643388
178.397,263.921903538
178.41,263.876071067
178.412,263.869009614
178.427,263.815960853
178.442,263.762756499
178.457,263.709395787
178.472,263.65587795
178.487,263.602202205
178.502,263.548367766
178.517,263.494373855
178.532,263.440219676
178.547,263.385904428
178.562,263.331427303
178.577,263.276787499
178.592,263.221984188
178.607,263.167016559
178.622,263.111883779
178.637,263.056585014
178.652,263.001119427
178.667,262.945486177
178.682,262.8896844
178.697,262.833713256
178.712,262.777571868
178.727,262.721259383
178.742,262.664774917
178.757,262.608117596
178.772,262.551286532
178.787,262.494280833
178.802,262.43709961
178.817,262.379741954
178.832,262.32220696
178.847,262.264493715
178.862,262.206601299
178.877,262.148528784
178.892,262.090275243
178.907,262.031839749
178.922,261.973221341
178.937,261.914419093
178.952,261.855432039
178.967,261.796259226
178.982,261.736899684
178.997,261.677352454
179.012,261.617616553
179.027,261.557691009
179.042,261.497574832
179.057,261.437267032
179.072,261.376766614
179.087,261.316072574
179.102,261.25518391
179.117,261.194099611
179.132,261.132818657
179.147,261.07134003
179.16,261.017897864
179.162,261.0096627
179.177,260.947785638
179.192,260.885707808
179.207,260.823428167
179.222,260.760945666
179.237,260.698259264
179.252,260.635367898
179.267,260.572270507
179.282,260.508966031
179.297,260.445453399
179.312,260.381731538
179.327,260.317799369
179.342,260.253655809
179.357,260.189299773
179.372,260.124730179
179.387,260.05994592
179.402,259.994945905
179.417,259.929729028
179.432,259.86429419
179.447,259.798640279
179.462,259.732766173
179.477,259.666670768
179.492,259.600352939
179.507,259.533811566
179.522,259.46704552
179.537,259.40005367
179.552,259.332834891
179.567,259.265388043
179.582,259.197711987
179.597,259.12980559
179.612,259.061667699
179.627,258.99329718
179.642,258.924692879
179.657,258.855853648
179.672,258.786778336
179.687,258.717465795
179.702,258.647914859
179.717,258.578124384
179.732,258.508093202
179.747,258.437820161
179.762,258.367304098
179.777,258.296543848
179.792,258.22553825
179.807,258.154286145
179.822,258.082786371
179.837,258.011037753
179.852,257.939039138
179.867,257.866789354
179.882,257.794287238
179.897,257.721531624
179.91,257.658270808
179.912,257.648521348
179.927,257.575255246
179.942,257.501732155
179.957,257.427950909
179.972,257.35391035
179.987,257.279609316
180.002,257.205046643
180.017,257.13022117
180.032,257.055131747
180.047,256.979777214
180.062,256.904156412
180.077,256.828268197
180.092,256.75211141
180.107,256.675684908
180.122,256.598987542
180.137,256.522018167
180.152,256.44477564
180.167,256.367258825
180.182,256.289466586
180.197,256.211397787
180.212,256.133051296
180.227,256.054425986
180.242,255.975520736
180.257,255.896334422
180.272,255.816865927
180.287,255.737114134
180.302,255.657077934
180.317,255.576756219
180.332,255.49614789
180.347,255.41525184
180.362,255.334066979
180.377,255.252592214
180.392,255.170826455
180.407,255.088768617
180.422,255.006417622
180.437,254.923772399
180.452,254.84083187
180.467,254.757594968
180.482,254.674060636
180.497,254.590227806
180.512,254.506095432
180.527,254.421662455
180.542,254.336927835
180.557,254.251890523
180.56,254.234846649
180.572,254.166549486
180.587,254.080903688
180.602,253.994952098
180.617,253.908693689
180.632,253.822127439
180.647,253.735252324
180.66,253.659709941
180.662,253.648067334
180.677,253.560571459
180.692,253.47276368
180.707,253.384643003
180.722,253.296208415
180.737,253.207458927
180.752,253.118393534
180.767,253.029011244
180.782,252.939311067
180.797,252.849292012
180.812,252.758953091
180.827,252.668293319
180.842,252.57731171
180.857,252.486007288
180.872,252.394379063
180.887,252.302426063
180.902,252.210147303
180.917,252.117541802
180.932,252.02460859
180.947,251.931346677
180.962,251.837755096
180.977,251.743832856
180.992,251.649578985
181.007,251.554992502
181.022,251.460072422
181.037,251.364817757
181.052,251.269227529
181.067,251.173300753
181.082,251.077036434
181.097,250.980433587
181.112,250.88349121
181.127,250.786208312
181.142,250.688583899
181.157,250.590616963
181.172,250.492306501
181.187,250.393651508
181.202,250.29465097
181.217,250.195303882
181.232,250.095609223
181.247,249.995565969
181.262,249.895173109
181.277,249.794429612
181.292,249.693334456
181.307,249.591886607
181.31,249.571554622
181.322,249.490085039
181.337,249.387928719
181.352,249.285416616
181.367,249.182547699
181.382,249.079320933
181.397,248.975735289
181.412,248.871789736
181.427,248.767483246
181.442,248.662814797
181.457,248.557783374
181.472,248.452387958
181.487,248.346627549
181.502,248.240501146
181.517,248.134007767
181.532,248.027146434
181.547,247.919916191
181.562,247.81231609
181.577,247.704345206
181.592,247.596002631
181.607,247.487287489
181.622,247.378198922
181.637,247.268736096
181.652,247.158898217
181.667,247.048684533
181.682,246.938094314
181.697,246.827126889
181.712,246.715781627
181.727,246.604057951
181.742,246.49195534
181.757,246.379473334
181.772,246.266611547
181.787,246.153369659
181.802,246.03974743
181.817,245.925744718
181.832,245.811361456
181.847,245.696597701
181.862,245.5814536
181.877,245.465929427
181.892,245.350025582
181.907,245.233742605
181.922,245.117081176
181.937,245.000042147
181.952,244.882626523
181.967,244.7648355
181.982,244.646670472
181.997,244.528133044
182.012,244.409225034
182.027,244.289948508
182.042,244.170305788
182.057,244.050299472
182.06,244.026254826
182.072,243.92993245
182.087,243.809207916
182.102,243.688129404
182.117,243.566700805
182.132,243.444926382
182.147,243.322810808
182.162,243.200359177
182.177,243.077577035
182.192,242.954470422
182.207,242.831045884
182.222,242.707310511
182.237,242.583271975
182.252,242.458938558
182.267,242.334319184
182.282,242.209423469
182.297,242.084261757
182.312,241.958845134
182.327,241.833185521
182.342,241.707295667
182.357,241.581189223
182.372,241.454880783
182.387,241.328385917
182.402,241.201721239
182.417,241.07490444
182.432,240.947954342
182.447,240.820890953
182.462,240.693735503
182.477,240.566510497
182.492,240.439239774
182.507,240.31194853
182.522,240.184663379
182.537,240.057412378
182.552,239.930225076
182.567,239.803132535
182.582,239.676167351
182.597,239.549363673
182.612,239.422757216
182.627,239.296385241
182.642,239.170286545
182.657,239.044501429
182.672,238.919071642
182.687,238.794040294
182.702,238.66945178
182.717,238.545351632
182.732,238.421786366
182.747,238.298803271
182.762,238.176450162
182.777,238.054775079
182.792,237.933825934
182.807,237.813650054
182.822,237.694293686
182.837,237.57580135
182.852,237.458215155
182.867,237.34157391
182.882,237.225912114
182.897,237.111258792
182.912,236.997636071
182.927,236.885057556
182.942,236.773526411
182.957,236.663033102
182.972,236.553552789
182.987,236.445042224
183.002,236.337436261
183.017,236.230643754
183.032,236.124542955
183.047,236.018976415
183.062,235.913745517
183.077,235.808605075
183.092,235.703258705
183.107,235.597356483
183.122,235.490497618
183.137,235.382243226
183.152,235.272148273
183.167,235.159829228
183.182,235.045096923
183.197,234.928207315
183.212,234.810323109
183.227,234.694345005
183.242,234.586360223
183.257,234.497963953
183.367,234.507312579
183.382,234.599277287
183.397,234.707252329
183.412,234.821302098
183.427,234.936323338
183.442,235.049957622
183.457,235.161327763
183.472,235.270320024
183.487,235.377187654
183.502,235.482336672
183.517,235.586213237
183.532,235.689247081
183.547,235.791825527
183.562,235.894283873
183.577,235.996904299
183.592,236.099918961
183.607,236.203514868
183.622,236.307839361
183.637,236.413005464
183.652,236.519096872
183.667,236.626172408
183.682,236.734269944
183.697,236.843409823
183.712,236.953597786
183.727,237.064827499
183.742,237.177082705
183.757,237.29033907
183.772,237.404565763
183.787,237.519726773
183.802,237.635782071
183.817,237.752688565
183.832,237.870400923
183.847,237.988872278
183.862,238.108054802
183.877,238.227900219
183.892,238.348360204
183.907,238.469386749
183.922,238.590932432
183.937,238.712950672
183.952,238.835395905
183.967,238.958223747
183.982,239.081391125
183.997,239.204856359
184.012,239.328579223
184.027,239.452521015
184.042,239.576644574
184.057,239.700914304
184.072,239.825296166
184.087,239.94975768
184.102,240.074267902
184.117,240.198797401
184.132,240.323318233
184.147,240.447803902
184.162,240.572229317
184.177,240.696570746
184.192,240.820805786
184.207,240.944913303
184.222,241.068873388
184.237,241.192667309
184.252,241.316277461
184.267,241.439687316
184.282,241.562881381
184.297,241.685845148
184.312,241.808565031
184.327,241.931028361
184.342,242.053223291
184.357,242.175138791
184.372,242.296764593
184.387,242.418091148
184.402,242.539109596
184.417,242.659811722
184.432,242.780189916
184.447,242.900237153
184.462,243.019946949
184.477,243.139313338
184.492,243.25833083
184.507,243.376994399
184.522,243.495299442
184.537,243.613241762
184.552,243.730817543
184.56,243.79337354
184.567,243.848023317
184.582,243.964855966
184.597,244.081312666
184.612,244.197390911
184.627,244.313088444
184.642,244.428403292
184.657,244.543333706
184.672,244.657878171
184.687,244.77203539
184.702,244.885804246
184.717,244.999183829
184.732,245.112173382
184.747,245.224772324
184.762,245.336980218
184.777,245.448796761
184.792,245.560221792
184.807,245.67125526
184.822,245.781897236
184.837,245.892147884
184.852,246.002007475
184.867,246.111476367
184.882,246.220554994
184.897,246.329243875
184.912,246.437543593
184.927,246.5454548
184.942,246.65297821
184.957,246.760114582
184.972,246.866864734
184.987,246.973229528
185.002,247.079209862
185.017,247.184806684
185.032,247.290020964
185.047,247.394853713
185.062,247.499305959
185.077,247.603378761
185.092,247.707073206
185.107,247.810390396
185.122,247.913331449
185.137,248.015897498
185.152,248.118089693
185.167,248.219909202
185.182,248.32135718
185.197,248.422434817
185.212,248.523143292
185.227,248.623483806
185.242,248.723457548
185.257,248.823065714
185.272,248.922309511
185.287,249.021190141
185.302,249.119708805
185.31,249.172104505
185.317,249.217866708
185.332,249.315665053
185.347,249.413105031
185.362,249.510187855
185.377,249.60691471
185.392,249.703286795
185.407,249.799305301
185.422,249.894971409
185.437,249.990286303
185.452,250.085251168
185.467,250.179867172
185.482,250.274135485
185.497,250.368057277
185.512,250.461633707
185.527,250.554865931
185.542,250.647755108
185.557,250.740302378
185.572,250.832508888
185.587,250.924375781
185.602,251.015904189
185.617,251.107095247
185.632,251.197950077
185.647,251.288469805
185.662,251.378655559
185.677,251.468508441
185.692,251.558029579
185.707,251.647220074
185.722,251.736081036
185.737,251.824613572
185.752,251.912818778
185.767,252.000697762
185.782,252.088251614
185.797,252.175481434
185.812,252.262388314
185.827,252.348973346
185.842,252.435237618
185.857,252.521182223
185.872,252.606808248
185.887,252.692116783
185.902,252.777108909
185.917,252.861785714
185.932,252.946148287
185.947,253.03019771
185.96,253.102788076
185.962,253.113935066
185.977,253.197361448
185.992,253.280477934
186.007,253.363285613
186.022,253.445785569
186.037,253.527978895
186.052,253.609866675
186.06,253.653415595
186.067,253.691449992
186.082,253.772729942
186.097,253.853707613
186.112,253.934384095
186.127,254.014760485
186.142,254.094837866
186.157,254.174617343
186.172,254.254100009
186.187,254.333286958
186.202,254.412179292
186.217,254.49077811
186.232,254.569084512
186.247,254.647099604
186.262,254.724824487
186.277,254.802260269
186.292,254.879408056
186.307,254.956268956
186.322,255.032844084
186.337,255.109134545
186.352,255.185141452
186.367,255.260865926
186.382,255.336309074
186.397,255.411472017
186.412,255.486355878
186.427,255.560961768
186.442,255.635290812
186.457,255.709344127
186.472,255.783122843
186.487,255.856628078
186.502,255.929860956
186.517,256.002822608
186.532,256.075514152
186.547,256.14793672
186.562,256.220091437
186.577,256.291979436
186.592,256.363601835
186.607,256.434959771
186.622,256.506054371
186.637,256.576886764
186.652,256.647458079
186.667,256.717769441
186.682,256.787821987
186.697,256.857616842
186.71,256.917898143
186.712,256.927155132
186.727,256.996437991
186.742,257.06546654
186.757,257.134241911
186.772,257.202765227
186.787,257.271037619
186.802,257.339060206
186.817,257.406834118
186.832,257.474360471
186.847,257.54164039
186.862,257.608674999
186.877,257.67546541
186.892,257.742012746
186.907,257.808318119
186.922,257.874382649
186.937,257.940207444
186.952,258.005793613
186.967,258.071142269
186.982,258.136254519
186.997,258.201131467
187.012,258.265774214
187.027,258.33018386
187.042,258.394361507
187.057,258.458308244
187.072,258.522025168
187.087,258.58551337
187.102,258.648773933
187.117,258.711807946
187.132,258.774616489
187.147,258.837200639
187.162,258.899561474
187.177,258.961700065
187.192,259.023617486
187.207,259.085314794
187.222,259.14679306
187.237,259.208053339
187.252,259.269096685
187.267,259.329924158
187.282,259.390536796
187.297,259.450935652
187.312,259.51112176
187.327,259.571096167
187.342,259.630859899
187.357,259.690413987
187.372,259.749759457
187.387,259.808897331
187.402,259.867828625
187.417,259.926554348
187.432,259.985075516
187.447,260.043393134
187.46,260.093771189
187.462,260.101508198
187.477,260.159421707
187.492,260.217134645
187.507,260.274648012
187.522,260.331962782
187.537,260.389079933
187.552,260.446000445
187.567,260.502725281
187.582,260.559255407
187.597,260.615591787
187.612,260.671735369
187.627,260.727687107
187.642,260.783447948
187.657,260.839018835
187.672,260.894400697
187.687,260.949594471
187.702,261.004601078
187.717,261.05942145
187.732,261.114056493
187.747,261.168507125
187.762,261.222774248
187.777,261.276858777
187.792,261.330761592
187.807,261.384483597
187.822,261.438025669
187.837,261.491388704
187.852,261.544573565
187.867,261.597581135
187.882,261.650412275
187.897,261.703067848
187.912,261.755548715
187.927,261.807855724
187.942,261.859989724
187.957,261.91195156
187.972,261.963742064
187.987,262.015362072
188.002,262.066812408
188.017,262.118093896
188.032,262.169207353
188.047,262.220153589
188.062,262.270933413
188.077,262.321547631
188.092,262.371997029
188.107,262.422282411
188.122,262.472404556
188.137,262.522364251
188.152,262.572162273
188.167,262.62179939
188.182,262.671276372
188.197,262.720593979
188.21,262.763207576
188.212,262.769752973
188.227,262.818754102
188.242,262.867598118
188.257,262.916285758
188.272,262.964817761
188.287,263.013194865
188.302,263.061417795
188.317,263.109487272
188.332,263.157404018
188.347,263.205168747
188.362,263.252782164
188.377,263.300244976
188.392,263.347557882
188.407,263.394721576
188.422,263.441736751
188.437,263.488604088
188.452,263.535324273
188.467,263.581897976
188.482,263.628325873
188.497,263.674608627
188.512,263.720746908
188.527,263.766741365
188.542,263.812592656
188.557,263.85830143
188.572,263.903868328
188.587,263.949293998
188.602,263.994579065
188.617,264.039724166
188.632,264.084729924
188.647,264.129596969
188.66,264.168370007
188.662,264.174325909
188.677,264.218917364
188.692,264.263371941
188.707,264.307690247
188.722,264.351872883
