# 01004 ENAS Ny-Alesund Ii Observations at 12Z 29 Mar 2019
Frequency [GHz],TB
175.31,237.588128474
175.322,237.655121174
175.337,237.738912885
175.352,237.822759867
175.367,237.906660822
175.382,237.990614438
175.397,238.074619353
175.412,238.158674234
175.427,238.242777708
175.442,238.326928385
175.457,238.41112487
175.472,238.495365721
175.487,238.579649521
175.502,238.663974816
175.517,238.748340126
175.532,238.832743962
175.547,238.917184831
175.562,239.001661208
175.577,239.086171545
175.592,239.170714278
175.607,239.255287846
175.622,239.339890654
175.637,239.424521085
175.652,239.509177507
175.667,239.593858276
175.682,239.67856173
175.697,239.763286178
175.712,239.848029924
175.727,239.932791233
175.742,240.01756838
175.757,240.10235959
175.772,240.187163097
175.787,240.271977085
175.802,240.356799762
175.817,240.441629278
175.832,240.526463777
175.847,240.611301379
175.862,240.696140198
175.877,240.780978313
175.892,240.865813797
175.907,240.950644686
175.922,241.035469001
175.937,241.120284759
175.952,241.205089935
175.967,241.289882502
175.982,241.374660391
175.997,241.459421532
176.012,241.544163825
176.027,241.628885152
176.042,241.713583376
176.057,241.798256337
176.072,241.882901842
176.087,241.967517694
176.102,242.05210167
176.117,242.136651527
176.132,242.22116499
176.147,242.305639771
176.162,242.390073564
176.177,242.474464027
176.192,242.558808818
176.207,242.643105557
176.222,242.727351838
176.237,242.811545257
176.252,242.895683351
176.267,242.979763671
176.282,243.06378372
176.297,243.147740989
176.31,243.220451235
176.312,243.231632962
176.327,243.315457056
176.342,243.399210719
176.357,243.482891347
176.372,243.566496305
176.387,243.650022962
176.402,243.733468642
176.417,243.816830664
176.432,243.900106307
176.447,243.983292819
176.46,244.055313592
176.462,244.066387471
176.477,244.14938746
176.492,244.232289995
176.507,244.315092233
176.522,244.397791335
176.537,244.480384409
176.552,244.562868568
176.567,244.645240901
176.582,244.727498448
176.597,244.809638251
176.612,244.891657311
176.627,244.973552616
176.642,245.055321127
176.657,245.136959789
176.672,245.218465515
176.687,245.299835204
176.702,245.381065713
176.717,245.462153902
176.732,245.543096586
176.747,245.623890568
176.762,245.704532628
176.777,245.785019502
176.792,245.865347941
176.807,245.945514658
176.822,246.025516319
176.837,246.105349594
176.852,246.185011122
176.867,246.264497518
176.882,246.34380538
176.897,246.422931277
176.912,246.501871756
176.927,246.580623345
176.942,246.659182536
176.957,246.737545826
176.972,246.815709673
176.987,246.89367051
177.002,246.971424746
177.017,247.048968772
177.032,247.126298979
177.047,247.203411693
177.062,247.280303253
177.077,247.356969974
177.092,247.433408128
177.107,247.509613994
177.122,247.585583795
177.137,247.661313775
177.152,247.736800124
177.167,247.812039026
177.182,247.887026648
177.197,247.961759126
177.21,248.026317898
177.212,248.036232589
177.227,248.110443137
177.242,248.184386842
177.257,248.258059786
177.272,248.331457999
177.287,248.404577527
177.302,248.477414365
177.31,248.516143707
177.317,248.549964508
177.332,248.622223922
177.347,248.694188569
177.362,248.765854387
177.377,248.837217289
177.392,248.908273186
177.407,248.979017968
177.422,249.049447493
177.437,249.119557637
177.452,249.189344226
177.467,249.258803083
177.482,249.327930035
177.497,249.396720861
177.512,249.46517136
177.527,249.533277284
177.542,249.601034402
177.557,249.668438445
177.572,249.735485146
177.587,249.802170237
177.602,249.868489404
177.617,249.934438357
177.632,250.000012782
177.647,250.065208337
177.66,250.121401358
177.662,250.130020714
177.677,250.194445544
177.692,250.258478489
177.707,250.322115188
177.722,250.385351256
177.737,250.448182332
177.752,250.510604023
177.767,250.572611959
177.782,250.634201719
177.797,250.695368922
177.812,250.75610916
177.827,250.816418018
177.842,250.876291094
177.857,250.935723959
177.872,250.994712218
177.887,251.053251439
177.902,251.111337195
177.917,251.168965078
177.932,251.226130673
177.947,251.282829562
177.96,251.331587671
177.962,251.339057316
177.977,251.394809549
177.992,251.450081817
178.007,251.504869735
178.022,251.559168899
178.037,251.612974906
178.052,251.666283371
178.067,251.719089905
178.082,251.771390131
178.097,251.823179706
178.112,251.874454233
178.127,251.925209384
178.142,251.975440832
178.157,252.025144237
178.172,252.074315272
178.187,252.122949667
178.202,252.171043103
178.217,252.218591328
178.232,252.265590076
178.247,252.312035129
178.262,252.35792223
178.277,252.403247202
178.292,252.448005851
178.307,252.492194005
178.322,252.535807529
178.337,252.578842298
178.352,252.621294218
178.367,252.663159202
178.382,252.704433218
178.397,252.745112219
178.41,252.779882969
178.412,252.785192223
178.427,252.824669251
178.442,252.863539366
178.457,252.901798652
178.472,252.939443236
178.487,252.976469253
178.502,253.012872885
178.517,253.048650364
178.532,253.083797925
178.547,253.118311856
178.562,253.152188485
178.577,253.185424159
178.592,253.218015294
178.607,253.249958303
178.622,253.281249685
178.637,253.311885944
178.652,253.341863646
178.667,253.371179397
178.682,253.399829845
178.697,253.427811698
178.712,253.455121677
178.727,253.481756583
178.742,253.507713246
178.757,253.532988577
178.772,253.557579487
178.787,253.581482964
178.802,253.604696083
178.817,253.627215903
178.832,253.649039604
178.847,253.670164366
178.862,253.690587481
178.877,253.710306252
178.892,253.729318051
178.907,253.747620342
178.922,253.765210599
178.937,253.782086399
178.952,253.798245351
178.967,253.813685157
178.982,253.828403561
178.997,253.842398378
179.012,253.855667497
179.027,253.868208859
179.042,253.880020463
179.057,253.891100443
179.072,253.901446898
179.087,253.911058093
179.102,253.919932298
179.117,253.928067891
179.132,253.93546332
179.147,253.942117082
179.16,253.947282669
179.162,253.948027783
179.177,253.953194066
179.192,253.957614685
179.207,253.961288441
179.222,253.964214226
179.237,253.966391019
179.252,253.967817849
179.267,253.968493856
179.282,253.968418241
179.297,253.967590275
179.312,253.966009326
179.327,253.963674848
179.342,253.960586359
179.357,253.956743463
179.372,253.952145848
179.387,253.94679328
179.402,253.940685623
179.417,253.933822808
179.432,253.926204838
179.447,253.917831837
179.462,253.908703975
179.477,253.898821517
179.492,253.888184828
179.507,253.876794347
179.522,253.864650566
179.537,253.851754128
179.552,253.838105679
179.567,253.823706012
179.582,253.808555988
179.597,253.792656523
179.612,253.776008663
179.627,253.758613504
179.642,253.740472208
179.657,253.721586084
179.672,253.701956456
179.687,253.681584772
179.702,253.660472544
179.717,253.638621374
179.732,253.616032919
179.747,253.592708969
179.762,253.568651335
179.777,253.543861943
179.792,253.518342786
179.807,253.492095917
179.822,253.465123522
179.837,253.437427786
179.852,253.409011042
179.867,253.37987565
179.882,253.350024054
179.897,253.319458777
179.91,253.292393575
179.912,253.288182401
179.927,253.256197606
179.942,253.223507123
179.957,253.190113736
179.972,253.156020335
179.987,253.121229845
180.002,253.085745256
180.017,253.049569636
180.032,253.012706135
180.047,252.975157921
180.062,252.936928242
180.077,252.898020399
180.092,252.858437769
180.107,252.818183781
180.122,252.777261898
180.137,252.735675656
180.152,252.693428615
180.167,252.650524425
180.182,252.60696676
180.197,252.562759366
180.212,252.517905992
180.227,252.47241047
180.242,252.426276643
180.257,252.379508428
180.272,252.332109774
180.287,252.284084625
180.302,252.235437035
180.317,252.186171016
180.332,252.136290686
180.347,252.085800139
180.362,252.034703524
180.377,251.983005002
180.392,251.930708776
180.407,251.877819077
180.422,251.824340138
180.437,251.770276246
180.452,251.715631658
180.467,251.660410712
180.482,251.604617695
180.497,251.548256975
180.512,251.491332898
180.527,251.433849819
180.542,251.375812111
180.557,251.31722416
180.56,251.305440929
180.572,251.258090362
180.587,251.198415112
180.602,251.138202804
180.617,251.077457854
180.632,251.016184657
180.647,250.954387633
180.66,250.900409898
180.662,250.892071183
180.677,250.829239728
180.692,250.76589766
180.707,250.702049374
180.722,250.637699284
180.737,250.572851758
180.752,250.507511204
180.767,250.441681972
180.782,250.375368439
180.797,250.308574981
180.812,250.241305906
180.827,250.173565586
180.842,250.105358324
180.857,250.036688441
180.872,249.967560242
180.887,249.897978002
180.902,249.827946002
180.917,249.757468515
180.932,249.686549758
180.947,249.615193984
180.962,249.543405397
180.977,249.471188231
180.992,249.398546649
181.007,249.325484841
181.022,249.252006966
181.037,249.178117162
181.052,249.103819576
181.067,249.029118338
181.082,248.954017558
181.097,248.878521329
181.112,248.802633734
181.127,248.726358881
181.142,248.649700808
181.157,248.572663597
181.172,248.495251295
181.187,248.417467956
181.202,248.339317619
181.217,248.260804334
181.232,248.181932122
181.247,248.102705037
181.262,248.023127112
181.277,247.943202366
181.292,247.862934867
181.307,247.782328654
181.31,247.766167119
181.322,247.701387777
181.337,247.620116307
181.352,247.538518314
181.367,247.456597879
181.382,247.374359132
181.397,247.291806164
181.412,247.208943123
181.427,247.125774165
181.442,247.042303487
181.457,246.958535278
181.472,246.874473806
181.487,246.790123321
181.502,246.70548814
181.517,246.620572596
181.532,246.535381089
181.547,246.449918027
181.562,246.36418788
181.577,246.278195186
181.592,246.191944494
181.607,246.105440438
181.622,246.018687704
181.637,245.931691029
181.652,245.844455242
181.667,245.756985185
181.682,245.669285838
181.697,245.581362202
181.712,245.493219398
181.727,245.404862591
181.742,245.316297048
181.757,245.227528144
181.772,245.138561314
181.787,245.049402111
181.802,244.960056177
181.817,244.870529265
181.832,244.780827253
181.847,244.6909561
181.862,244.600921882
181.877,244.510730833
181.892,244.420389281
181.907,244.329903693
181.922,244.239280655
181.937,244.14852692
181.952,244.05764935
181.967,243.966654972
181.982,243.875550974
181.997,243.784344674
182.012,243.693043542
182.027,243.60165525
182.042,243.510187592
182.057,243.418648592
182.06,243.400332942
182.072,243.327046373
182.087,243.235389305
182.102,243.143685912
182.117,243.051944891
182.132,242.960175158
182.147,242.868385805
182.162,242.776586125
182.177,242.684785618
182.192,242.592993978
182.207,242.501221102
182.222,242.409477092
182.237,242.317772271
182.252,242.226117165
182.267,242.134522503
182.282,242.042999187
182.297,241.951558418
182.312,241.860211489
182.327,241.768969973
182.342,241.677845573
182.357,241.586850257
182.372,241.495996074
182.387,241.405295304
182.402,241.31476038
182.417,241.224403837
182.432,241.134238351
182.447,241.044276701
182.462,240.954531745
182.477,240.865016344
182.492,240.77574341
182.507,240.686725804
182.522,240.597976283
182.537,240.509507533
182.552,240.421331993
182.567,240.333461853
182.582,240.245908969
182.597,240.158684722
182.612,240.071800001
182.627,239.985264968
182.642,239.899089018
182.657,239.813280547
182.672,239.727846814
182.687,239.642793699
182.702,239.558125481
182.717,239.473844534
182.732,239.389951051
182.747,239.306442591
182.762,239.223313722
182.777,239.140555522
182.792,239.058154933
182.807,238.976094158
182.822,238.894349831
182.837,238.812892123
182.852,238.731683576
182.867,238.650677922
182.882,238.569818414
182.897,238.489036104
182.912,238.408247551
182.927,238.327352114
182.942,238.246228699
182.957,238.164731779
182.972,238.082686264
182.987,237.999881338
183.002,237.91606248
183.017,237.830921389
183.032,237.744082963
183.047,237.655088154
183.062,237.563371407
183.077,237.468230156
183.092,237.368783155
183.107,237.263912332
183.122,237.152180162
183.137,237.031709388
183.152,236.900003727
183.167,236.75367266
183.182,236.587996135
183.197,236.396211626
183.212,236.168303012
183.227,235.888870456
183.242,235.533305789
183.257,235.061202494
183.367,235.179876425
183.382,235.613898417
183.397,235.943625587
183.412,236.204658674
183.427,236.418770971
183.442,236.599717735
183.457,236.75653299
183.472,236.895370199
183.487,237.020557324
183.502,237.135223766
183.517,237.241686622
183.532,237.341696813
183.547,237.436600698
183.562,237.527449114
183.577,237.615072919
183.592,237.7001361
183.607,237.783174397
183.622,237.864623431
183.637,237.944839653
183.652,238.024116418
183.667,238.102696101
183.682,238.180779597
183.697,238.25853378
183.712,238.336097387
183.727,238.413585787
183.742,238.49109483
183.757,238.568703905
183.772,238.646478512
183.787,238.724472426
183.802,238.802729418
183.817,238.881284727
183.832,238.960166341
183.847,239.039395992
183.862,239.118990056
183.877,239.198960359
183.892,239.279314773
183.907,239.360057795
183.922,239.441191036
183.937,239.522713614
183.952,239.604622518
183.967,239.686912961
183.982,239.769578557
183.997,239.852611684
184.012,239.936003557
184.027,240.019744499
184.042,240.103824089
184.057,240.188231208
184.072,240.272954293
184.087,240.357981352
184.102,240.44330006
184.117,240.528897863
184.132,240.614762041
184.147,240.70087977
184.162,240.787238134
184.177,240.873824252
184.192,240.96062521
184.207,241.047628218
184.222,241.134820524
184.237,241.222189508
184.252,241.309722679
184.267,241.397407689
184.282,241.48523236
184.297,241.5731847
184.312,241.661252894
184.327,241.749425341
184.342,241.837690622
184.357,241.926037527
184.372,242.014455067
184.387,242.102932463
184.402,242.191459151
184.417,242.280024782
184.432,242.368619231
184.447,242.457232574
184.462,242.545855115
184.477,242.634477375
184.492,242.723090072
184.507,242.811684109
184.522,242.900250647
184.537,242.98878102
184.552,243.077266755
184.56,243.124438038
184.567,243.165699588
184.582,243.254071429
184.597,243.342374387
184.612,243.430600759
184.627,243.518742994
184.642,243.606793768
184.657,243.694745872
184.672,243.782592295
184.687,243.870326184
184.702,243.957940859
184.717,244.045429742
184.732,244.132786447
184.747,244.220004771
184.762,244.307078587
184.777,244.394001904
184.792,244.480768938
184.807,244.567373956
184.822,244.653811401
184.837,244.740075821
184.852,244.826161874
184.867,244.912064349
184.882,244.997778148
184.897,245.083298255
184.912,245.168619778
184.927,245.25373794
184.942,245.338648035
184.957,245.423345441
184.972,245.507825667
184.987,245.592084266
185.002,245.676116933
185.017,245.75991935
185.032,245.843487369
185.047,245.926816849
185.062,246.009903784
185.077,246.092744162
185.092,246.175334101
185.107,246.257669743
185.122,246.339747308
185.137,246.421563049
185.152,246.503113312
185.167,246.584394457
185.182,246.665402918
185.197,246.746135146
185.212,246.826587671
185.227,246.906757053
185.242,246.986639859
185.257,247.066232738
185.272,247.145532375
185.287,247.22453544
185.302,247.30323866
185.31,247.345089994
185.317,247.381638805
185.332,247.459732671
185.347,247.537517036
185.362,247.614988751
185.377,247.692144666
185.392,247.768981643
185.407,247.84549658
185.422,247.921686391
185.437,247.997547971
185.452,248.073078266
185.467,248.148274214
185.482,248.22313278
185.497,248.297650916
185.512,248.371825607
185.527,248.445653807
185.542,248.519132526
185.557,248.592258736
185.572,248.665029418
185.587,248.737441599
185.602,248.80949223
185.617,248.881178341
185.632,248.952496926
185.647,249.023444957
185.662,249.094019456
185.677,249.1642174
185.692,249.234035781
185.707,249.303471606
185.722,249.372521849
185.737,249.441183482
185.752,249.5094535
185.767,249.577328865
185.782,249.644806553
185.797,249.711883556
185.812,249.778556797
185.827,249.844823268
185.842,249.910679914
185.857,249.976123678
185.872,250.041151531
185.887,250.105760392
185.902,250.169947217
185.917,250.233708951
185.932,250.297042517
185.947,250.359944862
185.96,250.41410904
185.962,250.422412909
185.977,250.484443594
185.992,250.546033846
186.007,250.607180592
186.022,250.667880777
186.037,250.728131316
186.052,250.787929152
186.06,250.819635169
186.067,250.847271219
186.082,250.906154453
186.097,250.964575802
186.112,251.022532213
186.127,251.080020629
186.142,251.137038026
186.157,251.193581359
186.172,251.249647603
186.187,251.305233734
186.202,251.360336771
186.217,251.414953692
186.232,251.469081517
186.247,251.52271729
186.262,251.575858025
186.277,251.628500802
186.292,251.680642678
186.307,251.732280759
186.322,251.783412139
186.337,251.834033948
186.352,251.884143329
186.367,251.933737455
186.382,251.982813499
186.397,252.031368696
186.412,252.079400262
186.427,252.126905462
186.442,252.173881587
186.457,252.220325954
186.472,252.266235901
186.487,252.311608796
186.502,252.356442051
186.517,252.400733101
186.532,252.444479403
186.547,252.487678458
186.562,252.530327805
186.577,252.572425021
186.592,252.6139677
186.607,252.654953492
186.622,252.695380074
186.637,252.735245179
186.652,252.774546575
186.667,252.813282039
186.682,252.851449433
186.697,252.889046646
186.71,252.921168089
186.712,252.92607162
186.727,252.962522314
186.742,252.998396758
186.757,253.033693027
186.772,253.068409217
186.787,253.102543517
186.802,253.136094124
186.817,253.169059306
186.832,253.201437375
186.847,253.233226686
186.862,253.264425659
186.877,253.295032756
186.892,253.325046496
186.907,253.354465454
186.922,253.383288236
186.937,253.411513542
186.952,253.439140091
186.967,253.466166678
186.982,253.492592137
186.997,253.518415369
187.012,253.543635333
187.027,253.568251044
187.042,253.592261556
187.057,253.615666
187.072,253.638463566
187.087,253.660653483
187.102,253.682235063
187.117,253.703207639
187.132,253.723570646
187.147,253.743323563
187.162,253.762465898
187.177,253.780997255
187.192,253.798917295
187.207,253.816225691
187.222,253.832922237
187.237,253.849006744
187.252,253.864479109
187.267,253.879339278
187.282,253.893587229
187.297,253.907223046
187.312,253.920246838
187.327,253.932658776
187.342,253.944459116
187.357,253.955648115
187.372,253.966226159
187.387,253.976193645
187.402,253.985551027
187.417,253.99429885
187.432,254.00243766
187.447,254.009968133
187.46,254.016002985
187.462,254.016890939
187.477,254.023206839
187.492,254.028916622
187.507,254.034021148
187.522,254.038521351
187.537,254.042418174
187.552,254.045712652
187.567,254.048405858
187.582,254.050498925
187.597,254.051993032
187.612,254.052889412
187.627,254.053189357
187.642,254.052894186
187.657,254.052005306
187.672,254.050524141
187.687,254.048452185
187.702,254.045790974
187.717,254.042542085
187.732,254.03870715
187.747,254.034287861
187.762,254.029285933
187.777,254.023703138
187.792,254.017541311
187.807,254.010802284
187.822,254.003487996
187.837,253.995600372
187.852,253.987141433
187.867,253.97811319
187.882,253.968517733
187.897,253.958357177
187.912,253.947633685
187.927,253.936349447
187.942,253.92450672
187.957,253.91210777
187.972,253.899154904
187.987,253.885650493
188.002,253.871596903
188.017,253.856996564
188.032,253.84185193
188.047,253.82616553
188.062,253.809939845
188.077,253.793177451
188.092,253.775880942
188.107,253.758052944
188.122,253.739696105
188.137,253.720813104
188.152,253.701406688
188.167,253.681479545
188.182,253.66103449
188.197,253.6400743
188.21,253.621494315
188.212,253.618601813
188.227,253.596619879
188.242,253.574131363
188.257,253.551139154
188.272,253.527646208
188.287,253.503655461
188.302,253.479169878
188.317,253.454192447
188.332,253.428726201
188.347,253.40277416
188.362,253.37633938
188.377,253.349424938
188.392,253.32203393
188.407,253.294169449
188.422,253.265834648
188.437,253.237032646
188.452,253.207766628
188.467,253.178039753
188.482,253.147855213
188.497,253.117216219
188.512,253.086125994
188.527,253.05458775
188.542,253.022604754
188.557,252.990180244
188.572,252.957317496
188.587,252.924019786
188.602,252.890290392
188.617,252.856132635
188.632,252.821549789
188.647,252.786545188
188.66,252.755869287
188.662,252.751122159
188.677,252.715284005
188.692,252.679034091
188.707,252.642375739
188.722,252.605312298
