# 48698 WSSS Singapore Observations at 12Z 08 Mar 2019
Frequency [GHz],TB
175.31,277.836536
175.322,277.815597191
175.337,277.789354413
175.352,277.763034361
175.367,277.7366367
175.382,277.710161094
175.397,277.683607202
175.412,277.656974685
175.427,277.630263197
175.442,277.60347239
175.457,277.576601917
175.472,277.549651426
175.487,277.522620563
175.502,277.49550897
175.517,277.46831629
175.532,277.441042159
175.547,277.413686213
175.562,277.386248087
175.577,277.358727409
175.592,277.331123808
175.607,277.30343691
175.622,277.275666335
175.637,277.247811706
175.652,277.219872637
175.667,277.191848745
175.682,277.16373964
175.697,277.135544932
175.712,277.107264226
175.727,277.078897126
175.742,277.050443232
175.757,277.021902141
175.772,276.99327345
175.787,276.964556749
175.802,276.935751628
175.817,276.906857673
175.832,276.877874466
175.847,276.848801587
175.862,276.819638616
175.877,276.790385124
175.892,276.761040684
175.907,276.731604864
175.922,276.702077228
175.937,276.67245734
175.952,276.642744757
175.967,276.612939035
175.982,276.583039728
175.997,276.553046384
176.012,276.52295855
176.027,276.492775768
176.042,276.46249758
176.057,276.432123521
176.072,276.401653124
176.087,276.37108592
176.102,276.340421436
176.117,276.309659193
176.132,276.278798714
176.147,276.247839514
176.162,276.216781106
176.177,276.185623
176.192,276.154364702
176.207,276.123005716
176.222,276.09154554
176.237,276.05998367
176.252,276.028319599
176.267,275.996552814
176.282,275.964682802
176.297,275.932709043
176.31,275.904914129
176.312,275.900631016
176.327,275.868448194
176.342,275.836160046
176.357,275.803766042
176.372,275.771265643
176.387,275.738658308
176.402,275.705943493
176.417,275.673120649
176.432,275.640189223
176.447,275.607148661
176.46,275.578424792
176.462,275.5739984
176.477,275.540737877
176.492,275.507366525
176.507,275.473883771
176.522,275.44028904
176.537,275.40658175
176.552,275.372761318
176.567,275.338827156
176.582,275.30477867
176.597,275.270615266
176.612,275.236336342
176.627,275.201941293
176.642,275.16742951
176.657,275.132800379
176.672,275.098053284
176.687,275.063187602
176.702,275.028202704
176.717,274.993097964
176.732,274.957872743
176.747,274.922526403
176.762,274.887058299
176.777,274.851467784
176.792,274.815754204
176.807,274.7799169
176.822,274.743955212
176.837,274.707868471
176.852,274.671656006
176.867,274.635317142
176.882,274.598851196
176.897,274.562257483
176.912,274.525535312
176.927,274.488683988
176.942,274.451702811
176.957,274.414591076
176.972,274.377348071
176.987,274.339973083
177.002,274.302465391
177.017,274.26482427
177.032,274.22704899
177.047,274.189138816
177.062,274.151093006
177.077,274.112910816
177.092,274.074591495
177.107,274.036134287
177.122,273.99753843
177.137,273.958803157
177.152,273.919927697
177.167,273.880911273
177.182,273.841753101
177.197,273.802452392
177.21,273.768275869
177.212,273.763008355
177.227,273.723420187
177.242,273.683687086
177.257,273.64380824
177.272,273.603782833
177.287,273.563610042
177.302,273.523289041
177.31,273.501723618
177.317,273.482818996
177.332,273.442199066
177.347,273.401428407
177.362,273.360506168
177.377,273.319431492
177.392,273.278203516
177.407,273.23682137
177.422,273.195284179
177.437,273.153591061
177.452,273.111741129
177.467,273.06973349
177.482,273.027567242
177.497,272.98524148
177.512,272.942755291
177.527,272.900107755
177.542,272.857297948
177.557,272.814324937
177.572,272.771187782
177.587,272.72788554
177.602,272.684417257
177.617,272.640781976
177.632,272.59697873
177.647,272.553006548
177.66,272.514759917
177.662,272.508864451
177.677,272.464551453
177.692,272.420066561
177.707,272.375408775
177.722,272.330577087
177.737,272.285570486
177.752,272.240387948
177.767,272.195028445
177.782,272.149490943
177.797,272.103774397
177.812,272.057877758
177.827,272.011799968
177.842,271.965539962
177.857,271.919096666
177.872,271.872469001
177.887,271.825655879
177.902,271.778656203
177.917,271.731468871
177.932,271.684092771
177.947,271.636526784
177.96,271.59514846
177.962,271.588769782
177.977,271.540820632
177.992,271.492678188
178.007,271.444341302
178.022,271.395808812
178.037,271.34707955
178.052,271.298152342
178.067,271.249026003
178.082,271.19969934
178.097,271.15017115
178.112,271.100440226
178.127,271.050505349
178.142,271.00036529
178.157,270.950018815
178.172,270.899464678
178.187,270.848701628
178.202,270.797728399
178.217,270.746543722
178.232,270.695146315
178.247,270.64353489
178.262,270.591708147
178.277,270.539664778
178.292,270.487403466
178.307,270.434922883
178.322,270.382221694
178.337,270.329298552
178.352,270.276152102
178.367,270.22278098
178.382,270.169183809
178.397,270.115359206
178.41,270.068526171
178.412,270.061305775
178.427,270.007022113
178.442,269.952506805
178.457,269.897758426
178.472,269.842775541
178.487,269.787556706
178.502,269.732100465
178.517,269.676405352
178.532,269.620469893
178.547,269.564292599
178.562,269.507871974
178.577,269.451206511
178.592,269.39429469
178.607,269.337134983
178.622,269.279725849
178.637,269.222065739
178.652,269.164153089
178.667,269.105986327
178.682,269.047563869
178.697,268.988884121
178.712,268.929945474
178.727,268.870746313
178.742,268.811285008
178.757,268.751559917
178.772,268.691569391
178.787,268.631311765
178.802,268.570785365
178.817,268.509988503
178.832,268.448919481
178.847,268.38757659
178.862,268.325958107
178.877,268.264062299
178.892,268.201887421
178.907,268.139431713
178.922,268.076693408
178.937,268.013670723
178.952,267.950361864
178.967,267.886765026
178.982,267.822878391
178.997,267.758700128
179.012,267.694228396
179.027,267.629461338
179.042,267.564397087
179.057,267.499033767
179.072,267.433369482
179.087,267.367402331
179.102,267.301130395
179.117,267.234551746
179.132,267.167664443
179.147,267.100466533
179.16,267.041975576
179.162,267.032956047
179.177,266.965131009
179.192,266.896989427
179.207,266.828529296
179.222,266.759748602
179.237,266.690645316
179.252,266.621217397
179.267,266.551462792
179.282,266.481379436
179.297,266.410965251
179.312,266.340218146
179.327,266.269136021
179.342,266.19771676
179.357,266.125958238
179.372,266.053858316
179.387,265.981414843
179.402,265.908625657
179.417,265.835488586
179.432,265.762001442
179.447,265.688162029
179.462,265.613968138
179.477,265.53941755
179.492,265.464508032
179.507,265.389237343
179.522,265.313603229
179.537,265.237603426
179.552,265.161235659
179.567,265.084497644
179.582,265.007387084
179.597,264.929901674
179.612,264.852039098
179.627,264.773797032
179.642,264.69517314
179.657,264.616165078
179.672,264.536770494
179.687,264.456987025
179.702,264.376812302
179.717,264.296243946
179.732,264.215279571
179.747,264.133916782
179.762,264.052153179
179.777,263.969986354
179.792,263.88741389
179.807,263.804433369
179.822,263.721042363
179.837,263.637238438
179.852,263.553019159
179.867,263.468382083
179.882,263.383324762
179.897,263.297844748
179.91,263.223418261
179.912,263.211939587
179.927,263.125606822
179.942,263.038843996
179.957,262.951648647
179.972,262.864018313
179.987,262.775950533
180.002,262.687442844
180.017,262.598492784
180.032,262.509097891
180.047,262.419255707
180.062,262.328963773
180.077,262.238219635
180.092,262.147020844
180.107,262.055364952
180.122,261.963249519
180.137,261.870672107
180.152,261.77763029
180.167,261.684121645
180.182,261.590143758
180.197,261.495694224
180.212,261.400770649
180.227,261.305370646
180.242,261.209491844
180.257,261.113131881
180.272,261.01628841
180.287,260.918959096
180.302,260.82114162
180.317,260.72283368
180.332,260.62403299
180.347,260.524737282
180.362,260.424944306
180.377,260.324651834
180.392,260.223857656
180.407,260.122559586
180.422,260.02075546
180.437,259.91844314
180.452,259.815620509
180.467,259.712285481
180.482,259.608435994
180.497,259.504070015
180.512,259.399185541
180.527,259.293780599
180.542,259.187853248
180.557,259.08140158
180.56,259.060048163
180.572,258.97442372
180.587,258.866917829
180.602,258.758882103
180.617,258.650314776
180.632,258.54121412
180.647,258.431578446
180.66,258.336126818
180.662,258.321406107
180.677,258.210695495
180.692,258.099445047
180.707,257.987653241
180.722,257.875318603
180.737,257.762439702
180.752,257.649015153
180.767,257.535043622
180.782,257.420523819
180.797,257.305454507
180.812,257.189834497
180.827,257.073662652
180.842,256.956937885
180.857,256.839659164
180.872,256.721825508
180.887,256.603435991
180.902,256.48448974
180.917,256.364985938
180.932,256.244923821
180.947,256.124302684
180.962,256.003121874
180.977,255.881380798
180.992,255.759078915
181.007,255.636215744
181.022,255.512790857
181.037,255.388803885
181.052,255.264254513
181.067,255.139142482
181.082,255.01346759
181.097,254.887229685
181.112,254.760428674
181.127,254.633064515
181.142,254.50513722
181.157,254.376646849
181.172,254.247593517
181.187,254.117977385
181.202,253.987798664
181.217,253.857057609
181.232,253.725754522
181.247,253.593889747
181.262,253.461463671
181.277,253.328476717
181.292,253.194929348
181.307,253.060822062
181.31,253.03393346
181.322,252.926155387
181.337,252.790929883
181.352,252.655146138
181.367,252.518804762
181.382,252.381906389
181.397,252.244451671
181.412,252.106441275
181.427,251.967875882
181.442,251.828756178
181.457,251.68908286
181.472,251.548856623
181.487,251.408078161
181.502,251.266748164
181.517,251.124867312
181.532,250.982436272
181.547,250.839455696
181.562,250.695926213
181.577,250.551848431
181.592,250.407222928
181.607,250.26205025
181.622,250.116330909
181.637,249.970065378
181.652,249.823254088
181.667,249.675897423
181.682,249.52799572
181.697,249.379549263
181.712,249.230558285
181.727,249.081022958
181.742,248.930943399
181.757,248.780319664
181.772,248.629151746
181.787,248.477439577
181.802,248.325183027
181.817,248.172381903
181.832,248.019035949
181.847,247.865144851
181.862,247.710708237
181.877,247.555725678
181.892,247.400196696
181.907,247.244120765
181.922,247.08749732
181.937,246.930325761
181.952,246.772605461
181.967,246.614335777
181.982,246.455516059
181.997,246.296145661
182.012,246.136223957
182.027,245.975750352
182.042,245.8147243
182.057,245.653145324
182.06,245.620763141
182.072,245.49101303
182.087,245.328327137
182.102,245.165087495
182.117,245.001294112
182.132,244.836947184
182.147,244.672047123
182.162,244.506594592
182.177,244.340590542
182.192,244.174036246
182.207,244.006933346
182.222,243.839283892
182.237,243.671090393
182.252,243.502355865
182.267,243.333083886
182.282,243.163278655
182.297,242.992945051
182.312,242.822088698
182.327,242.650716032
182.342,242.478834377
182.357,242.30645202
182.372,242.133578289
182.387,241.96022364
182.402,241.786399747
182.417,241.612119594
182.432,241.437397572
182.447,241.262249581
182.462,241.086693138
182.477,240.910747485
182.492,240.734433708
182.507,240.557774849
182.522,240.380796034
182.537,240.203524595
182.552,240.025990203
182.567,239.848224996
182.582,239.670263714
182.597,239.492143835
182.612,239.31390571
182.627,239.1355927
182.642,238.957251309
182.657,238.778931316
182.672,238.600685902
182.687,238.422571772
182.702,238.244649263
182.717,238.06698245
182.732,237.889639229
182.747,237.712691385
182.762,237.536214636
182.777,237.360288652
182.792,237.184997039
182.807,237.010427276
182.822,236.83667061
182.837,236.663821887
182.852,236.491979309
182.867,236.321244112
182.882,236.151720137
182.897,235.983513278
182.912,235.816730796
182.927,235.651480456
182.942,235.487869473
182.957,235.326003232
182.972,235.165983733
182.987,235.007907755
183.002,234.85186467
183.017,234.697933901
183.032,234.546182015
183.047,234.396659453
183.062,234.249397018
183.077,234.104402293
183.092,233.96165644
183.107,233.821112135
183.122,233.682694045
183.137,233.546304322
183.152,233.411837341
183.167,233.279210812
183.182,233.14842497
183.197,233.019668086
183.212,232.893494533
183.227,232.771106392
183.242,232.654756725
183.257,232.548227979
183.367,232.560744057
183.382,232.66678309
183.397,232.781544132
183.412,232.901674041
183.427,233.025227864
183.442,233.151198526
183.457,233.279144104
183.472,233.4089353
183.487,233.540598642
183.502,233.674224855
183.517,233.809918189
183.532,233.947770317
183.547,234.087848451
183.562,234.230191415
183.577,234.374809976
183.592,234.52168928
183.607,234.670792207
183.622,234.822062945
183.637,234.975430455
183.652,235.130811648
183.667,235.288114195
183.682,235.447238974
183.697,235.608082163
183.712,235.770536998
183.727,235.934495252
183.742,236.099848454
183.757,236.266488892
183.772,236.434310421
183.787,236.60320912
183.802,236.773083801
183.817,236.943836414
183.832,237.115372345
183.847,237.287600637
183.862,237.460434142
183.877,237.633789616
183.892,237.807587765
183.907,237.981753252
183.922,238.156214675
183.937,238.330904512
183.952,238.505759051
183.967,238.680718299
183.982,238.855725881
183.997,239.030728922
184.012,239.205677927
184.027,239.380526655
184.042,239.555231985
184.057,239.729753783
184.072,239.904054767
184.087,240.078100372
184.102,240.251858615
184.117,240.425299965
184.132,240.59839721
184.147,240.771125332
184.162,240.94346138
184.177,241.115384354
184.192,241.286875085
184.207,241.457916123
184.222,241.62849163
184.237,241.798587272
184.252,241.968190125
184.267,242.13728857
184.282,242.305872213
184.297,242.473931789
184.312,242.641459079
184.327,242.808446839
184.342,242.974888716
184.357,243.140779182
184.372,243.306113464
184.387,243.470887484
184.402,243.635097796
184.417,243.798741531
184.432,243.961816343
184.447,244.12432036
184.462,244.28625214
184.477,244.44761062
184.492,244.608395084
184.507,244.768605117
184.522,244.928240577
184.537,245.087301555
184.552,245.24578835
184.56,245.330080022
184.567,245.403701438
184.582,245.561041448
184.597,245.717809134
184.612,245.874005357
184.627,246.029631064
184.642,246.184687267
184.657,246.339175032
184.672,246.493095456
184.687,246.64644966
184.702,246.799238772
184.717,246.95146392
184.732,247.103126221
184.747,247.254226769
184.762,247.404766633
184.777,247.554746846
184.792,247.704168403
184.807,247.853032253
184.822,248.001339299
184.837,248.149090389
184.852,248.296286323
184.867,248.442927841
184.882,248.589015627
184.897,248.734550311
184.912,248.879532464
184.927,249.023962599
184.942,249.167841176
184.957,249.311168597
184.972,249.453945214
184.987,249.596171324
185.002,249.737847178
185.017,249.878972978
185.032,250.01954888
185.047,250.159575001
185.062,250.299051417
185.077,250.437978167
185.092,250.576355259
185.107,250.714182669
185.122,250.851460345
185.137,250.988188214
185.152,251.12436618
185.167,251.259994131
185.182,251.39507194
185.197,251.529599468
185.212,251.663576571
185.227,251.797003098
185.242,251.929878895
185.257,252.062203813
185.272,252.193977703
185.287,252.325200426
185.302,252.455871852
185.31,252.525337819
185.317,252.585991863
185.332,252.715560355
185.347,252.844577243
185.362,252.973042461
185.377,253.100955965
185.392,253.228317735
185.407,253.355127777
185.422,253.481386127
185.437,253.607092847
185.452,253.732248034
185.467,253.856851817
185.482,253.98090436
185.497,254.104405863
185.512,254.227356562
185.527,254.349756733
185.542,254.471606692
185.557,254.592906793
185.572,254.713657434
185.587,254.833859054
185.602,254.953512134
185.617,255.072617199
185.632,255.191174819
185.647,255.309185606
185.662,255.426650218
185.677,255.543569358
185.692,255.659943771
185.707,255.775774252
185.722,255.891061635
185.737,256.005806805
185.752,256.120010687
185.767,256.233674253
185.782,256.346798518
185.797,256.459384541
185.812,256.571433428
185.827,256.682946324
185.842,256.793924417
185.857,256.904368941
185.872,257.014281168
185.887,257.123662413
185.902,257.232514031
185.917,257.340837416
185.932,257.448634003
185.947,257.555905265
185.96,257.648449928
185.962,257.662652711
185.977,257.768877889
185.992,257.874582382
186.007,257.979767809
186.022,258.084435824
186.037,258.188588113
186.052,258.292226396
186.06,258.347290579
186.067,258.395352425
186.082,258.497967983
186.097,258.600074883
186.112,258.701674967
186.127,258.802770107
186.142,258.9033622
186.157,259.003453173
186.172,259.103044975
186.187,259.202139581
186.202,259.300738993
186.217,259.398845232
186.232,259.496460343
186.247,259.593586391
186.262,259.690225463
186.277,259.786379666
186.292,259.882051122
186.307,259.977241974
186.322,260.071954381
186.337,260.166190519
186.352,260.259952576
186.367,260.353242759
186.382,260.446063285
186.397,260.538416385
186.412,260.630304302
186.427,260.72172929
186.442,260.812693614
186.457,260.903199549
186.472,260.993249378
186.487,261.082845392
186.502,261.171989891
186.517,261.26068518
186.532,261.348933572
186.547,261.436737385
186.562,261.524098941
186.577,261.611020567
186.592,261.697504595
186.607,261.783553356
186.622,261.869169188
186.637,261.954354427
186.652,262.039111414
186.667,262.123442488
186.682,262.207349989
186.697,262.290836257
186.71,262.362852099
186.712,262.37390363
186.727,262.456554448
186.742,262.538791045
186.757,262.620615755
186.772,262.70203091
186.787,262.783038837
186.802,262.863641861
186.817,262.943842302
186.832,263.023642478
186.847,263.103044698
186.862,263.182051271
186.877,263.260664497
186.892,263.338886671
186.907,263.416720083
186.922,263.494167016
186.937,263.571229746
186.952,263.647910542
186.967,263.724211668
186.982,263.800135375
186.997,263.875683913
187.012,263.95085952
187.027,264.025664425
187.042,264.100100851
187.057,264.174171011
187.072,264.24787711
187.087,264.321221343
187.102,264.394205895
187.117,264.466832943
187.132,264.539104654
187.147,264.611023183
187.162,264.682590679
187.177,264.753809279
187.192,264.824681109
187.207,264.895208284
187.222,264.96539291
187.237,265.035237083
187.252,265.104742886
187.267,265.173912394
187.282,265.242747669
187.297,265.311250761
187.312,265.379423711
187.327,265.44726855
187.342,265.514787294
187.357,265.58198195
187.372,265.648854513
187.387,265.715406967
187.402,265.781641285
187.417,265.847559427
187.432,265.913163343
187.447,265.97845497
187.46,266.034789929
187.462,266.043436234
187.477,266.108109051
187.492,266.172475322
187.507,266.236536939
187.522,266.300295781
187.537,266.363753716
187.552,266.426912601
187.567,266.489774278
187.582,266.552340582
187.597,266.614613334
187.612,266.676594341
187.627,266.738285404
187.642,266.799688306
187.657,266.860804823
187.672,266.921636718
187.687,266.982185741
187.702,267.042453632
187.717,267.10244212
187.732,267.162152922
187.747,267.221587741
187.762,267.280748273
187.777,267.339636199
187.792,267.39825319
187.807,267.456600906
187.822,267.514680997
187.837,267.572495097
187.852,267.630044835
187.867,267.687331824
187.882,267.744357668
187.897,267.80112396
187.912,267.857632283
187.927,267.913884205
187.942,267.969881289
187.957,268.025625082
187.972,268.081117123
187.987,268.13635894
188.002,268.191352049
188.017,268.246097957
188.032,268.300598159
188.047,268.354854142
188.062,268.408867379
188.077,268.462639336
188.092,268.516171467
188.107,268.569465215
188.122,268.622522014
188.137,268.675343288
188.152,268.727930451
188.167,268.780284906
188.182,268.832408047
188.197,268.884301258
188.21,268.929090447
188.212,268.935965912
188.227,268.987403373
188.242,269.038614998
188.257,269.089602129
188.272,269.140366104
188.287,269.190908247
188.302,269.241229876
188.317,269.291332297
188.332,269.341216808
188.347,269.390884697
188.362,269.440337246
188.377,269.489575723
188.392,269.53860139
188.407,269.587415499
188.422,269.636019294
188.437,269.68441401
188.452,269.732600871
188.467,269.780581096
188.482,269.828355893
188.497,269.875926462
188.512,269.923293994
188.527,269.970459672
188.542,270.01742467
188.557,270.064190154
188.572,270.110757284
188.587,270.157127207
188.602,270.203301066
188.617,270.249279994
188.632,270.295065116
188.647,270.340657551
188.66,270.380015988
188.662,270.386058406
188.677,270.431268785
188.692,270.47628978
188.707,270.521122479
188.722,270.565767959
188.737,270.610227291
188.752,270.654501538
