# 10410 EDZE Essen Observations at 12Z 14 May 2019
Frequency [GHz],TB
175.31,266.498286113
175.322,266.515406275
175.337,266.536629511
175.352,266.557655029
175.367,266.578481663
175.382,266.599108247
175.397,266.619533617
175.412,266.639756611
175.427,266.659776068
175.442,266.67959083
175.457,266.699199739
175.472,266.718601639
175.487,266.737795379
175.502,266.756779806
175.517,266.775553773
175.532,266.794116133
175.547,266.812465742
175.562,266.83060146
175.577,266.848522148
175.592,266.866226671
175.607,266.883713897
175.622,266.900982697
175.637,266.918031945
175.652,266.934860519
175.667,266.951467299
175.682,266.967851172
175.697,266.984011026
175.712,266.999945753
175.727,267.01565425
175.742,267.031135419
175.757,267.046388166
175.772,267.061411398
175.787,267.076204033
175.802,267.090764988
175.817,267.105093189
175.832,267.119187564
175.847,267.133047048
175.862,267.146670582
175.877,267.16005711
175.892,267.173205584
175.907,267.186114961
175.922,267.198784203
175.937,267.21121228
175.952,267.223398167
175.967,267.235340845
175.982,267.247039302
175.997,267.258492533
176.012,267.269699541
176.027,267.280659333
176.042,267.291370926
176.057,267.301833342
176.072,267.312045613
176.087,267.322006776
176.102,267.331715878
176.117,267.341171972
176.132,267.350374122
176.147,267.359321396
176.162,267.368012874
176.177,267.376447642
176.192,267.384624799
176.207,267.392543447
176.222,267.400202701
176.237,267.407601685
176.252,267.414739531
176.267,267.421615381
176.282,267.428228386
176.297,267.43457771
176.31,267.439866527
176.312,267.440662523
176.327,267.446482007
176.342,267.452035356
176.357,267.45732177
176.372,267.462340464
176.387,267.467090663
176.402,267.471571601
176.417,267.475782525
176.432,267.479722693
176.447,267.483391374
176.46,267.486350738
176.462,267.486787848
176.477,267.48991141
176.492,267.492761363
176.507,267.495337023
176.522,267.497637721
176.537,267.499662798
176.552,267.501411607
176.567,267.502883517
176.582,267.504077906
176.597,267.504994166
176.612,267.505631706
176.627,267.505989943
176.642,267.506068311
176.657,267.505866257
176.672,267.505383241
176.687,267.504618736
176.702,267.503572234
176.717,267.502243234
176.732,267.500631256
176.747,267.498735831
176.762,267.496556506
176.777,267.494092841
176.792,267.491344414
176.807,267.488310816
176.822,267.484991653
176.837,267.481386548
176.852,267.477495138
176.867,267.473317077
176.882,267.468852034
176.897,267.464099694
176.912,267.459059758
176.927,267.453731942
176.942,267.448115982
176.957,267.442211625
176.972,267.43601864
176.987,267.429536808
177.002,267.42276593
177.017,267.415705821
177.032,267.408356316
177.047,267.400717265
177.062,267.392788534
177.077,267.38457001
177.092,267.376061595
177.107,267.367263206
177.122,267.358174783
177.137,267.348796278
177.152,267.339127665
177.167,267.329168933
177.182,267.31892009
177.197,267.308381161
177.21,267.299012808
177.212,267.297552189
177.227,267.286433237
177.242,267.275024383
177.257,267.263325724
177.272,267.251337377
177.287,267.239059474
177.302,267.226492168
177.31,267.219671329
177.317,267.213635629
177.332,267.200490045
177.347,267.187055623
177.362,267.173332588
177.377,267.159321181
177.392,267.145021667
177.407,267.130434323
177.422,267.115559449
177.437,267.10039736
177.452,267.084948391
177.467,267.069212896
177.482,267.053191245
177.497,267.036883829
177.512,267.020291054
177.527,267.003413347
177.542,266.986251152
177.557,266.968804931
177.572,266.951075163
177.587,266.933062348
177.602,266.914767
177.617,266.896189654
177.632,266.87733086
177.647,266.858191189
177.66,266.841376728
177.662,266.838771227
177.677,266.819071578
177.692,266.799092863
177.707,266.778835721
177.722,266.758300809
177.737,266.737488799
177.752,266.71640038
177.767,266.69503626
177.782,266.673397162
177.797,266.651483825
177.812,266.629297005
177.827,266.606837474
177.842,266.584106021
177.857,266.561103449
177.872,266.537830577
177.887,266.514288242
177.902,266.490477292
177.917,266.466398593
177.932,266.442053025
177.947,266.417441483
177.96,266.395897039
177.962,266.392564876
177.977,266.367424127
177.992,266.342020174
178.007,266.316353966
178.022,266.290426469
178.037,266.26423866
178.052,266.237791529
178.067,266.211086081
178.082,266.184123328
178.097,266.156904301
178.112,266.129430038
178.127,266.10170159
178.142,266.073720019
178.157,266.045486398
178.172,266.017001811
178.187,265.988267352
178.202,265.959284124
178.217,265.930053242
178.232,265.900575827
178.247,265.870853013
178.262,265.840885938
178.277,265.810675752
178.292,265.780223611
178.307,265.749530679
178.322,265.718598126
178.337,265.68742713
178.352,265.656018877
178.367,265.624374554
178.382,265.592495359
178.397,265.560382492
178.41,265.532363256
178.412,265.528037157
178.427,265.495460566
178.442,265.462653932
178.457,265.429618471
178.472,265.396355405
178.487,265.362865956
178.502,265.329151349
178.517,265.295212812
178.532,265.261051571
178.547,265.226668858
178.562,265.1920659
178.577,265.157243927
178.592,265.122204169
178.607,265.086947854
178.622,265.051476207
178.637,265.015790454
178.652,264.979891817
178.667,264.943781516
178.682,264.907460766
178.697,264.870930781
178.712,264.834192768
178.727,264.797247931
178.742,264.760097468
178.757,264.722742572
178.772,264.685184429
178.787,264.647424218
178.802,264.609463113
178.817,264.571302277
178.832,264.532942868
178.847,264.494386034
178.862,264.455632913
178.877,264.416684636
178.892,264.377542321
178.907,264.338207077
178.922,264.298680002
178.937,264.258962182
178.952,264.21905469
178.967,264.17895859
178.982,264.138674928
178.997,264.09820474
179.012,264.057549048
179.027,264.016708858
179.042,263.975685163
179.057,263.934478938
179.072,263.893091144
179.087,263.851522726
179.102,263.809774611
179.117,263.76784771
179.132,263.725742917
179.147,263.683461104
179.16,263.646674341
179.162,263.64100313
179.177,263.59836983
179.192,263.555562023
179.207,263.512580507
179.222,263.46942606
179.237,263.426099438
179.252,263.382601377
179.267,263.338932592
179.282,263.295093775
179.297,263.251085596
179.312,263.206908704
179.327,263.162563721
179.342,263.118051249
179.357,263.073371864
179.372,263.02852612
179.387,262.983514544
179.402,262.93833764
179.417,262.892995885
179.432,262.847489732
179.447,262.801819606
179.462,262.755985908
179.477,262.70998901
179.492,262.663829259
179.507,262.617506974
179.522,262.571022445
179.537,262.524375937
179.552,262.477567683
179.567,262.430597892
179.582,262.383466741
179.597,262.336174379
179.612,262.288720925
179.627,262.24110647
179.642,262.193331074
179.657,262.145394768
179.672,262.09729755
179.687,262.049039391
179.702,262.00062023
179.717,261.952039974
179.732,261.9032985
179.747,261.854395653
179.762,261.805331246
179.777,261.756105063
179.792,261.706716852
179.807,261.657166333
179.822,261.607453189
179.837,261.557577075
179.852,261.507537612
179.867,261.457334386
179.882,261.406966953
179.897,261.356434835
179.91,261.312506725
179.912,261.305737519
179.927,261.254874463
179.942,261.203845086
179.957,261.152648779
179.972,261.101284894
179.987,261.049752753
180.002,260.998051642
180.017,260.946180815
180.032,260.894139489
180.047,260.84192685
180.062,260.789542047
180.077,260.736984196
180.092,260.684252378
180.107,260.63134564
180.122,260.578262993
180.137,260.525003415
180.152,260.471565848
180.167,260.4179492
180.182,260.364152342
180.197,260.310174113
180.212,260.256013316
180.227,260.201668717
180.242,260.147139048
180.257,260.092423007
180.272,260.037519255
180.287,259.982426418
180.302,259.927143087
180.317,259.871667818
180.332,259.815999131
180.347,259.760135509
180.362,259.704075402
180.377,259.647817222
180.392,259.591359348
180.407,259.53470012
180.422,259.477837845
180.437,259.420770794
180.452,259.363497199
180.467,259.306015261
180.482,259.248323141
180.497,259.190418966
180.512,259.132300826
180.527,259.073966777
180.542,259.015414837
180.557,258.956642988
180.56,258.944862049
180.572,258.897649177
180.587,258.838431314
180.602,258.778987274
180.617,258.719314894
180.632,258.659411977
180.647,258.599276287
180.66,258.546968648
180.662,258.538905554
180.677,258.478297472
180.692,258.417449698
180.707,258.356359851
180.722,258.295025517
180.737,258.233444245
180.752,258.171613545
180.767,258.109530893
180.782,258.04719373
180.797,257.984599459
180.812,257.921745447
180.827,257.858629026
180.842,257.795247491
180.857,257.7315981
180.872,257.667678079
180.887,257.603484613
180.902,257.539014856
180.917,257.474265924
180.932,257.409234896
180.947,257.34391882
180.962,257.278314705
180.977,257.212419527
180.992,257.146230225
181.007,257.079743707
181.022,257.012956843
181.037,256.945866471
181.052,256.878469394
181.067,256.810762382
181.082,256.742742172
181.097,256.674405468
181.112,256.605748942
181.127,256.536769231
181.142,256.467462946
181.157,256.397826661
181.172,256.327856924
181.187,256.25755025
181.202,256.186903127
181.217,256.115912013
181.232,256.044573338
181.247,255.972883507
181.262,255.900838895
181.277,255.828435856
181.292,255.755670716
181.307,255.68253978
181.31,255.667869371
181.322,255.609039331
181.337,255.535165629
181.352,255.460914916
181.367,255.386283415
181.382,255.311267333
181.397,255.235862861
181.412,255.160066178
181.427,255.083873448
181.442,255.007280829
181.457,254.930284468
181.472,254.852880508
181.487,254.775065088
181.502,254.696834347
181.517,254.618184424
181.532,254.539111464
181.547,254.459611617
181.562,254.379681046
181.577,254.299315926
181.592,254.218512449
181.607,254.137266827
181.622,254.055575299
181.637,253.973434131
181.652,253.89083962
181.667,253.807788105
181.682,253.724275964
181.697,253.640299622
181.712,253.555855559
181.727,253.470940311
181.742,253.385550482
181.757,253.299682741
181.772,253.21333384
181.787,253.126500611
181.802,253.039179979
181.817,252.951368969
181.832,252.86306471
181.847,252.77426445
181.862,252.68496556
181.877,252.595165543
181.892,252.50486205
181.907,252.41405288
181.922,252.322736001
181.937,252.230909554
181.952,252.138571866
181.967,252.045721466
181.982,251.952357093
181.997,251.858477712
182.012,251.764082526
182.027,251.669170991
182.042,251.573742832
182.057,251.477798056
182.06,251.458547128
182.072,251.381336969
182.087,251.284360194
182.102,251.186868687
182.117,251.088863752
182.132,250.990347063
182.147,250.891320681
182.162,250.791787074
182.177,250.691749132
182.192,250.591210195
182.207,250.490174066
182.222,250.388645034
182.237,250.286627896
182.252,250.184127977
182.267,250.08115115
182.282,249.977703857
182.297,249.87379313
182.312,249.769426612
182.327,249.664612573
182.342,249.559359933
182.357,249.453678275
182.372,249.347577864
182.387,249.24106966
182.402,249.13416533
182.417,249.026877257
182.432,248.919218549
182.447,248.811203035
182.462,248.70284527
182.477,248.594160523
182.492,248.485164765
182.507,248.375874649
182.522,248.266307477
182.537,248.156481166
182.552,248.046414192
182.567,247.936125533
182.582,247.825634582
182.597,247.714961054
182.612,247.604124871
182.627,247.493146013
182.642,247.382044356
182.657,247.270839466
182.672,247.159550365
182.687,247.048195243
182.702,246.936791131
182.717,246.825353508
182.732,246.71389584
182.747,246.602429045
182.762,246.490960851
182.777,246.37949506
182.792,246.268030661
182.807,246.156560803
182.822,246.045071577
182.837,245.933540568
182.852,245.821935153
182.867,245.710210463
182.882,245.598306963
182.897,245.486147546
182.912,245.373634042
182.927,245.260642997
182.942,245.147020555
182.957,245.0325762
182.972,244.917075081
182.987,244.800228535
183.002,244.681682295
183.017,244.561001756
183.032,244.437653404
183.047,244.310981278
183.062,244.180176936
183.077,244.044240888
183.092,243.901932819
183.107,243.751707124
183.122,243.591629311
183.137,243.41926808
183.152,243.2315578
183.167,243.024628776
183.182,242.793612747
183.197,242.532461171
183.212,242.233896063
183.227,241.889829271
183.242,241.493133239
183.257,241.042917017
183.367,241.14668439
183.382,241.580427309
183.397,241.959841235
183.412,242.288208711
183.427,242.573190641
183.442,242.822750254
183.457,243.043859213
183.472,243.242249168
183.487,243.422513433
183.502,243.588298151
183.517,243.742492027
183.532,243.8873878
183.547,244.024811687
183.562,244.156224522
183.577,244.282799967
183.592,244.405484823
183.607,244.525045632
183.622,244.642104831
183.637,244.75716895
183.652,244.87065075
183.667,244.982886712
183.682,245.094150948
183.697,245.204666343
183.712,245.314613528
183.727,245.424138167
183.742,245.53335689
183.757,245.642362171
183.772,245.751226343
183.787,245.860004932
183.802,245.968739428
183.817,246.077459603
183.832,246.186185458
183.847,246.294928855
183.862,246.403694907
183.877,246.512483139
183.892,246.621288488
183.907,246.73010214
183.922,246.838912249
183.937,246.947704547
183.952,247.056462862
183.967,247.165169563
183.982,247.273805934
183.997,247.382352493
184.012,247.490789267
184.027,247.599096018
184.042,247.707252437
184.057,247.815238308
184.072,247.923033645
184.087,248.030618803
184.102,248.13797457
184.117,248.245082247
184.132,248.351923706
184.147,248.458481439
184.162,248.564738595
184.177,248.670679007
184.192,248.776287214
184.207,248.88154847
184.222,248.986448754
184.237,249.090974769
184.252,249.195113939
184.267,249.298854404
184.282,249.402185009
184.297,249.505095293
184.312,249.607575474
184.327,249.709616433
184.342,249.811209694
184.357,249.912347412
184.372,250.013022347
184.387,250.113227847
184.402,250.212957829
184.417,250.312206756
184.432,250.410969615
184.447,250.509241902
184.462,250.607019596
184.477,250.70429914
184.492,250.801077423
184.507,250.897351758
184.522,250.993119863
184.537,251.088379844
184.552,251.183130174
184.56,251.233454872
184.567,251.277369675
184.582,251.371097504
184.597,251.464313132
184.612,251.557016332
184.627,251.649207158
184.642,251.740885934
184.657,251.832053237
184.672,251.922709885
184.687,252.01285692
184.702,252.102495598
184.717,252.191627375
184.732,252.280253897
184.747,252.368376984
184.762,252.455998623
184.777,252.543120957
184.792,252.629746272
184.807,252.715876991
184.822,252.801515662
184.837,252.886664951
184.852,252.971327634
184.867,253.055506585
184.882,253.139204773
184.897,253.222425253
184.912,253.30517116
184.927,253.387445699
184.942,253.469252144
184.957,253.550593828
184.972,253.63147414
184.987,253.711896515
185.002,253.791864438
185.017,253.871381428
185.032,253.950451042
185.047,254.029076869
185.062,254.107262521
185.077,254.185011636
185.092,254.262327869
185.107,254.339214892
185.122,254.41567639
185.137,254.491716055
185.152,254.567337589
185.167,254.642544696
185.182,254.71734108
185.197,254.791730446
185.212,254.865716494
185.227,254.939302921
185.242,255.012493412
185.257,255.085291647
185.272,255.157701293
185.287,255.229726003
185.302,255.301369416
185.31,255.339424581
185.317,255.372635158
185.332,255.443526834
185.347,255.514048031
185.362,255.58420232
185.377,255.653993245
185.392,255.723424334
185.407,255.79249909
185.422,255.86122099
185.437,255.929593489
185.452,255.997620018
185.467,256.065303979
185.482,256.132648748
185.497,256.199657676
185.512,256.266334083
185.527,256.332681263
185.542,256.39870248
185.557,256.46440097
185.572,256.529779939
185.587,256.594842562
185.602,256.659591984
185.617,256.724031321
185.632,256.788163656
185.647,256.851992043
185.662,256.915519504
185.677,256.978749029
185.692,257.041683576
185.707,257.104326074
185.722,257.166679417
185.737,257.228746469
185.752,257.290530062
185.767,257.352032993
185.782,257.413258032
185.797,257.474207913
185.812,257.534885338
185.827,257.59529298
185.842,257.655433475
185.857,257.715309432
185.872,257.774923424
185.887,257.834277994
185.902,257.893375651
185.917,257.952218875
185.932,258.010810111
185.947,258.069151774
185.96,258.119514514
185.962,258.127246247
185.977,258.18509588
185.992,258.242702993
186.007,258.300069874
186.022,258.357198778
186.037,258.414091931
186.052,258.470751527
186.06,258.500875227
186.067,258.527179728
186.082,258.583378664
186.097,258.639350437
186.112,258.695097116
186.127,258.75062074
186.142,258.805923317
186.157,258.861006824
186.172,258.915873209
186.187,258.970524388
186.202,259.024962249
186.217,259.079188647
186.232,259.133205409
186.247,259.187014332
186.262,259.240617184
186.277,259.294015702
186.292,259.347211593
186.307,259.400206537
186.322,259.453002182
186.337,259.505600151
186.352,259.558002033
186.367,259.610209391
186.382,259.662223759
186.397,259.714046643
186.412,259.765679519
186.427,259.817123835
186.442,259.868381012
186.457,259.919452442
186.472,259.970339488
186.487,260.021043487
186.502,260.071565748
186.517,260.121907552
186.532,260.172070151
186.547,260.222054772
186.562,260.271862613
186.577,260.321494848
186.592,260.37095262
186.607,260.420237047
186.622,260.469349221
186.637,260.518290207
186.652,260.567061044
186.667,260.615662742
186.682,260.664096289
186.697,260.712362644
186.71,260.754058968
186.712,260.760462742
186.727,260.80839749
186.742,260.856167772
186.757,260.903774446
186.772,260.951218342
186.787,260.998500269
186.802,261.045621009
186.817,261.092581318
186.832,261.139381928
186.847,261.186023549
186.862,261.232506864
186.877,261.278832531
186.892,261.325001187
186.907,261.371013443
186.922,261.416869887
186.937,261.462571082
186.952,261.508117571
186.967,261.553509869
186.982,261.598748473
186.997,261.643833854
187.012,261.68876646
187.027,261.733546719
187.042,261.778175035
187.057,261.82265179
187.072,261.866977345
187.087,261.911152037
187.102,261.955176185
187.117,261.999050084
187.132,262.042774008
187.147,262.086348211
187.162,262.129772927
187.177,262.173048368
187.192,262.216174725
187.207,262.259152173
187.222,262.301980861
187.237,262.344660925
187.252,262.387192476
187.267,262.429575609
187.282,262.4718104
187.297,262.513896904
187.312,262.555835161
187.327,262.597625189
187.342,262.639266992
187.357,262.680760552
187.372,262.722105838
187.387,262.763302798
187.402,262.804351365
187.417,262.845251454
187.432,262.886002966
187.447,262.926605783
187.46,262.961674512
187.462,262.967059773
187.477,263.007364787
187.492,263.047520661
187.507,263.087527217
187.522,263.12738426
187.537,263.167091583
187.552,263.206648961
187.567,263.24605616
187.582,263.285312928
187.597,263.324419
187.612,263.363374102
187.627,263.402177941
187.642,263.440830215
187.657,263.47933061
187.672,263.517678799
187.687,263.555874442
187.702,263.593917189
187.717,263.63180668
187.732,263.669542542
187.747,263.707124392
187.762,263.744551837
187.777,263.781824474
187.792,263.81894189
187.807,263.855903663
187.822,263.892709362
187.837,263.929358548
187.852,263.965850771
187.867,264.002185574
187.882,264.038362494
187.897,264.074381059
187.912,264.110240788
187.927,264.145941195
187.942,264.181481787
187.957,264.216862066
187.972,264.252081524
187.987,264.287139651
188.002,264.322035929
188.017,264.356769837
188.032,264.391340847
188.047,264.425748428
188.062,264.459992043
188.077,264.494071153
188.092,264.527985214
188.107,264.561733677
188.122,264.595315993
188.137,264.628731609
188.152,264.661979967
188.167,264.69506051
188.182,264.727972678
188.197,264.760715907
188.21,264.788956284
188.212,264.793289634
188.227,264.825693295
188.242,264.857926323
188.257,264.88998815
188.272,264.921878212
188.287,264.953595939
188.302,264.985140765
188.317,265.016512122
188.332,265.047709446
188.347,265.078732169
188.362,265.109579729
188.377,265.140251561
188.392,265.170747105
188.407,265.201065802
188.422,265.231207092
188.437,265.261170423
188.452,265.29095524
188.467,265.320560995
188.482,265.34998714
188.497,265.379233132
188.512,265.408298431
188.527,265.4371825
188.542,265.465884807
188.557,265.494404823
188.572,265.522742024
188.587,265.550895891
188.602,265.578865908
188.617,265.606651565
188.632,265.634252358
188.647,265.661667786
188.66,265.685277502
188.662,265.688897355
188.677,265.715940577
188.692,265.742796968
188.707,265.769466053
188.722,265.795947359
188.737,265.822240423
188.752,265.848344787
