# 78954 TBPB Grantley Adams Observations at 12Z 30 Nov 2019
Frequency [GHz],TB
175.31,280.343344369
175.322,280.330225931
175.337,280.313798742
175.352,280.297339127
175.367,280.280847037
175.382,280.26432242
175.397,280.247765227
175.412,280.231175404
175.427,280.2145529
175.442,280.19789766
175.457,280.181209631
175.472,280.164488758
175.487,280.147734985
175.502,280.130948256
175.517,280.114128514
175.532,280.097275702
175.547,280.08038976
175.562,280.063470629
175.577,280.046518249
175.592,280.02953256
175.607,280.0125135
175.622,279.995461005
175.637,279.978375013
175.652,279.96125546
175.667,279.94410228
175.682,279.926915408
175.697,279.909694777
175.712,279.89244032
175.727,279.875151967
175.742,279.857829651
175.757,279.8404733
175.772,279.823082844
175.787,279.805658211
175.802,279.788199327
175.817,279.770706119
175.832,279.753178513
175.847,279.735616432
175.862,279.7180198
175.877,279.70038854
175.892,279.682722573
175.907,279.665021819
175.922,279.647286199
175.937,279.62951563
175.952,279.61171003
175.967,279.593869316
175.982,279.575993402
175.997,279.558082205
176.012,279.540135637
176.027,279.52215361
176.042,279.504136035
176.057,279.486082824
176.072,279.467993885
176.087,279.449869126
176.102,279.431708454
176.117,279.413511775
176.132,279.395278994
176.147,279.377010014
176.162,279.358704738
176.177,279.340363067
176.192,279.321984901
176.207,279.303570139
176.222,279.28511868
176.237,279.266630418
176.252,279.248105251
176.267,279.229543071
176.282,279.210943772
176.297,279.192307246
176.31,279.176125392
176.312,279.173633383
176.327,279.154922071
176.342,279.136173199
176.357,279.117386654
176.372,279.09856232
176.387,279.079700082
176.402,279.060799821
176.417,279.04186142
176.432,279.022884759
176.447,279.003869715
176.46,278.987358868
176.462,278.984816166
176.477,278.965723987
176.492,278.946593054
176.507,278.927423238
176.522,278.908214412
176.537,278.888966445
176.552,278.869679207
176.567,278.850352563
176.582,278.83098638
176.597,278.811580522
176.612,278.792134852
176.627,278.77264923
176.642,278.753123517
176.657,278.733557569
176.672,278.713951244
176.687,278.694304396
176.702,278.674616879
176.717,278.654888544
176.732,278.635119241
176.747,278.615308818
176.762,278.595457123
176.777,278.575563999
176.792,278.555629291
176.807,278.53565284
176.822,278.515634485
176.837,278.495574065
176.852,278.475471416
176.867,278.455326373
176.882,278.435138768
176.897,278.414908433
176.912,278.394635197
176.927,278.374318886
176.942,278.353959326
176.957,278.333556341
176.972,278.313109753
176.987,278.292619381
177.002,278.272085042
177.017,278.251506554
177.032,278.230883729
177.047,278.210216379
177.062,278.189504315
177.077,278.168747345
177.092,278.147945273
177.107,278.127097904
177.122,278.106205039
177.137,278.085266479
177.152,278.064282019
177.167,278.043251457
177.182,278.022174584
177.197,278.001051191
177.21,277.982706459
177.212,277.979881068
177.227,277.958664
177.242,277.937399773
177.257,277.916088167
177.272,277.894728963
177.287,277.873321938
177.302,277.851866866
177.31,277.840404437
177.317,277.830363521
177.332,277.808811673
177.347,277.787211089
177.362,277.765561534
177.377,277.743862773
177.392,277.722114565
177.407,277.700316667
177.422,277.678468836
177.437,277.656570825
177.452,277.634622383
177.467,277.612623258
177.482,277.590573196
177.497,277.568471938
177.512,277.546319224
177.527,277.524114792
177.542,277.501858375
177.557,277.479549705
177.572,277.45718851
177.587,277.434774517
177.602,277.412307448
177.617,277.389787024
177.632,277.367212961
177.647,277.344584975
177.66,277.324930211
177.662,277.321902775
177.677,277.299166071
177.692,277.276374567
177.707,277.253527967
177.722,277.230625968
177.737,277.207668268
177.752,277.184654558
177.767,277.161584529
177.782,277.138457866
177.797,277.115274254
177.812,277.092033371
177.827,277.068734895
177.842,277.045378498
177.857,277.021963851
177.872,276.998490619
177.887,276.974958465
177.902,276.95136705
177.917,276.927716029
177.932,276.904005053
177.947,276.880233772
177.96,276.859582941
177.962,276.856401831
177.977,276.83250887
177.992,276.808554528
178.007,276.784538438
178.022,276.76046023
178.037,276.736319531
178.052,276.712115962
178.067,276.687849141
178.082,276.663518683
178.097,276.639124198
178.112,276.614665292
178.127,276.590141567
178.142,276.565552621
178.157,276.540898047
178.172,276.516177435
178.187,276.491390369
178.202,276.466536431
178.217,276.441615196
178.232,276.416626235
178.247,276.391569118
178.262,276.366443404
178.277,276.341248654
178.292,276.315984419
178.307,276.290650249
178.322,276.265245687
178.337,276.239770272
178.352,276.214223538
178.367,276.188605013
178.382,276.162914221
178.397,276.137150682
178.41,276.114763061
178.412,276.111313909
178.427,276.08540341
178.442,276.059418688
178.457,276.03335924
178.472,276.00722456
178.487,275.981014133
178.502,275.954727441
178.517,275.928363958
178.532,275.901923156
178.547,275.875404497
178.562,275.84880744
178.577,275.822131437
178.592,275.795375933
178.607,275.768540369
178.622,275.741624178
178.637,275.714626787
178.652,275.687547618
178.667,275.660386085
178.682,275.633141595
178.697,275.605813551
178.712,275.578401346
178.727,275.550904369
178.742,275.523321999
178.757,275.495653612
178.772,275.467898572
178.787,275.44005624
178.802,275.412125968
178.817,275.3841071
178.832,275.355998972
178.847,275.327800914
178.862,275.299512248
178.877,275.271132286
178.892,275.242660335
178.907,275.214095691
178.922,275.185437644
178.937,275.156685473
178.952,275.127838452
178.967,275.098895842
178.982,275.0698569
178.997,275.040720869
179.012,275.011486987
179.027,274.98215448
179.042,274.952722566
179.057,274.923190454
179.072,274.893557342
179.087,274.863822418
179.102,274.83398486
179.117,274.804043838
179.132,274.773998509
179.147,274.743848019
179.16,274.717631866
179.162,274.713591507
179.177,274.683228097
179.192,274.652756905
179.207,274.622177032
179.222,274.591487572
179.237,274.560687604
179.252,274.529776197
179.267,274.498752406
179.282,274.467615276
179.297,274.436363837
179.312,274.404997109
179.327,274.373514096
179.342,274.341913791
179.357,274.310195173
179.372,274.278357207
179.387,274.246398844
179.402,274.214319022
179.417,274.182116662
179.432,274.149790673
179.447,274.117339948
179.462,274.084763363
179.477,274.052059782
179.492,274.01922805
179.507,273.986266998
179.522,273.953175438
179.537,273.919952169
179.552,273.886595969
179.567,273.853105601
179.582,273.81947981
179.597,273.785717322
179.612,273.751816845
179.627,273.71777707
179.642,273.683596667
179.657,273.649274286
179.672,273.614808558
179.687,273.580198095
179.702,273.545441487
179.717,273.510537302
179.732,273.475484089
179.747,273.440280373
179.762,273.404924659
179.777,273.369415427
179.792,273.333751135
179.807,273.297930218
179.822,273.261951085
179.837,273.225812123
179.852,273.189511692
179.867,273.153048127
179.882,273.116419738
179.897,273.079624807
179.91,273.047599806
179.912,273.042661591
179.927,273.005528317
179.942,272.968223185
179.957,272.930744368
179.972,272.893090007
179.987,272.855258216
180.002,272.817247076
180.017,272.779054639
180.032,272.740678924
180.047,272.70211792
180.062,272.663369582
180.077,272.62443183
180.092,272.585302552
180.107,272.545979602
180.122,272.506460796
180.137,272.466743916
180.152,272.426826707
180.167,272.386706874
180.182,272.346382089
180.197,272.305849979
180.212,272.265108136
180.227,272.224154109
180.242,272.182985408
180.257,272.141599498
180.272,272.099993804
180.287,272.058165706
180.302,272.01611254
180.317,271.973831596
180.332,271.93132012
180.347,271.888575308
180.362,271.845594312
180.377,271.802374231
180.392,271.758912117
180.407,271.715204972
180.422,271.671249746
180.437,271.627043335
180.452,271.582582584
180.467,271.537864283
180.482,271.492885165
180.497,271.44764191
180.512,271.40213114
180.527,271.356349416
180.542,271.310293243
180.557,271.263959064
180.56,271.25465855
180.572,271.217343262
180.587,271.170442158
180.602,271.123252007
180.617,271.075769002
180.632,271.02798927
180.647,270.979908871
180.66,270.93799289
180.662,270.931523798
180.677,270.882829974
180.692,270.833823254
180.707,270.78449942
180.722,270.734854183
180.737,270.68488318
180.752,270.634581975
180.767,270.583946055
180.782,270.532970831
180.797,270.481651636
180.812,270.429983724
180.827,270.377962269
180.842,270.325582363
180.857,270.272839017
180.872,270.219727156
180.887,270.166241623
180.902,270.112377173
180.917,270.058128474
180.932,270.003490107
180.947,269.948456562
180.962,269.89302224
180.977,269.837181448
180.992,269.780928403
181.007,269.724257225
181.022,269.667161942
181.037,269.609636483
181.052,269.55167468
181.067,269.493270268
181.082,269.434416882
181.097,269.375108056
181.112,269.315337222
181.127,269.25509771
181.142,269.194382745
181.157,269.13318545
181.172,269.071498839
181.187,269.009315821
181.202,268.946629198
181.217,268.883431662
181.232,268.819715796
181.247,268.755474074
181.262,268.690698857
181.277,268.625382395
181.292,268.559516824
181.307,268.493094168
181.31,268.479742077
181.322,268.426106337
181.337,268.358545123
181.352,268.290402205
181.367,268.221669145
181.382,268.152337388
181.397,268.08239826
181.412,268.011842971
181.427,267.940662611
181.442,267.868848149
181.457,267.796390437
181.472,267.723280206
181.487,267.649508064
181.502,267.575064501
181.517,267.499939882
181.532,267.424124453
181.547,267.347608334
181.562,267.270381526
181.577,267.192433903
181.592,267.113755218
181.607,267.034335097
181.622,266.954163044
181.637,266.873228436
181.652,266.791520526
181.667,266.709028439
181.682,266.625741174
181.697,266.541647602
181.712,266.456736468
181.727,266.370996386
181.742,266.28441584
181.757,266.196983184
181.772,266.108686639
181.787,266.019514293
181.802,265.9294541
181.817,265.838493876
181.832,265.746621298
181.847,265.653823903
181.862,265.560089086
181.877,265.465404094
181.892,265.369756026
181.907,265.273131827
181.922,265.175518288
181.937,265.076902036
181.952,264.977269533
181.967,264.876607071
181.982,264.774900763
181.997,264.672136535
182.012,264.568300125
182.027,264.463377066
182.042,264.357352683
182.057,264.250212078
182.06,264.228648683
182.072,264.141940121
182.087,264.032521433
182.102,263.921940377
182.117,263.810181038
182.132,263.697227205
182.147,263.583062351
182.162,263.467669614
182.177,263.351031768
182.192,263.233131198
182.207,263.11394987
182.222,262.993469296
182.237,262.8716705
182.252,262.748533972
182.267,262.624039626
182.282,262.498166745
182.297,262.370893929
182.312,262.242199028
182.327,262.112059071
182.342,261.980450193
182.357,261.847347538
182.372,261.71272517
182.387,261.576555955
182.402,261.438811446
182.417,261.299461738
182.432,261.158475315
182.447,261.01581888
182.462,260.871457151
182.477,260.725352649
182.492,260.577465439
182.507,260.427752855
182.522,260.276169178
182.537,260.122665273
182.552,259.967188179
182.567,259.809680646
182.582,259.650080594
182.597,259.488320518
182.612,259.324326788
182.627,259.158018863
182.642,258.989308386
182.657,258.818098146
182.672,258.644280885
182.687,258.467737935
182.702,258.28833764
182.717,258.105933542
182.732,257.920362287
182.747,257.731441206
182.762,257.538965519
182.777,257.342705091
182.792,257.142400682
182.807,256.937759583
182.822,256.728450561
182.837,256.514097977
182.852,256.294274952
182.867,256.068495418
182.882,255.836204881
182.897,255.596769685
182.912,255.349464557
182.927,255.093458186
182.942,254.827796562
182.957,254.55138384
182.972,254.262960477
182.987,253.96107851
183.002,253.644073968
183.017,253.310036728
183.032,252.956778596
183.047,252.581801276
183.062,252.182267249
183.077,251.754978835
183.092,251.296374309
183.107,250.802555602
183.122,250.269370936
183.137,249.692589273
183.152,249.068223603
183.167,248.39308886
183.182,247.665717946
183.197,246.88780053
183.212,246.066331287
183.227,245.216595039
183.242,244.365838037
183.257,243.556747764
183.367,243.730883207
183.382,244.549812554
183.397,245.398318849
183.412,246.237865309
183.427,247.044574071
183.442,247.80555789
183.457,248.515383401
183.472,249.173303227
183.487,249.781305619
183.502,250.342826086
183.517,250.861936052
183.532,251.342854129
183.547,251.789666925
183.562,252.206181879
183.577,252.595860983
183.592,252.961802511
183.607,253.306750017
183.622,253.633115749
183.637,253.943010693
183.652,254.238276614
183.667,254.520517507
183.682,254.79112903
183.697,255.051325292
183.712,255.302162772
183.727,255.544561421
183.742,255.779323099
183.757,256.007147613
183.772,256.228646587
183.787,256.444355437
183.802,256.654743694
183.817,256.86022388
183.832,257.061159148
183.847,257.257869858
183.862,257.450639225
183.877,257.639718188
183.892,257.825329605
183.907,258.007671863
183.922,258.186922002
183.937,258.363238405
183.952,258.536763132
183.967,258.707623936
183.982,258.875936011
183.997,259.041803514
184.012,259.205320883
184.027,259.366573985
184.042,259.525641118
184.057,259.682593885
184.072,259.837497957
184.087,259.990413739
184.102,260.141396961
184.117,260.290499187
184.132,260.437768268
184.147,260.583248739
184.162,260.72698217
184.177,260.869007474
184.192,261.009361182
184.207,261.148077681
184.222,261.285189433
184.237,261.420727161
184.252,261.554720017
184.267,261.687195739
184.282,261.818180777
184.297,261.947700416
184.312,262.075778882
184.327,262.202439439
184.342,262.327704472
184.357,262.451595562
184.372,262.574133559
184.387,262.695338641
184.402,262.815230367
184.417,262.933827733
184.432,263.05114921
184.447,263.167212789
184.462,263.282036013
184.477,263.395636015
184.492,263.508029543
184.507,263.619232991
184.522,263.729262417
184.537,263.83813357
184.552,263.945861909
184.56,264.002854993
184.567,264.052462618
184.582,264.157950624
184.597,264.262340611
184.612,264.365647033
184.627,264.467884126
184.642,264.569065919
184.657,264.66920624
184.672,264.768318731
184.687,264.866416851
184.702,264.963513884
184.717,265.059622945
184.732,265.154756988
184.747,265.248928807
184.762,265.342151043
184.777,265.43443619
184.792,265.525796595
184.807,265.61624446
184.822,265.705791852
184.837,265.794450698
184.852,265.882232792
184.867,265.969149794
184.882,266.055213234
184.897,266.140434513
184.912,266.224824906
184.927,266.308395557
184.942,266.391157489
184.957,266.4731216
184.972,266.554298663
184.987,266.63469933
185.002,266.714334131
185.017,266.793213475
185.032,266.87134765
185.047,266.948746825
185.062,267.02542105
185.077,267.101380254
185.092,267.176634251
185.107,267.251192735
185.122,267.325065282
185.137,267.398261354
185.152,267.470790293
185.167,267.542661329
185.182,267.613883572
185.197,267.68446602
185.212,267.754417555
185.227,267.823746946
185.242,267.892462848
185.257,267.960573802
185.272,268.028088238
185.287,268.095014473
185.302,268.161360712
185.31,268.196511019
185.317,268.227135052
185.332,268.292345476
185.347,268.356999861
185.362,268.421105973
185.377,268.484671471
185.392,268.547703907
185.407,268.610210725
185.422,268.672199264
185.437,268.733676758
185.452,268.794650337
185.467,268.855127027
185.482,268.915113753
185.497,268.974617335
185.512,269.033644496
185.527,269.092201858
185.542,269.150295942
185.557,269.207933174
185.572,269.265119882
185.587,269.321862296
185.602,269.378166554
185.617,269.434038699
185.632,269.489484679
185.647,269.544510352
185.662,269.599121486
185.677,269.653323755
185.692,269.707122749
185.707,269.760523967
185.722,269.813532822
185.737,269.866154641
185.752,269.918394667
185.767,269.97025806
185.782,270.021749895
185.797,270.072875168
185.812,270.123638794
185.827,270.174045608
185.842,270.224100368
185.857,270.273807754
185.872,270.32317237
185.887,270.372198746
185.902,270.420891336
185.917,270.469254524
185.932,270.51729262
185.947,270.565009864
185.96,270.6061085
185.962,270.612410426
185.977,270.659498409
185.992,270.706277846
186.007,270.752752706
186.022,270.79892689
186.037,270.844804236
186.052,270.890388519
186.06,270.91458159
186.067,270.93568345
186.082,270.980692679
186.097,271.025419797
186.112,271.069868333
186.127,271.11404176
186.142,271.157943491
186.157,271.201576885
186.172,271.244945243
186.187,271.288051812
186.202,271.330899786
186.217,271.373492306
186.232,271.415832459
186.247,271.457923282
186.262,271.499767764
186.277,271.541368841
186.292,271.582729403
186.307,271.623852291
186.322,271.6647403
186.337,271.705396177
186.352,271.745822628
186.367,271.786022309
186.382,271.825997837
186.397,271.865751785
186.412,271.905286681
186.427,271.944605016
186.442,271.983709238
186.457,272.022601754
186.472,272.061284936
186.487,272.099761113
186.502,272.138032579
186.517,272.17610159
186.532,272.213970366
186.547,272.25164109
186.562,272.289115913
186.577,272.326396948
186.592,272.363486277
186.607,272.400385947
186.622,272.437097974
186.637,272.47362434
186.652,272.509966998
186.667,272.546127869
186.682,272.582108844
186.697,272.617911783
186.71,272.648798404
186.712,272.65353852
186.727,272.688990858
186.742,272.724270573
186.757,272.759379412
186.772,272.794319098
186.787,272.829091325
186.802,272.86369776
186.817,272.898140049
186.832,272.932419809
186.847,272.966538634
186.862,273.000498092
186.877,273.034299731
186.892,273.067945073
186.907,273.101435617
186.922,273.134772842
186.937,273.167958202
186.952,273.200993133
186.967,273.233879046
186.982,273.266617334
186.997,273.299209369
187.012,273.331656503
187.027,273.363960067
187.042,273.396121376
187.057,273.428141722
187.072,273.460022382
187.087,273.491764612
187.102,273.523369653
187.117,273.554838725
187.132,273.586173034
187.147,273.617373768
187.162,273.648442096
187.177,273.679379175
187.192,273.710186143
187.207,273.740864123
187.222,273.771414222
187.237,273.801837534
187.252,273.832135135
187.267,273.862308089
187.282,273.892357443
187.297,273.922284234
187.312,273.95208948
187.327,273.98177419
187.342,274.011339356
187.357,274.04078596
187.372,274.070114969
187.387,274.099327337
187.402,274.128424007
187.417,274.15740591
187.432,274.186273963
187.447,274.215029073
187.46,274.239859502
187.462,274.243672135
187.477,274.272204031
187.492,274.300625634
187.507,274.328937806
187.522,274.357141395
187.537,274.385237241
187.552,274.413226175
187.567,274.441109013
187.582,274.468886566
187.597,274.49655963
187.612,274.524128996
187.627,274.551595443
187.642,274.578959739
187.657,274.606222646
187.672,274.633384915
187.687,274.660447287
187.702,274.687410496
187.717,274.714275266
187.732,274.741042314
187.747,274.767712346
187.762,274.794286062
187.777,274.820764153
187.792,274.847147301
187.807,274.873436182
187.822,274.899631462
187.837,274.925733801
187.852,274.951743851
187.867,274.977662255
187.882,275.003489652
187.897,275.02922667
187.912,275.054873932
187.927,275.080432054
187.942,275.105901645
187.957,275.131283306
187.972,275.156577632
187.987,275.181785212
188.002,275.206906628
188.017,275.231942455
188.032,275.256893264
188.047,275.281759616
188.062,275.306542068
188.077,275.331241173
188.092,275.355857473
188.107,275.380391509
188.122,275.404843813
188.137,275.429214912
188.152,275.45350533
188.167,275.477715581
188.182,275.501846177
188.197,275.525897623
188.21,275.546678572
188.212,275.549870418
188.227,275.573765058
188.242,275.597582032
188.257,275.621321824
188.272,275.644984915
188.287,275.668571777
188.302,275.692082882
188.317,275.715518692
188.332,275.738879669
188.347,275.762166266
188.362,275.785378935
188.377,275.808518122
188.392,275.831584267
188.407,275.854577807
188.422,275.877499176
188.437,275.9003488
188.452,275.923127103
188.467,275.945834505
188.482,275.968471421
188.497,275.991038262
188.512,276.013535434
188.527,276.035963342
188.542,276.058322383
188.557,276.080612953
188.572,276.102835443
188.587,276.124990239
188.602,276.147077726
188.617,276.169098282
188.632,276.191052284
188.647,276.212940104
188.66,276.231856299
188.662,276.23476211
188.677,276.256518668
188.692,276.278210139
188.707,276.29983688
188.722,276.321399247
188.737,276.342897591
