# 10410 EDZE Essen Observations at 12Z 30 Nov 2019
Frequency [GHz],TB
175.31,257.892815105
175.322,257.943714591
175.337,258.007272271
175.352,258.070754445
175.367,258.134159575
175.382,258.197486114
175.397,258.260732506
175.412,258.323897187
175.427,258.386978585
175.442,258.449975118
175.457,258.512885191
175.472,258.575707204
175.487,258.63843955
175.502,258.701080608
175.517,258.763628748
175.532,258.826082338
175.547,258.888439729
175.562,258.950699267
175.577,259.012859291
175.592,259.074918123
175.607,259.136874086
175.622,259.19872549
175.637,259.260470636
175.652,259.322107816
175.667,259.383635316
175.682,259.445051409
175.697,259.506354365
175.712,259.567542441
175.727,259.628613888
175.742,259.689566946
175.757,259.750399852
175.772,259.811110829
175.787,259.871698094
175.802,259.93215986
175.817,259.992494324
175.832,260.052699681
175.847,260.112774114
175.862,260.172715805
175.877,260.232522919
175.892,260.29219362
175.907,260.351726063
175.922,260.411118394
175.937,260.470368754
175.952,260.529475272
175.967,260.588436076
175.982,260.647249282
175.997,260.705913002
176.012,260.764425337
176.027,260.822784388
176.042,260.880988242
176.057,260.939034983
176.072,260.996922686
176.087,261.054649426
176.102,261.112213263
176.117,261.169612255
176.132,261.226844454
176.147,261.283907907
176.162,261.340800653
176.177,261.397520725
176.192,261.45406615
176.207,261.510434957
176.222,261.566625156
176.237,261.622634763
176.252,261.678461786
176.267,261.734104224
176.282,261.789560075
176.297,261.844827332
176.31,261.892571518
176.312,261.899903987
176.327,261.954788018
176.342,262.009477408
176.357,262.06397013
176.372,262.118264158
176.387,262.172357458
176.402,262.226247995
176.417,262.27993373
176.432,262.333412619
176.447,262.38668262
176.46,262.432679402
176.462,262.439741682
176.477,262.492587753
176.492,262.545218785
176.507,262.597632716
176.522,262.64982749
176.537,262.701801048
176.552,262.753551327
176.567,262.805076266
176.582,262.856373799
176.597,262.907441859
176.612,262.958278383
176.627,263.008881301
176.642,263.059248546
176.657,263.109378048
176.672,263.159267744
176.687,263.208915562
176.702,263.258319435
176.717,263.307477295
176.732,263.35638708
176.747,263.405046722
176.762,263.453454157
176.777,263.501607326
176.792,263.549504168
176.807,263.597142622
176.822,263.644520634
176.837,263.691636155
176.852,263.738487128
176.867,263.78507151
176.882,263.831387258
176.897,263.877432329
176.912,263.92320469
176.927,263.968702308
176.942,264.013923154
176.957,264.058865208
176.972,264.10352645
176.987,264.14790487
177.002,264.191998461
177.017,264.235805221
177.032,264.279323158
177.047,264.32255028
177.062,264.365484611
177.077,264.408124173
177.092,264.450467004
177.107,264.49251114
177.122,264.534254633
177.137,264.575695541
177.152,264.616831931
177.167,264.657661875
177.182,264.698183461
177.197,264.738394783
177.21,264.772992159
177.212,264.778293944
177.227,264.817879059
177.242,264.857148253
177.257,264.896099665
177.272,264.934731439
177.287,264.973041735
177.302,265.011028727
177.31,265.031155632
177.317,265.048690594
177.332,265.086025537
177.347,265.123031762
177.362,265.159707493
177.377,265.196050966
177.392,265.232060432
177.407,265.267734154
177.422,265.303070413
177.437,265.338067503
177.452,265.372723736
177.467,265.407037435
177.482,265.441006946
177.497,265.474630624
177.512,265.507906846
177.527,265.540834005
177.542,265.573410513
177.557,265.605634794
177.572,265.6375053
177.587,265.669020494
177.602,265.70017886
177.617,265.730978904
177.632,265.761419148
177.647,265.791498135
177.66,265.817273268
177.662,265.821214433
177.677,265.850566625
177.692,265.879553315
177.707,265.908173134
177.722,265.936424732
177.737,265.964306779
177.752,265.991817972
177.767,266.018957028
177.782,266.045722685
177.797,266.072113713
177.812,266.098128896
177.827,266.12376705
177.842,266.149027013
177.857,266.173907644
177.872,266.198407834
177.887,266.222526497
177.902,266.24626257
177.917,266.269615022
177.932,266.292582845
177.947,266.315165057
177.96,266.334423657
177.962,266.33736071
177.977,266.359168871
177.992,266.380588648
178.007,266.401619171
178.022,266.422259597
178.037,266.442509117
178.052,266.462366944
178.067,266.48183233
178.082,266.500904546
178.097,266.519582902
178.112,266.537866729
178.127,266.555755398
178.142,266.573248306
178.157,266.590344879
178.172,266.607044578
178.187,266.623346893
178.202,266.639251346
178.217,266.654757492
178.232,266.669864917
178.247,266.684573239
178.262,266.698882109
178.277,266.712791212
178.292,266.726300262
178.307,266.739409008
178.322,266.752117235
178.337,266.764424758
178.352,266.776331423
178.367,266.787837118
178.382,266.798941754
178.397,266.809645283
178.41,266.818597213
178.412,266.819947691
178.427,266.829848993
178.442,266.839349242
178.457,266.848448525
178.472,266.857146961
178.487,266.865444705
178.502,266.873341945
178.517,266.880838905
178.532,266.887935842
178.547,266.894633047
178.562,266.900930846
178.577,266.9068296
178.592,266.912329702
178.607,266.91743158
178.622,266.922135699
178.637,266.926442553
178.652,266.930352674
178.667,266.933866626
178.682,266.936985007
178.697,266.939708447
178.712,266.942037615
178.727,266.943973206
178.742,266.945515951
178.757,266.946666616
178.772,266.947425996
178.787,266.947794922
178.802,266.947774255
178.817,266.94736489
178.832,266.946567751
178.847,266.945383794
178.862,266.943814009
178.877,266.941859414
178.892,266.939521059
178.907,266.936800022
178.922,266.933697413
178.937,266.930214373
178.952,266.926352067
178.967,266.922111695
178.982,266.917494479
178.997,266.912501672
179.012,266.907134555
179.027,266.901394436
179.042,266.895282646
179.057,266.888800548
179.072,266.881949522
179.087,266.874730984
179.102,266.867146364
179.117,266.859197121
179.132,266.850884736
179.147,266.842210714
179.16,266.834401884
179.162,266.833176581
179.177,266.823783884
179.192,266.814034191
179.207,266.803929091
179.222,266.793470194
179.237,266.782659124
179.252,266.771497527
179.267,266.759987067
179.282,266.748129422
179.297,266.735926287
179.312,266.723379375
179.327,266.71049041
179.342,266.697261131
179.357,266.683693291
179.372,266.669788652
179.387,266.655548993
179.402,266.640976098
179.417,266.626071765
179.432,266.610837798
179.447,266.59527601
179.462,266.579388222
179.477,266.563176261
179.492,266.546641961
179.507,266.529787158
179.522,266.512613693
179.537,266.49512341
179.552,266.477318154
179.567,266.459199773
179.582,266.440770113
179.597,266.422031021
179.612,266.402984342
179.627,266.383631917
179.642,266.363975585
179.657,266.344017181
179.672,266.323758531
179.687,266.303201457
179.702,266.282347775
179.717,266.261199291
179.732,266.239757799
179.747,266.21802509
179.762,266.196002936
179.777,266.173693102
179.792,266.151097337
179.807,266.128217376
179.822,266.105054943
179.837,266.081611739
179.852,266.057889453
179.867,266.033889755
179.882,266.009614294
179.897,265.985064704
179.91,265.963567894
179.912,265.960242592
179.927,265.935149547
179.942,265.909787135
179.957,265.884156897
179.972,265.858260353
179.987,265.83209899
180.002,265.805674278
180.017,265.778987651
180.032,265.752040521
180.047,265.724834267
180.062,265.69737024
180.077,265.669649761
180.092,265.641674117
180.107,265.613444563
180.122,265.58496232
180.137,265.556228577
180.152,265.527244486
180.167,265.498011161
180.182,265.468529684
180.197,265.438801097
180.212,265.408826404
180.227,265.378606567
180.242,265.348142514
180.257,265.317435127
180.272,265.286485249
180.287,265.255293682
180.302,265.223861182
180.317,265.192188466
180.332,265.160276203
180.347,265.128125019
180.362,265.095735493
180.377,265.063108162
180.392,265.030243512
180.407,264.997141982
180.422,264.963803967
180.437,264.930229809
180.452,264.896419806
180.467,264.862374201
180.482,264.82809319
180.497,264.793576918
180.512,264.75882548
180.527,264.723838918
180.542,264.688617221
180.557,264.653160331
180.56,264.64604072
180.572,264.61746813
180.587,264.581540451
180.602,264.545377073
180.617,264.508977721
180.632,264.472342063
180.647,264.435469717
180.66,264.40332189
180.662,264.398360242
180.677,264.361013143
180.692,264.32342787
180.707,264.285603816
180.722,264.247540319
180.737,264.209236658
180.752,264.170692059
180.767,264.131905689
180.782,264.092876658
180.797,264.053604019
180.812,264.014086768
180.827,263.974323842
180.842,263.934314122
180.857,263.89405643
180.872,263.853549532
180.887,263.812792134
180.902,263.771782885
180.917,263.730520376
180.932,263.689003139
180.947,263.647229649
180.962,263.605198323
180.977,263.56290752
180.992,263.52035554
181.007,263.477540626
181.022,263.434460965
181.037,263.391114684
181.052,263.347499854
181.067,263.303614487
181.082,263.25945654
181.097,263.215023914
181.112,263.170314451
181.127,263.125325939
181.142,263.080056108
181.157,263.034502634
181.172,262.988663139
181.187,262.942535188
181.202,262.896116293
181.217,262.849403913
181.232,262.802395453
181.247,262.755088264
181.262,262.707479649
181.277,262.659566855
181.292,262.611347084
181.307,262.562817481
181.31,262.553074127
181.322,262.513975149
181.337,262.46481714
181.352,262.415340458
181.367,262.365542062
181.382,262.315418865
181.397,262.264967737
181.412,262.214185505
181.427,262.163068954
181.442,262.111614829
181.457,262.059819835
181.472,262.007680642
181.487,261.955193883
181.502,261.902356155
181.517,261.849164026
181.532,261.795614032
181.547,261.741702679
181.562,261.687426448
181.577,261.632781796
181.592,261.577765158
181.607,261.522372947
181.622,261.466601562
181.637,261.410447385
181.652,261.353906789
181.667,261.296976136
181.682,261.239651783
181.697,261.181930085
181.712,261.123807398
181.727,261.065280083
181.742,261.006344509
181.757,260.946997056
181.772,260.887234123
181.787,260.827052127
181.802,260.766447514
181.817,260.705416755
181.832,260.64395636
181.847,260.582062877
181.862,260.5197329
181.877,260.456963073
181.892,260.3937501
181.907,260.330090743
181.922,260.265981838
181.937,260.201420294
181.952,260.136403103
181.967,260.070927348
181.982,260.00499021
181.997,259.938588971
182.012,259.871721031
182.027,259.804383907
182.042,259.736575248
182.057,259.668292842
182.06,259.654579326
182.072,259.599534622
182.087,259.530298679
182.102,259.460583271
182.117,259.390386833
182.132,259.319707984
182.147,259.248545542
182.162,259.176898531
182.177,259.104766193
182.192,259.032148
182.207,258.959043663
182.222,258.885453143
182.237,258.811376663
182.252,258.736814721
182.267,258.661768096
182.282,258.586237862
182.297,258.510225398
182.312,258.433732398
182.327,258.35676088
182.342,258.279313193
182.357,258.201392028
182.372,258.123000422
182.387,258.044141766
182.402,257.964819805
182.417,257.885038643
182.432,257.80480274
182.447,257.724116912
182.462,257.64298632
182.477,257.561416464
182.492,257.479413164
182.507,257.396982545
182.522,257.314131007
182.537,257.230865194
182.552,257.14719195
182.567,257.063118273
182.582,256.978651249
182.597,256.893797981
182.612,256.808565495
182.627,256.722960638
182.642,256.636989947
182.657,256.550659504
182.672,256.463974752
182.687,256.376940294
182.702,256.28955964
182.717,256.201834926
182.732,256.113766568
182.747,256.02535287
182.762,255.936589553
182.777,255.84746921
182.792,255.757980658
182.807,255.668108175
182.822,255.577830608
182.837,255.487120307
182.852,255.395941864
182.867,255.304250618
182.882,255.21199086
182.897,255.119093687
182.912,255.02547441
182.927,254.931029422
182.942,254.835632369
182.957,254.739129467
182.972,254.641333696
182.987,254.542017593
183.002,254.440904172
183.017,254.337655416
183.032,254.231857522
183.047,254.123001754
183.062,254.010459271
183.077,253.893447584
183.092,253.77098508
183.107,253.641828304
183.122,253.504383624
183.137,253.356579928
183.152,253.195680192
183.167,253.017994026
183.182,252.818423648
183.197,252.589718145
183.212,252.321194116
183.227,251.996438684
183.242,251.58902144
183.257,251.054496672
183.367,251.189685221
183.382,251.682957609
183.397,252.062778694
183.412,252.367986566
183.427,252.621894264
183.442,252.839155747
183.457,253.029416752
183.472,253.199286611
183.487,253.353449096
183.502,253.495317304
183.517,253.627436491
183.532,253.751741475
183.547,253.869726717
183.562,253.982562042
183.577,254.091173432
183.592,254.196300699
183.607,254.298539497
183.622,254.398372457
183.637,254.496192624
183.652,254.592321349
183.667,254.687022132
183.682,254.780511434
183.697,254.872967233
183.712,254.964535841
183.727,255.055337395
183.742,255.145470303
183.757,255.235014878
183.772,255.32403633
183.787,255.412587226
183.802,255.500709549
183.817,255.588436406
183.832,255.675793464
183.847,255.762800159
183.862,255.849470713
183.877,255.935814998
183.892,256.021839263
183.907,256.107546761
183.922,256.192938269
183.937,256.278012547
183.952,256.362766712
183.967,256.447196571
183.982,256.531296897
183.997,256.615061664
184.012,256.698484251
184.027,256.781557611
184.042,256.864274417
184.057,256.946627185
184.072,257.028608375
184.087,257.110210477
184.102,257.191426088
184.117,257.272247963
184.132,257.352669073
184.147,257.432682638
184.162,257.512282162
184.177,257.591461457
184.192,257.670214662
184.207,257.748536257
184.222,257.826421075
184.237,257.903864304
184.252,257.980861492
184.267,258.057408549
184.282,258.133501744
184.297,258.209137698
184.312,258.284313384
184.327,258.359026118
184.342,258.433273548
184.357,258.507053651
184.372,258.580364721
184.387,258.653205358
184.402,258.725574461
184.417,258.797471214
184.432,258.868895077
184.447,258.939845776
184.462,259.010323289
184.477,259.080327841
184.492,259.149859884
184.507,259.218920097
184.522,259.287509367
184.537,259.355628783
184.552,259.423279624
184.56,259.459168974
184.567,259.49046335
184.582,259.557181591
184.597,259.623436141
184.612,259.689228944
184.627,259.754562088
184.642,259.819437796
184.657,259.883858417
184.672,259.947826417
184.687,260.011344375
184.702,260.07441497
184.717,260.137040979
184.732,260.199225266
184.747,260.260970776
184.762,260.322280531
184.777,260.38315762
184.792,260.443605197
184.807,260.503626472
184.822,260.563224706
184.837,260.622403208
184.852,260.681165327
184.867,260.73951445
184.882,260.797453993
184.897,260.854987403
184.912,260.912118148
184.927,260.968849715
184.942,261.025185607
184.957,261.081129338
184.972,261.136684432
184.987,261.191854413
185.002,261.246642814
185.017,261.301053159
185.032,261.355088973
185.047,261.40875377
185.062,261.462051059
185.077,261.514984332
185.092,261.56755707
185.107,261.619772734
185.122,261.671634771
185.137,261.723146602
185.152,261.77431163
185.167,261.825133229
185.182,261.875614751
185.197,261.925759517
185.212,261.975570822
185.227,262.025051927
185.242,262.074206064
185.257,262.12303643
185.272,262.171546187
185.287,262.219738465
185.302,262.267616353
185.31,262.293023732
185.317,262.315182906
185.332,262.362441137
185.347,262.409394025
185.362,262.456044504
185.377,262.502395469
185.392,262.548449774
185.407,262.594210232
185.422,262.639679609
185.437,262.684860633
185.452,262.729755985
185.467,262.774368303
185.482,262.81870018
185.497,262.862754164
185.512,262.906532757
185.527,262.950038418
185.542,262.993273556
185.557,263.036240537
185.572,263.07894168
185.587,263.121379256
185.602,263.163555491
185.617,263.205472563
185.632,263.247132603
185.647,263.288537694
185.662,263.329689875
185.677,263.370591134
185.692,263.411243413
185.707,263.451648608
185.722,263.491808565
185.737,263.531725087
185.752,263.571399924
185.767,263.610834785
185.782,263.650031327
185.797,263.688991161
185.812,263.727715854
185.827,263.766206922
185.842,263.804465838
185.857,263.842494025
185.872,263.880292864
185.887,263.917863685
185.902,263.955207777
185.917,263.992326377
185.932,264.029220682
185.947,264.065891841
185.96,264.097493867
185.962,264.102340958
185.977,264.138569093
185.992,264.174577261
186.007,264.210366432
186.022,264.245937531
186.037,264.281291442
186.052,264.316429002
186.06,264.335080848
186.067,264.351351008
186.082,264.386058211
186.097,264.420551323
186.112,264.45483101
186.127,264.488897898
186.142,264.522752572
186.157,264.556395572
186.172,264.589827403
186.187,264.623048526
186.202,264.656059361
186.217,264.688860288
186.232,264.721451654
186.247,264.753833759
186.262,264.786006868
186.277,264.817971209
186.292,264.849726969
186.307,264.881274303
186.322,264.912613324
186.337,264.943744112
186.352,264.97466671
186.367,265.005381125
186.382,265.035887332
186.397,265.066185269
186.412,265.096274841
186.427,265.126155921
186.442,265.155828345
186.457,265.185291921
186.472,265.214546423
186.487,265.243591598
186.502,265.272427158
186.517,265.301052781
186.532,265.329468126
186.547,265.357672816
186.562,265.385666446
186.577,265.413448585
186.592,265.441018773
186.607,265.468376526
186.622,265.495521331
186.637,265.52245265
186.652,265.549169922
186.667,265.575672562
186.682,265.601959957
186.697,265.628031476
186.71,265.650451665
186.712,265.653886462
186.727,265.679524241
186.742,265.704944111
186.757,265.730145354
186.772,265.755127233
186.787,265.779888987
186.802,265.804429843
186.817,265.828749004
186.832,265.852845658
186.847,265.876718978
186.862,265.900368118
186.877,265.92379222
186.892,265.946990409
186.907,265.969961792
186.922,265.992705473
186.937,266.015220534
186.952,266.037506047
186.967,266.059561077
186.982,266.081384671
186.997,266.102975873
187.012,266.124333711
187.027,266.145457209
187.042,266.166345379
187.057,266.186997232
187.072,266.207411762
187.087,266.227587965
187.102,266.247524827
187.117,266.267221334
187.132,266.286676459
187.147,266.30588918
187.162,266.324858467
187.177,266.343583289
187.192,266.362062611
187.207,266.3802954
187.222,266.39828062
187.237,266.416017236
187.252,266.433504213
187.267,266.450740517
187.282,266.467725115
187.297,266.484456978
187.312,266.500935078
187.327,266.51715839
187.342,266.533125896
187.357,266.54883658
187.372,266.564289431
187.387,266.579483444
187.402,266.594417618
187.417,266.609090965
187.432,266.623502496
187.447,266.637651235
187.46,266.649700156
187.462,266.651536212
187.477,266.665156465
187.492,266.678511045
187.507,266.691599006
187.522,266.704419418
187.537,266.716971359
187.552,266.729253916
187.567,266.74126619
187.582,266.753007296
187.597,266.764476354
187.612,266.775672503
187.627,266.786594893
187.642,266.797242686
187.657,266.807615061
187.672,266.817711208
187.687,266.827530333
187.702,266.837071656
187.717,266.846334414
187.732,266.855317857
187.747,266.864021253
187.762,266.872443885
187.777,266.880585054
187.792,266.888444074
187.807,266.896020282
187.822,266.903313027
187.837,266.910321679
187.852,266.917045624
187.867,266.923484268
187.882,266.929637032
187.897,266.93550336
187.912,266.941082712
187.927,266.946374567
187.942,266.951378425
187.957,266.956093802
187.972,266.96052024
187.987,266.964657293
188.002,266.96850454
188.017,266.972061579
188.032,266.975328028
188.047,266.978303525
188.062,266.98098773
188.077,266.983380321
188.092,266.985480999
188.107,266.987289487
188.122,266.988805526
188.137,266.990028877
188.152,266.990959329
188.167,266.991596681
188.182,266.991940766
188.197,266.991991428
188.21,266.991797888
188.212,266.991748538
188.227,266.991211987
188.242,266.990381684
188.257,266.989257567
188.272,266.987839587
188.287,266.986127723
188.302,266.984121971
188.317,266.981822351
188.332,266.979228904
188.347,266.97634169
188.362,266.973160794
188.377,266.969686321
188.392,266.965918397
188.407,266.961857166
188.422,266.957502799
188.437,266.952855484
188.452,266.947915433
188.467,266.942682876
188.482,266.937158066
188.497,266.931341275
188.512,266.925232796
188.527,266.918832945
188.542,266.912142054
188.557,266.905160483
188.572,266.897888603
188.587,266.890326811
188.602,266.882475522
188.617,266.874335173
188.632,266.865906218
188.647,266.857189132
188.66,266.849401639
188.662,266.848184409
188.677,266.838892564
188.692,266.829314126
188.707,266.819449653
188.722,266.80929971
188.737,266.798864892
