# 48698 WSSS Singapore Observations at 12Z 27 Feb 2019
Frequency [GHz],TB
175.31,278.759726363
175.322,278.745752968
175.337,278.728256451
175.352,278.710726804
175.367,278.69316394
175.382,278.675567815
175.397,278.657938345
175.412,278.640275469
175.427,278.622579114
175.442,278.604849214
175.457,278.587085708
175.472,278.569288531
175.487,278.551457587
175.502,278.533592816
175.517,278.515694157
175.532,278.497761544
175.547,278.47979489
175.562,278.461794125
175.577,278.443759182
175.592,278.425689992
175.607,278.407586456
175.622,278.389448551
175.637,278.371276144
175.652,278.353069204
175.667,278.33482763
175.682,278.31655136
175.697,278.298240323
175.712,278.279894421
175.727,278.26151359
175.742,278.243097764
175.757,278.224646858
175.772,278.206160775
175.787,278.187639446
175.802,278.169082821
175.817,278.150490767
175.832,278.13186325
175.847,278.113200176
175.862,278.094501441
175.877,278.075767002
175.892,278.056996737
175.907,278.038190577
175.922,278.019348465
175.937,278.000470289
175.952,277.981555958
175.967,277.962605416
175.982,277.943618546
175.997,277.924595291
176.012,277.905535562
176.027,277.886439239
176.042,277.867306262
176.057,277.848136543
176.072,277.828929984
176.087,277.809686503
176.102,277.790405993
176.117,277.771088391
176.132,277.751733587
176.147,277.732341498
176.162,277.712912029
176.177,277.693445081
176.192,277.673940567
176.207,277.654398397
176.222,277.634818464
176.237,277.615200677
176.252,277.595544957
176.267,277.575851186
176.282,277.556119278
176.297,277.536349113
176.31,277.51918399
176.312,277.51654063
176.327,277.496693722
176.342,277.476808253
176.357,277.456884178
176.372,277.436921337
176.387,277.416919673
176.402,277.396879068
176.417,277.376799413
176.432,277.356680623
176.447,277.336522576
176.46,277.319020444
176.462,277.316325179
176.477,277.296088309
176.492,277.275811867
176.507,277.255495772
176.522,277.235139862
176.537,277.21474408
176.552,277.194308285
176.567,277.173832375
176.582,277.15331625
176.597,277.132759773
176.612,277.112162879
176.627,277.091525394
176.642,277.070847251
176.657,277.050128302
176.672,277.029368454
176.687,277.008567593
176.702,276.987725571
176.717,276.966842304
176.732,276.945917656
176.747,276.924951517
176.762,276.903943738
176.777,276.882894238
176.792,276.861802859
176.807,276.840669503
176.822,276.819494033
176.837,276.798276322
176.852,276.777016264
176.867,276.755713698
176.882,276.734368514
176.897,276.712980581
176.912,276.691549773
176.927,276.670075965
176.942,276.648559013
176.957,276.626998768
176.972,276.605395134
176.987,276.583747938
177.002,276.562057076
177.017,276.540322379
177.032,276.518543742
177.047,276.496720985
177.062,276.474854014
177.077,276.452942655
177.092,276.430986768
177.107,276.408986226
177.122,276.386940861
177.137,276.364850551
177.152,276.342715121
177.167,276.320534446
177.182,276.298308354
177.197,276.276036705
177.21,276.25669765
177.212,276.253719358
177.227,276.231356139
177.242,276.208946906
177.257,276.186491496
177.272,276.163989733
177.287,276.141441501
177.302,276.118846607
177.31,276.106776866
177.317,276.096204892
177.332,276.073516199
177.347,276.050780371
177.362,276.02799721
177.377,276.005166594
177.392,275.982288315
177.407,275.95936222
177.422,275.936388119
177.437,275.91336586
177.452,275.890295257
177.467,275.867176133
177.482,275.844008314
177.497,275.820791613
177.512,275.797525853
177.527,275.774210828
177.542,275.750846387
177.557,275.727432326
177.572,275.703968448
177.587,275.680454564
177.602,275.656890487
177.617,275.633276029
177.632,275.609610981
177.647,275.585895148
177.66,275.565300189
177.662,275.562128317
177.677,275.53831031
177.692,275.514440913
177.707,275.49051989
177.722,275.466547075
177.737,275.442522235
177.752,275.418445144
177.767,275.39431563
177.782,275.37013343
177.797,275.345898343
177.812,275.32161015
177.827,275.297268613
177.842,275.272873526
177.857,275.248424627
177.872,275.223921697
177.887,275.199364529
177.902,275.174752862
177.917,275.150086454
177.932,275.125365067
177.947,275.100588469
177.96,275.079070533
177.962,275.075756381
177.977,275.050868574
177.992,275.025924788
178.007,275.000924791
178.022,274.975868286
178.037,274.950755035
178.052,274.925584771
178.067,274.90035722
178.082,274.875072112
178.097,274.849729195
178.112,274.824328161
178.127,274.798868742
178.142,274.773350662
178.157,274.747773613
178.172,274.722137324
178.187,274.696441495
178.202,274.670685834
178.217,274.644870041
178.232,274.618993801
178.247,274.59305681
178.262,274.56705876
178.277,274.540999353
178.292,274.514878231
178.307,274.488695106
178.322,274.462449634
178.337,274.436141497
178.352,274.409770352
178.367,274.383335849
178.382,274.356837655
178.397,274.330275447
178.41,274.307202773
178.412,274.303648826
178.427,274.276957479
178.442,274.250201029
178.457,274.223379104
178.472,274.19649135
178.487,274.169537382
178.502,274.142516818
178.517,274.115429284
178.532,274.088274397
178.547,274.061051755
178.562,274.03376096
178.577,274.006401618
178.592,273.978973308
178.607,273.951475628
178.622,273.923908156
178.637,273.896270465
178.652,273.868562136
178.667,273.840782726
178.682,273.812931791
178.697,273.785008885
178.712,273.757013567
178.727,273.72894538
178.742,273.70080386
178.757,273.672588537
178.772,273.644298935
178.787,273.615934553
178.802,273.58749494
178.817,273.558979572
178.832,273.530387971
178.847,273.501719624
178.862,273.472974012
178.877,273.444150637
178.892,273.415248936
178.907,273.386268414
178.922,273.357208511
178.937,273.328068677
178.952,273.298848376
178.967,273.269547042
178.982,273.240164081
178.997,273.210698953
179.012,273.181151073
179.027,273.151519838
179.042,273.121804658
179.057,273.092004914
179.072,273.06212001
179.087,273.032149334
179.102,273.002092255
179.117,272.971948099
179.132,272.941716269
179.147,272.911396097
179.16,272.885046641
179.162,272.880986927
179.177,272.850488073
179.192,272.819898881
179.207,272.789218664
179.222,272.75844672
179.237,272.727582343
179.252,272.696624851
179.267,272.665573485
179.282,272.63442753
179.297,272.603186273
179.312,272.571848935
179.327,272.540414795
179.342,272.508883071
179.357,272.477252961
179.372,272.445523748
179.387,272.413694583
179.402,272.381764689
179.417,272.349733261
179.432,272.317599476
179.447,272.285362497
179.462,272.253021492
179.477,272.220575614
179.492,272.188023981
179.507,272.155365765
179.522,272.122600064
179.537,272.089725983
179.552,272.056742643
179.567,272.023649133
179.582,271.990444522
179.597,271.957127892
179.612,271.923698292
179.627,271.890154809
179.642,271.856496441
179.657,271.822722246
179.672,271.78883123
179.687,271.754822404
179.702,271.72069478
179.717,271.686447339
179.732,271.652079061
179.747,271.61758892
179.762,271.582975875
179.777,271.548238839
179.792,271.513376796
179.807,271.478388659
179.822,271.443273314
179.837,271.408029714
179.852,271.372656705
179.867,271.337153208
179.882,271.30151809
179.897,271.265750198
179.91,271.234643079
179.912,271.229848383
179.927,271.193811506
179.942,271.157638376
179.957,271.121327822
179.972,271.084878666
179.987,271.048289687
180.002,271.011559681
180.017,270.974687426
180.032,270.937671688
180.047,270.900511218
180.062,270.863204763
180.077,270.825751064
180.092,270.788148832
180.107,270.750396806
180.122,270.712493661
180.137,270.674438119
180.152,270.636228836
180.167,270.5978645
180.182,270.559343757
180.197,270.520665272
180.212,270.481827685
180.227,270.442829619
180.242,270.403669706
180.257,270.364346538
180.272,270.324858732
180.287,270.285204854
180.302,270.245383515
180.317,270.20539325
180.332,270.165232634
180.347,270.12490022
180.362,270.08439454
180.377,270.043714101
180.392,270.002857455
180.407,269.961823075
180.422,269.920609488
180.437,269.879215147
180.452,269.83763854
180.467,269.795878126
180.482,269.753932376
180.497,269.711799692
180.512,269.669478561
180.527,269.626967362
180.542,269.584264511
180.557,269.541368404
180.56,269.532765844
180.572,269.498277427
180.587,269.454989966
180.602,269.411504369
180.617,269.367818986
180.632,269.323932169
180.647,269.279842223
180.66,269.241465338
180.662,269.23554748
180.677,269.19104623
180.692,269.146336746
180.707,269.10141732
180.722,269.05628619
180.737,269.010941603
180.752,268.965381804
180.767,268.919604984
180.782,268.873609354
180.797,268.827393094
180.812,268.780954355
180.827,268.734291273
180.842,268.687401989
180.857,268.640284606
180.872,268.592937219
180.887,268.545357873
180.902,268.497544627
180.917,268.449495493
180.932,268.401208495
180.947,268.352681589
180.962,268.303912718
180.977,268.254899818
180.992,268.205640771
181.007,268.15613345
181.022,268.106375685
181.037,268.056365304
181.052,268.006100059
181.067,267.955577694
181.082,267.904795909
181.097,267.853752373
181.112,267.802444711
181.127,267.750870507
181.142,267.699027304
181.157,267.646912606
181.172,267.594523876
181.187,267.541858491
181.202,267.488913829
181.217,267.435687176
181.232,267.382175783
181.247,267.328376847
181.262,267.274287484
181.277,267.219904769
181.292,267.165225706
181.307,267.110247217
181.31,267.099215317
181.322,267.054966171
181.337,266.999379375
181.352,266.943483508
181.367,266.887275233
181.382,266.830751093
181.397,266.773907532
181.412,266.716740949
181.427,266.659247605
181.442,266.601423705
181.457,266.543265324
181.472,266.484768445
181.487,266.425928923
181.502,266.366742533
181.517,266.307204924
181.532,266.24731158
181.547,266.187057947
181.562,266.126439263
181.577,266.065450663
181.592,266.004087141
181.607,265.942343551
181.622,265.88021459
181.637,265.817694817
181.652,265.754778615
181.667,265.691460192
181.682,265.627733642
181.697,265.563592807
181.712,265.499031427
181.727,265.434042998
181.742,265.368620843
181.757,265.302758104
181.772,265.236447702
181.787,265.169682355
181.802,265.102454542
181.817,265.034756578
181.832,264.966580489
181.847,264.897918092
181.862,264.828760991
181.877,264.75910048
181.892,264.688927644
181.907,264.618233304
181.922,264.547007995
181.937,264.475242003
181.952,264.402925285
181.967,264.330047567
181.982,264.256598224
181.997,264.182566358
182.012,264.107940751
182.027,264.032709852
182.042,263.956861817
182.057,263.880384411
182.06,263.865012313
182.072,263.803265113
182.087,263.725491011
182.102,263.647048839
182.117,263.56792497
182.132,263.488105402
182.147,263.407575714
182.162,263.326321175
182.177,263.244326553
182.192,263.161576271
182.207,263.078054317
182.222,262.993744235
182.237,262.908629164
182.252,262.822691787
182.267,262.735914343
182.282,262.648278604
182.297,262.559765899
182.312,262.470357088
182.327,262.380032543
182.342,262.288772167
182.357,262.19655537
182.372,262.103361081
182.387,262.009167767
182.402,261.913953364
182.417,261.817695354
182.432,261.720370704
182.447,261.62195591
182.462,261.522426967
182.477,261.421759458
182.492,261.319928413
182.507,261.216908438
182.522,261.112673734
182.537,261.007197968
182.552,260.900454473
182.567,260.792416139
182.582,260.683055431
182.597,260.572344454
182.612,260.460254941
182.627,260.346758222
182.642,260.231825268
182.657,260.115426682
182.672,259.997532614
182.687,259.878112772
182.702,259.757136354
182.717,259.634571918
182.732,259.510387181
182.747,259.384548945
182.762,259.257022677
182.777,259.127772136
182.792,258.99675891
182.807,258.863941691
182.822,258.729275317
182.837,258.59270966
182.852,258.454188016
182.867,258.313645155
182.882,258.171004728
182.897,258.026175881
182.912,257.879049045
182.927,257.729490342
182.942,257.577334499
182.957,257.422375594
182.972,257.264355194
182.987,257.102946792
183.002,256.937735732
183.017,256.768192703
183.032,256.593638964
183.047,256.413200129
183.062,256.22574443
183.077,256.029799378
183.092,255.823438322
183.107,255.604124381
183.122,255.368493076
183.137,255.112046731
183.152,254.828719947
183.167,254.51025687
183.182,254.145315473
183.197,253.718186724
183.212,253.207009194
183.227,252.581452589
183.242,251.800275306
183.257,250.810481982
183.367,251.067705696
183.382,251.995734975
183.397,252.72972634
183.412,253.31979165
183.427,253.804187275
183.442,254.210841646
183.457,254.559849318
183.472,254.865661423
183.487,255.138732129
183.502,255.386689102
183.517,255.615149963
183.532,255.828289977
183.547,256.029239027
183.562,256.220361499
183.577,256.403455899
183.592,256.579898591
183.607,256.750748674
183.622,256.91682506
183.637,257.078763916
183.652,257.237061505
183.667,257.392106864
183.682,257.544206257
183.697,257.693602242
183.712,257.840488042
183.727,257.985018775
183.742,258.127320091
183.757,258.267494892
183.772,258.405628462
183.787,258.541792602
183.802,258.676048651
183.817,258.80845002
183.832,258.939044016
183.847,259.06787327
183.862,259.194976913
183.877,259.320391383
183.892,259.444151104
183.907,259.566288946
183.922,259.686836641
183.937,259.805824981
183.952,259.923284075
183.967,260.039243485
183.982,260.153732278
183.997,260.266779093
184.012,260.378412263
184.027,260.488659745
184.042,260.59754914
184.057,260.705107755
184.072,260.811362503
184.087,260.916339978
184.102,261.020066395
184.117,261.122567575
184.132,261.223868953
184.147,261.323995569
184.162,261.422971992
184.177,261.520822405
184.192,261.617570551
184.207,261.71323968
184.222,261.807852621
184.237,261.901431728
184.252,261.993998889
184.267,262.085575547
184.282,262.176182663
184.297,262.265840721
184.312,262.354569768
184.327,262.442389359
184.342,262.529318619
184.357,262.615376223
184.372,262.700580371
184.387,262.784948854
184.402,262.868498994
184.417,262.951247718
184.432,263.033211506
184.447,263.114406418
184.462,263.194848155
184.477,263.274551956
184.492,263.353532699
184.507,263.43180489
184.522,263.509382607
184.537,263.586279638
184.552,263.662509335
184.56,263.702896837
184.567,263.738084736
184.582,263.813018542
184.597,263.887323062
184.612,263.961010339
184.627,264.034092086
184.642,264.106579628
184.657,264.178484093
184.672,264.24981622
184.687,264.320586477
184.702,264.390805095
184.717,264.460481957
184.732,264.529626723
184.747,264.59824876
184.762,264.666357181
184.777,264.733960852
184.792,264.801068404
184.807,264.867688228
184.822,264.933828452
184.837,264.999497004
184.852,265.064701599
184.867,265.129449703
184.882,265.193748625
184.897,265.25760542
184.912,265.32102697
184.927,265.384019972
184.942,265.446590928
184.957,265.508746146
184.972,265.570491783
184.987,265.631833804
185.002,265.692778037
185.017,265.753330097
185.032,265.813495541
185.047,265.873279629
185.062,265.932687632
185.077,265.991724543
185.092,266.050395337
185.107,266.108704759
185.122,266.166657482
185.137,266.224258044
185.152,266.281510854
185.167,266.3384202
185.182,266.394990271
185.197,266.45122514
185.212,266.507128797
185.227,266.562705096
185.242,266.61795779
185.257,266.67289059
185.272,266.727507066
185.287,266.781810735
185.302,266.835804985
185.31,266.864476565
185.317,266.889493164
185.332,266.942878528
185.347,266.995964257
185.362,267.048753452
185.377,267.101249158
185.392,267.153454354
185.407,267.205371911
185.422,267.257004697
185.437,267.308355498
185.452,267.359427031
185.467,267.410221965
185.482,267.460742912
185.497,267.510992442
185.512,267.560973077
185.527,267.610687286
185.542,267.660137486
185.557,267.709326038
185.572,267.758255325
185.587,267.806927617
185.602,267.855345186
185.617,267.903510229
185.632,267.951424972
185.647,267.999091536
185.662,268.046512067
185.677,268.093688623
185.692,268.140623287
185.707,268.187318082
185.722,268.233775009
185.737,268.279996047
185.752,268.32598313
185.767,268.3717382
185.782,268.417263153
185.797,268.462559859
185.812,268.507630179
185.827,268.552475949
185.842,268.597098976
185.857,268.641501063
185.872,268.68568397
185.887,268.729649461
185.902,268.773399272
185.917,268.816935116
185.932,268.860258728
185.947,268.90337175
185.96,268.940567329
185.962,268.946275879
185.977,268.988972757
185.992,269.031464051
186.007,269.073751371
186.022,269.115836323
186.037,269.157720495
186.052,269.199405518
186.06,269.22155662
186.067,269.24089291
186.082,269.282184278
186.097,269.323281142
186.112,269.364185033
186.127,269.404897502
186.142,269.445420014
186.157,269.485754118
186.172,269.525901258
186.187,269.565862942
186.202,269.605640606
186.217,269.645235746
186.232,269.684649765
186.247,269.723884115
186.262,269.762940214
186.277,269.801819465
186.292,269.840523283
186.307,269.879053054
186.322,269.917410168
186.337,269.955595965
186.352,269.993611851
186.367,270.031459141
186.382,270.069139176
186.397,270.106653302
186.412,270.144002845
186.427,270.181189089
186.442,270.218213363
186.457,270.255076931
186.472,270.291781102
186.487,270.328327136
186.502,270.364716279
186.517,270.400949814
186.532,270.437028965
186.547,270.47295496
186.562,270.50872903
186.577,270.544352396
186.592,270.57982625
186.607,270.615151785
186.622,270.650330187
186.637,270.685362631
186.652,270.7202503
186.667,270.754994328
186.682,270.789595861
186.697,270.824056047
186.71,270.853808086
186.712,270.858376025
186.727,270.89255687
186.742,270.926599736
186.757,270.960505687
186.772,270.994275832
186.787,271.027911243
186.802,271.061412987
186.817,271.094782133
186.832,271.128019726
186.847,271.161126811
186.862,271.194104408
186.877,271.226953547
186.892,271.259675259
186.907,271.292270512
186.922,271.324740316
186.937,271.357085674
186.952,271.389307539
186.967,271.421406881
186.982,271.453384654
186.997,271.485241811
187.012,271.516979298
187.027,271.548598044
187.042,271.580098945
187.057,271.611482936
187.072,271.642750905
187.087,271.673903769
187.102,271.704942376
187.117,271.73586763
187.132,271.766680387
187.147,271.797381504
187.162,271.827971814
187.177,271.858452189
187.192,271.888823434
187.207,271.919086387
187.222,271.949241843
187.237,271.979290619
187.252,272.00923352
187.267,272.039071318
187.282,272.068804794
187.297,272.098434735
187.312,272.127961878
187.327,272.157387014
187.342,272.186710845
187.357,272.215934142
187.372,272.245057615
187.387,272.274082015
187.402,272.303008019
187.417,272.331836363
187.432,272.360567735
187.447,272.389202818
187.46,272.413942532
187.462,272.417742298
187.477,272.44618686
187.492,272.474537146
187.507,272.502793856
187.522,272.530957615
187.537,272.55902907
187.552,272.587008885
187.567,272.614897658
187.582,272.642696016
187.597,272.670404596
187.612,272.698023992
187.627,272.725554803
187.642,272.752997636
187.657,272.780353076
187.672,272.807621704
187.687,272.834804095
187.702,272.861900819
187.717,272.888912432
187.732,272.915839492
187.747,272.942682551
187.762,272.969442159
187.777,272.996118833
187.792,273.02271312
187.807,273.049225535
187.822,273.075656604
187.837,273.102006827
187.852,273.128276718
187.867,273.154466774
187.882,273.180577492
187.897,273.206609363
187.912,273.232562863
187.927,273.258438474
187.942,273.284236658
187.957,273.309957894
187.972,273.335602643
187.987,273.361171334
188.002,273.386664454
188.017,273.41208242
188.032,273.437425688
188.047,273.462694685
188.062,273.487889839
188.077,273.513011578
188.092,273.538060332
188.107,273.563036496
188.122,273.587940494
188.137,273.612772715
188.152,273.637533581
188.167,273.662223471
188.182,273.686842779
188.197,273.711391907
188.21,273.732611324
188.212,273.735871215
188.227,273.760281093
188.242,273.78462192
188.257,273.808894049
188.272,273.833097875
188.287,273.857233719
188.302,273.881301964
188.317,273.905302964
188.332,273.929237061
188.347,273.953104606
188.362,273.97690592
188.377,274.000641363
188.392,274.024311264
188.407,274.047915947
188.422,274.071455748
188.437,274.09493097
188.452,274.118341969
188.467,274.141689013
188.482,274.164972451
188.497,274.188192578
188.512,274.211349708
188.527,274.234444133
188.542,274.25747615
188.557,274.280446068
188.572,274.303354163
188.587,274.326200743
188.602,274.34898607
188.617,274.371710444
188.632,274.394374154
188.647,274.416977459
188.66,274.436518365
188.662,274.439520646
188.677,274.46200398
188.692,274.484427721
188.707,274.506792148
188.722,274.529097523
188.737,274.55134411
