# 48698 WSSS Singapore Observations at 12Z 30 Aug 2019
Frequency [GHz],TB
175.31,278.512009873
175.322,278.490689294
175.337,278.463976933
175.352,278.437196007
175.367,278.41034643
175.382,278.383428119
175.397,278.356440987
175.412,278.329384949
175.427,278.302259917
175.442,278.275065805
175.457,278.247802526
175.472,278.220469992
175.487,278.193068116
175.502,278.165596807
175.517,278.138055979
175.532,278.11044554
175.547,278.082765402
175.562,278.055015474
175.577,278.027195665
175.592,277.999305883
175.607,277.971346039
175.622,277.943316038
175.637,277.915215789
175.652,277.887045198
175.667,277.858804173
175.682,277.830492618
175.697,277.80211044
175.712,277.773657543
175.727,277.745133832
175.742,277.71653921
175.757,277.687873583
175.772,277.659136851
175.787,277.630328919
175.802,277.601449687
175.817,277.572499058
175.832,277.543476932
175.847,277.51438321
175.862,277.485217792
175.877,277.455980576
175.892,277.426671463
175.907,277.39729035
175.922,277.367837135
175.937,277.338311716
175.952,277.308713988
175.967,277.279043849
175.982,277.249301193
175.997,277.219485916
176.012,277.189597913
176.027,277.159637077
176.042,277.129603301
176.057,277.099496479
176.072,277.069316503
176.087,277.039063264
176.102,277.008736653
176.117,276.978336561
176.132,276.947862878
176.147,276.917315492
176.162,276.886694294
176.177,276.85599917
176.192,276.825230009
176.207,276.794386697
176.222,276.76346912
176.237,276.732477165
176.252,276.701410716
176.267,276.670269658
176.282,276.639053874
176.297,276.607763247
176.31,276.580584075
176.312,276.576397661
176.327,276.544956997
176.342,276.513441136
176.357,276.481849959
176.372,276.450183346
176.387,276.418441176
176.402,276.386623328
176.417,276.354729679
176.432,276.322760108
176.447,276.29071449
176.46,276.262880011
176.462,276.258592701
176.477,276.226394616
176.492,276.194120111
176.507,276.161769059
176.522,276.129341332
176.537,276.096836804
176.552,276.064255346
176.567,276.031596828
176.582,275.998861121
176.597,275.966048095
176.612,275.933157617
176.627,275.900189556
176.642,275.867143779
176.657,275.834020152
176.672,275.800818541
176.687,275.76753881
176.702,275.734180823
176.717,275.700744443
176.732,275.667229533
176.747,275.633635954
176.762,275.599963566
176.777,275.56621223
176.792,275.532381803
176.807,275.498472143
176.822,275.464483109
176.837,275.430414555
176.852,275.396266337
176.867,275.362038308
176.882,275.327730323
176.897,275.293342234
176.912,275.258873891
176.927,275.224325144
176.942,275.189695844
176.957,275.154985838
176.972,275.120194973
176.987,275.085323096
177.002,275.05037005
177.017,275.01533568
177.032,274.980219829
177.047,274.945022338
177.062,274.909743047
177.077,274.874381795
177.092,274.83893842
177.107,274.803412759
177.122,274.767804647
177.137,274.732113917
177.152,274.696340403
177.167,274.660483936
177.182,274.624544345
177.197,274.588521459
177.21,274.557234115
177.212,274.552415105
177.227,274.516225109
177.242,274.479951294
177.257,274.443593483
177.272,274.407151497
177.287,274.370625154
177.302,274.334014273
177.31,274.314453839
177.317,274.297318669
177.332,274.260538157
177.347,274.223672548
177.362,274.186721654
177.377,274.149685282
177.392,274.11256324
177.407,274.075355333
177.422,274.038061363
177.437,274.00068113
177.452,273.963214435
177.467,273.925661072
177.482,273.888020837
177.497,273.850293522
177.512,273.812478915
177.527,273.774576806
177.542,273.736586978
177.557,273.698509214
177.572,273.660343295
177.587,273.622088996
177.602,273.583746094
177.617,273.54531436
177.632,273.506793564
177.647,273.468183471
177.66,273.434648976
177.662,273.429483844
177.677,273.390694445
177.692,273.35181503
177.707,273.312845354
177.722,273.273785167
177.737,273.234634216
177.752,273.195392246
177.767,273.156058998
177.782,273.116634207
177.797,273.077117608
177.812,273.037508929
177.827,272.997807897
177.842,272.958014234
177.857,272.918127656
177.872,272.878147877
177.887,272.838074606
177.902,272.797907548
177.917,272.757646404
177.932,272.717290868
177.947,272.676840633
177.96,272.641706918
177.962,272.636295383
177.977,272.595654801
177.992,272.554918562
178.007,272.514086337
178.022,272.473157792
178.037,272.432132587
178.052,272.391010376
178.067,272.349790809
178.082,272.308473528
178.097,272.26705817
178.112,272.225544365
178.127,272.183931739
178.142,272.14221991
178.157,272.100408488
178.172,272.058497078
178.187,272.016485278
178.202,271.974372678
178.217,271.932158862
178.232,271.889843406
178.247,271.847425878
178.262,271.804905838
178.277,271.762282839
178.292,271.719556424
178.307,271.676726131
178.322,271.633791486
178.337,271.590752007
178.352,271.547607206
178.367,271.504356581
178.382,271.460999624
178.397,271.417535818
178.41,271.379780347
178.412,271.373964632
178.427,271.33028553
178.442,271.286497963
178.457,271.242601371
178.472,271.198595186
178.487,271.154478826
178.502,271.110251699
178.517,271.065913203
178.532,271.021462723
178.547,270.97689963
178.562,270.932223288
178.577,270.887433043
178.592,270.842528233
178.607,270.797508178
178.622,270.75237219
178.637,270.707119564
178.652,270.661749582
178.667,270.616261511
178.682,270.570654607
178.697,270.524928106
178.712,270.479081234
178.727,270.433113199
178.742,270.387023193
178.757,270.340810393
178.772,270.29447396
178.787,270.248013038
178.802,270.201426754
178.817,270.154714218
178.832,270.107874522
178.847,270.06090674
178.862,270.013809927
178.877,269.966583122
178.892,269.919225343
178.907,269.871735587
178.922,269.824112835
178.937,269.776356045
178.952,269.728464156
178.967,269.680436085
178.982,269.632270729
178.997,269.583966962
179.012,269.535523637
179.027,269.486939584
179.042,269.438213611
179.057,269.389344501
179.072,269.340331015
179.087,269.291171889
179.102,269.241865836
179.117,269.192411541
179.132,269.142807667
179.147,269.093052849
179.16,269.049808836
179.162,269.043145697
179.177,268.993084793
179.192,268.942868694
179.207,268.892495927
179.222,268.841964992
179.237,268.791274362
179.252,268.740422478
179.267,268.689407755
179.282,268.638228575
179.297,268.586883292
179.312,268.535370228
179.327,268.483687674
179.342,268.43183389
179.357,268.379807101
179.372,268.327605504
179.387,268.275227257
179.402,268.22267049
179.417,268.169933294
179.432,268.117013728
179.447,268.063909816
179.462,268.010619544
179.477,267.957140864
179.492,267.90347169
179.507,267.849609899
179.522,267.795553331
179.537,267.741299787
179.552,267.686847029
179.567,267.632192781
179.582,267.577334724
179.597,267.522270503
179.612,267.46699772
179.627,267.411513933
179.642,267.355816664
179.657,267.299903387
179.672,267.243771536
179.687,267.1874185
179.702,267.130841626
179.717,267.074038214
179.732,267.017005521
179.747,266.959740758
179.762,266.902241088
179.777,266.844503629
179.792,266.786525452
179.807,266.72830358
179.822,266.669834987
179.837,266.6111166
179.852,266.552145294
179.867,266.492917898
179.882,266.433431186
179.897,266.373681886
179.91,266.321684184
179.912,266.313666671
179.927,266.253382163
179.942,266.192824934
179.957,266.131991499
179.972,266.070878324
179.987,266.009481818
180.002,265.947798336
180.017,265.88582418
180.032,265.823555595
180.047,265.76098877
180.062,265.698119838
180.077,265.634944876
180.092,265.571459903
180.107,265.50766088
180.122,265.44354371
180.137,265.379104237
180.152,265.314338247
180.167,265.249241465
180.182,265.183809557
180.197,265.118038127
180.212,265.05192272
180.227,264.985458819
180.242,264.918641844
180.257,264.851467155
180.272,264.783930047
180.287,264.716025755
180.302,264.647749447
180.317,264.579096231
180.332,264.510061149
180.347,264.440639179
180.362,264.370825233
180.377,264.30061416
180.392,264.230000742
180.407,264.158979697
180.422,264.087545675
180.437,264.015693261
180.452,263.943416974
180.467,263.870711264
180.482,263.797570516
180.497,263.723989048
180.512,263.649961109
180.527,263.575480881
180.542,263.50054248
180.557,263.425139951
180.56,263.410003221
180.572,263.349267274
180.587,263.272918359
180.602,263.196087048
180.617,263.118767116
180.632,263.040952269
180.647,262.962636144
180.66,262.894351724
180.662,262.883812312
180.677,262.804474274
180.692,262.724615464
180.707,262.644229246
180.722,262.56330892
180.737,262.481847715
180.752,262.399838794
180.767,262.317275254
180.782,262.234150122
180.797,262.150456363
180.812,262.066186873
180.827,261.981334482
180.842,261.895891956
180.857,261.809851997
180.872,261.723207241
180.887,261.635950261
180.902,261.548073569
180.917,261.459569613
180.932,261.370430779
180.947,261.280649394
180.962,261.190217725
180.977,261.099127979
180.992,261.007372307
181.007,260.914942802
181.022,260.821831501
181.037,260.728030389
181.052,260.633531396
181.067,260.538326399
181.082,260.442407227
181.097,260.345765658
181.112,260.248393425
181.127,260.150282213
181.142,260.051423665
181.157,259.951809378
181.172,259.851430913
181.187,259.75027979
181.202,259.648347494
181.217,259.545625473
181.232,259.442105146
181.247,259.337777902
181.262,259.2326351
181.277,259.126668076
181.292,259.019868145
181.307,258.9122266
181.31,258.890596529
181.322,258.803734717
181.337,258.694383761
181.352,258.584164984
181.367,258.47306963
181.382,258.361088939
181.397,258.248214149
181.412,258.134436502
181.427,258.019747242
181.442,257.904137627
181.457,257.787598923
181.472,257.670122416
181.487,257.551699412
181.502,257.432321241
181.517,257.311979265
181.532,257.190664875
181.547,257.068369504
181.562,256.945084626
181.577,256.820801761
181.592,256.695512482
181.607,256.569208421
181.622,256.441881269
181.637,256.313522788
181.652,256.184124811
181.667,256.053679251
181.682,255.922178105
181.697,255.789613462
181.712,255.655977506
181.727,255.521262526
181.742,255.385460922
181.757,255.24856521
181.772,255.110568029
181.787,254.971462155
181.802,254.831240497
181.817,254.689896119
181.832,254.547422235
181.847,254.403812229
181.862,254.259059657
181.877,254.113158262
181.892,253.96610198
181.907,253.817884952
181.922,253.668501538
181.937,253.517946326
181.952,253.366214145
181.967,253.213300081
181.982,253.059199487
181.997,252.903908004
182.012,252.747421571
182.027,252.589736446
182.042,252.430849223
182.057,252.270756852
182.06,252.238593518
182.072,252.109456659
182.087,251.94694637
182.102,251.783224131
182.117,251.618288538
182.132,251.452138663
182.147,251.284774079
182.162,251.116194899
182.177,250.946401802
182.192,250.775396073
182.207,250.603179641
182.222,250.429755121
182.237,250.255125855
182.252,250.079295965
182.267,249.9022704
182.282,249.72405499
182.297,249.54465651
182.312,249.364082739
182.327,249.182342526
182.342,248.999445868
182.357,248.815403984
182.372,248.630229398
182.387,248.443936029
182.402,248.256539289
182.417,248.068056182
182.432,247.878505417
182.447,247.687907521
182.462,247.496284971
182.477,247.303662324
182.492,247.110066364
182.507,246.915526257
182.522,246.720073713
182.537,246.523743167
182.552,246.326571965
182.567,246.128600572
182.582,245.929872783
182.597,245.730435958
182.612,245.530341272
182.627,245.329643976
182.642,245.128403685
182.657,244.926684679
182.672,244.72455623
182.687,244.522092945
182.702,244.319375136
182.717,244.116489219
182.732,243.913528128
182.747,243.710591767
182.762,243.507787486
182.777,243.305230586
182.792,243.103044858
182.807,242.901363154
182.822,242.700327989
182.837,242.500092178
182.852,242.300819508
182.867,242.102685446
182.882,241.905877879
182.897,241.71059789
182.912,241.517060566
182.927,241.325495843
182.942,241.136149369
182.957,240.949283408
182.972,240.765177749
182.987,240.584130642
183.002,240.40645973
183.017,240.232502968
183.032,240.062619514
183.047,239.897190555
183.062,239.736620026
183.077,239.581335156
183.092,239.431786767
183.107,239.288449191
183.122,239.151819665
183.137,239.022416979
183.152,238.900779136
183.167,238.787459713
183.182,238.68302259
183.197,238.588034723
183.212,238.50305669
183.227,238.428630896
183.242,238.365267589
183.257,238.313429138
183.367,238.309331961
183.382,238.359903896
183.397,238.421903566
183.412,238.494857209
183.427,238.578246952
183.442,238.671526153
183.457,238.774132877
183.472,238.885501124
183.487,239.005069721
183.502,239.132289059
183.517,239.266625952
183.532,239.407566947
183.547,239.554620412
183.562,239.707317705
183.577,239.865213656
183.592,240.027886559
183.607,240.194937823
183.622,240.365991387
183.637,240.540692988
183.652,240.718709324
183.667,240.899727168
183.682,241.083452447
183.697,241.269609322
183.712,241.457939261
183.727,241.648200135
183.742,241.840165329
183.757,242.033622888
183.772,242.228374681
183.787,242.424235604
183.802,242.621032816
183.817,242.818605003
183.832,243.016801685
183.847,243.215482549
183.862,243.414516822
183.877,243.613782678
183.892,243.81316667
183.907,244.012563203
183.922,244.211874035
183.937,244.411007804
183.952,244.609879588
183.967,244.808410487
183.982,245.00652724
183.997,245.204161853
184.012,245.401251262
184.027,245.597737011
184.042,245.793564953
184.057,245.98868497
184.072,246.183050709
184.087,246.37661934
184.102,246.569351323
184.117,246.761210196
184.132,246.952162374
184.147,247.142176962
184.162,247.331225578
184.177,247.519282191
184.192,247.70632297
184.207,247.892326135
184.222,248.077271829
184.237,248.261141992
184.252,248.443920241
184.267,248.625591767
184.282,248.806143226
184.297,248.985562651
184.312,249.16383936
184.327,249.340963872
184.342,249.51692783
184.357,249.691723933
184.372,249.865345863
184.387,250.037788227
184.402,250.209046493
184.417,250.37911694
184.432,250.547996608
184.447,250.715683243
184.462,250.882175262
184.477,251.047471706
184.492,251.211572202
184.507,251.374476928
184.522,251.53618658
184.537,251.696702341
184.552,251.856025849
184.56,251.940511585
184.567,252.014159173
184.582,252.171104785
184.597,252.32686554
184.612,252.48144465
184.627,252.634845664
184.642,252.787072449
184.657,252.938129175
184.672,253.088020291
184.687,253.236750516
184.702,253.384324821
184.717,253.530748412
184.732,253.676026723
184.747,253.820165399
184.762,253.963170284
184.777,254.105047413
184.792,254.245802999
184.807,254.385443424
184.822,254.523975228
184.837,254.661405101
184.852,254.797739878
184.867,254.932986522
184.882,255.067152126
184.897,255.200243899
184.912,255.332269161
184.927,255.463235337
184.942,255.593149949
184.957,255.72202061
184.972,255.849855019
184.987,255.976660953
185.002,256.102446264
185.017,256.227218871
185.032,256.350986758
185.047,256.473757964
185.062,256.595540583
185.077,256.716342758
185.092,256.836172673
185.107,256.955038553
185.122,257.072948657
185.137,257.189911276
185.152,257.305934726
185.167,257.421027346
185.182,257.535197495
185.197,257.648453545
185.212,257.760803883
185.227,257.872256899
185.242,257.982820993
185.257,258.092504563
185.272,258.201316006
185.287,258.309263714
185.302,258.416356073
185.31,258.473125146
185.317,258.522601456
185.332,258.628008223
185.347,258.73258472
185.362,258.836339272
185.377,258.939280184
185.392,259.041415736
185.407,259.142754184
185.422,259.243303755
185.437,259.343072646
185.452,259.44206902
185.467,259.540301009
185.482,259.637776705
185.497,259.734504166
185.512,259.830491406
185.527,259.9257464
185.542,260.02027708
185.557,260.114091333
185.572,260.207197
185.587,260.299601874
185.602,260.3913137
185.617,260.482340173
185.632,260.572688936
185.647,260.662367582
185.662,260.751383647
185.677,260.839744618
185.692,260.927457921
185.707,261.014530929
185.722,261.100970959
185.737,261.186785268
185.752,261.271981056
185.767,261.356565464
185.782,261.440545572
185.797,261.523928401
185.812,261.606720912
185.827,261.688930002
185.842,261.77056251
185.857,261.85162521
185.872,261.932124815
185.887,262.012067975
185.902,262.091461277
185.917,262.170311245
185.932,262.24862434
185.947,262.326406959
185.96,262.393394363
185.962,262.403665435
185.977,262.480406039
185.992,262.556634974
186.007,262.632358385
186.022,262.707582347
186.037,262.782312877
186.052,262.856555924
186.06,262.895954924
186.067,262.930317374
186.082,263.00360305
186.097,263.076418712
186.112,263.148770055
186.127,263.220662712
186.142,263.292102252
186.157,263.363094181
186.172,263.433643943
186.187,263.503756918
186.202,263.573438426
186.217,263.642693724
186.232,263.711528005
186.247,263.779946404
186.262,263.847953992
186.277,263.915555781
186.292,263.98275672
186.307,264.049561702
186.322,264.115975555
186.337,264.182003051
186.352,264.247648901
186.367,264.312917757
186.382,264.377814215
186.397,264.442342809
186.412,264.506508019
186.427,264.570314264
186.442,264.63376591
186.457,264.696867264
186.472,264.759622576
186.487,264.822036043
186.502,264.884111805
186.517,264.945853948
186.532,265.007266503
186.547,265.068353446
186.562,265.129118702
186.577,265.189566141
186.592,265.249699582
186.607,265.309522789
186.622,265.369039477
186.637,265.428253309
186.652,265.487167896
186.667,265.545786801
186.682,265.604113534
186.697,265.662151559
186.71,265.712220287
186.712,265.719904288
186.727,265.777375087
186.742,265.834567272
186.757,265.891484113
186.772,265.948128831
186.787,266.004504604
186.802,266.060614559
186.817,266.116461781
186.832,266.172049308
186.847,266.227380135
186.862,266.282457211
186.877,266.337283443
186.892,266.391861692
186.907,266.44619478
186.922,266.500285482
186.937,266.554136536
186.952,266.607750635
186.967,266.661130432
186.982,266.714278541
186.997,266.767197534
187.012,266.819889945
187.027,266.872358268
187.042,266.924604959
187.057,266.976632435
187.072,267.028443077
187.087,267.080039226
187.102,267.131423189
187.117,267.182597235
187.132,267.233563599
187.147,267.284324479
187.162,267.334882038
187.177,267.385238405
187.192,267.435395675
187.207,267.485355909
187.222,267.535121136
187.237,267.584693351
187.252,267.634074518
187.267,267.683266567
187.282,267.732271398
187.297,267.781090881
187.312,267.829726854
187.327,267.878181125
187.342,267.926455472
187.357,267.974551646
187.372,268.022471365
187.387,268.070216323
187.402,268.117788182
187.417,268.165188579
187.432,268.212419123
187.447,268.259481396
187.46,268.30013379
187.462,268.306376954
187.477,268.353107326
187.492,268.399674015
187.507,268.446078502
187.522,268.492322238
187.537,268.538406654
187.552,268.584333154
187.567,268.63010312
187.582,268.67571791
187.597,268.721178858
187.612,268.766487277
187.627,268.811644455
187.642,268.856651663
187.657,268.901510144
187.672,268.946221126
187.687,268.990785811
187.702,269.035205383
187.717,269.079481006
187.732,269.123613823
187.747,269.167604958
187.762,269.211455516
187.777,269.255166581
187.792,269.298739223
187.807,269.342174488
187.822,269.385473409
187.837,269.428636999
187.852,269.471666252
187.867,269.514562149
187.882,269.55732565
187.897,269.599957703
187.912,269.642459236
187.927,269.684831163
187.942,269.727074381
187.957,269.769189773
187.972,269.811178208
187.987,269.853040537
188.002,269.894777599
188.017,269.936390219
188.032,269.977879205
188.047,270.019245355
188.062,270.060489451
188.077,270.101612262
188.092,270.142614547
188.107,270.183497047
188.122,270.224260496
188.137,270.264905612
188.152,270.305433102
188.167,270.345843661
188.182,270.386137973
188.197,270.426316711
188.21,270.461045309
188.212,270.466380536
188.227,270.506330099
188.242,270.546166038
188.257,270.585888983
188.272,270.625499553
188.287,270.664998357
188.302,270.704385993
188.317,270.743663051
188.332,270.78283011
188.347,270.821887741
188.362,270.860836505
188.377,270.899676955
188.392,270.938409633
188.407,270.977035074
188.422,271.015553806
188.437,271.053966347
188.452,271.092273206
188.467,271.130474887
188.482,271.168571882
188.497,271.206564681
188.512,271.244453761
188.527,271.282239596
188.542,271.31992265
188.557,271.357503381
188.572,271.394982242
188.587,271.432359676
188.602,271.469636121
188.617,271.50681201
188.632,271.543887768
188.647,271.580863813
188.66,271.612829383
188.662,271.61774056
188.677,271.654518415
188.692,271.69119778
188.707,271.727779051
188.722,271.764262618
188.737,271.800648868
