# 01004 ENAS Ny-Alesund Ii Observations at 12Z 27 Aug 2019
Frequency [GHz],TB
175.31,263.312042654
175.322,263.317228675
175.337,263.323538672
175.352,263.329656342
175.367,263.335580992
175.382,263.341311961
175.397,263.34684857
175.412,263.352190161
175.427,263.35733607
175.442,263.362285641
175.457,263.367038216
175.472,263.37159316
175.487,263.375949824
175.502,263.380107579
175.517,263.384065786
175.532,263.387823821
175.547,263.391381069
175.562,263.394736911
175.577,263.397890741
175.592,263.40084195
175.607,263.403589942
175.622,263.406134132
175.637,263.408473922
175.652,263.410608732
175.667,263.412537997
175.682,263.414261143
175.697,263.41577761
175.712,263.417086838
175.727,263.418188277
175.742,263.419081387
175.757,263.41976563
175.772,263.420240479
175.787,263.420505399
175.802,263.420559893
175.817,263.42040343
175.832,263.420035522
175.847,263.419455663
175.862,263.418663367
175.877,263.417658155
175.892,263.416439545
175.907,263.415007085
175.922,263.413360298
175.937,263.411498735
175.952,263.409421955
175.967,263.407129518
175.982,263.404620994
175.997,263.401895957
176.012,263.398953999
176.027,263.395794713
176.042,263.39241769
176.057,263.388822545
176.072,263.385008907
176.087,263.380976385
176.102,263.376724613
176.117,263.372253241
176.132,263.367561918
176.147,263.362650298
176.162,263.357518053
176.177,263.352164847
176.192,263.346590377
176.207,263.340794329
176.222,263.334776403
176.237,263.328536312
176.252,263.322073774
176.267,263.315388517
176.282,263.308480269
176.297,263.301348786
176.31,263.294987405
176.312,263.293993823
176.327,263.286415129
176.342,263.278612487
176.357,263.270585679
176.372,263.262334492
176.387,263.253858723
176.402,263.24515818
176.417,263.236232692
176.432,263.227082072
176.447,263.217706165
176.46,263.209398026
176.462,263.208104812
176.477,263.198277874
176.492,263.188225203
176.507,263.177946691
176.522,263.167442202
176.537,263.156711652
176.552,263.145754913
176.567,263.134571919
176.582,263.123162586
176.597,263.111526839
176.612,263.099664627
176.627,263.087575895
176.642,263.075260597
176.657,263.062718706
176.672,263.049950203
176.687,263.036955076
176.702,263.023733312
176.717,263.010284924
176.732,262.996609932
176.747,262.982708354
176.762,262.968580227
176.777,262.954225598
176.792,262.939644516
176.807,262.924837049
176.822,262.90980327
176.837,262.894543246
176.852,262.879057085
176.867,262.863344879
176.882,262.84740674
176.897,262.831242781
176.912,262.814853137
176.927,262.798237942
176.942,262.781397338
176.957,262.764331481
176.972,262.747040533
176.987,262.729524672
177.002,262.711784069
177.017,262.693818918
177.032,262.675629422
177.047,262.657215785
177.062,262.638578214
177.077,262.61971694
177.092,262.600632193
177.107,262.581324216
177.122,262.561793244
177.137,262.542039555
177.152,262.522063399
177.167,262.501865043
177.182,262.481444772
177.197,262.46080288
177.21,262.44273419
177.212,262.439939648
177.227,262.41885539
177.242,262.397550402
177.257,262.376025015
177.272,262.354279544
177.287,262.332314321
177.302,262.31012968
177.31,262.298208276
177.317,262.287725966
177.332,262.265103532
177.347,262.24226273
177.362,262.219203926
177.377,262.195927481
177.392,262.172433778
177.407,262.148723197
177.422,262.124796119
177.437,262.100652935
177.452,262.076294045
177.467,262.051719849
177.482,262.026930752
177.497,262.001927161
177.512,261.976709506
177.527,261.951278194
177.542,261.925633653
177.557,261.89977631
177.572,261.873706607
177.587,261.847424966
177.602,261.820931832
177.617,261.794227645
177.632,261.767312855
177.647,261.740187909
177.66,261.716509974
177.662,261.712853256
177.677,261.68530935
177.692,261.657556652
177.707,261.629595608
177.722,261.601426692
177.737,261.573050346
177.752,261.544467061
177.767,261.515677274
177.782,261.486681458
177.797,261.457480082
177.812,261.428073611
177.827,261.398462504
177.842,261.368647234
177.857,261.338628269
177.872,261.30840607
177.887,261.277981088
177.902,261.247353815
177.917,261.216524695
177.932,261.185494191
177.947,261.154262757
177.96,261.127033352
177.962,261.122830869
177.977,261.091198965
177.992,261.0593675
178.007,261.027336924
178.022,260.9951077
178.037,260.962680254
178.052,260.930055032
178.067,260.897232474
178.082,260.864213008
178.097,260.830997073
178.112,260.797585077
178.127,260.763977465
178.142,260.730174633
178.157,260.696176993
178.172,260.661984961
178.187,260.627598919
178.202,260.593019277
178.217,260.558246419
178.232,260.523280719
178.247,260.488122558
178.262,260.452772306
178.277,260.417230309
178.292,260.38149694
178.307,260.345572534
178.322,260.309457431
178.337,260.27315196
178.352,260.236656449
178.367,260.199971201
178.382,260.163096532
178.397,260.12603273
178.41,260.093758005
178.412,260.08878009
178.427,260.051338886
178.442,260.013709374
178.457,259.97589183
178.472,259.937886495
178.487,259.89969361
178.502,259.861313397
178.517,259.82274608
178.532,259.783991854
178.547,259.745050936
178.562,259.70592349
178.577,259.666609703
178.592,259.62710972
178.607,259.587423709
178.622,259.547551798
178.637,259.507494116
178.652,259.467250774
178.667,259.426821879
178.682,259.386207521
178.697,259.345407763
178.712,259.304422682
178.727,259.263252324
178.742,259.221896727
178.757,259.180355922
178.772,259.138629907
178.787,259.096718687
178.802,259.054622249
178.817,259.012340569
178.832,258.969873583
178.847,258.927221258
178.862,258.884383508
178.877,258.841360259
178.892,258.798151393
178.907,258.754756815
178.922,258.711176396
178.937,258.667409991
178.952,258.623457446
178.967,258.579318585
178.982,258.534993225
178.997,258.490481173
179.012,258.445782212
179.027,258.400896117
179.042,258.355822639
179.057,258.310561527
179.072,258.265112502
179.087,258.219475286
179.102,258.173649572
179.117,258.127635047
179.132,258.081431385
179.147,258.035038227
179.16,257.994677286
179.162,257.98845524
179.177,257.941682031
179.192,257.894718218
179.207,257.847563399
179.222,257.800217158
179.237,257.752679065
179.252,257.704948672
179.267,257.657025533
179.282,257.608909162
179.297,257.560599083
179.312,257.512094784
179.327,257.463395762
179.342,257.414501492
179.357,257.365411418
179.372,257.316124997
179.387,257.266641662
179.402,257.21696083
179.417,257.167081914
179.432,257.117004293
179.447,257.066727359
179.462,257.016250474
179.477,256.965573003
179.492,256.91469428
179.507,256.863613642
179.522,256.812330404
179.537,256.760843884
179.552,256.709153362
179.567,256.657258137
179.582,256.605157476
179.597,256.552850638
179.612,256.500336879
179.627,256.447615437
179.642,256.394685546
179.657,256.341546424
179.672,256.288197277
179.687,256.234637307
179.702,256.180865706
179.717,256.126881648
179.732,256.072684313
179.747,256.018272853
179.762,255.96364643
179.777,255.908804185
179.792,255.85374525
179.807,255.798468761
179.822,255.742973832
179.837,255.687259576
179.852,255.631325107
179.867,255.575169498
179.882,255.518791866
179.897,255.462191282
179.91,255.412956387
179.912,255.405366823
179.927,255.348317561
179.942,255.291042558
179.957,255.233540882
179.972,255.175811575
179.987,255.117853695
180.002,255.059666273
180.017,255.001248357
180.032,254.942598977
180.047,254.883717159
180.062,254.82460193
180.077,254.76525232
180.092,254.705667331
180.107,254.645845989
180.122,254.585787302
180.137,254.525490277
180.152,254.464953922
180.167,254.404177246
180.182,254.343159239
180.197,254.28189891
180.212,254.220395259
180.227,254.158647278
180.242,254.096653974
180.257,254.034414335
180.272,253.971927347
180.287,253.90919203
180.302,253.846207362
180.317,253.782972351
180.332,253.719485984
180.347,253.655747264
180.362,253.591755196
180.377,253.527508779
180.392,253.463007014
180.407,253.398248903
180.422,253.333233465
180.437,253.267959703
180.452,253.202426631
180.467,253.136633272
180.482,253.070578651
180.497,253.004261785
180.512,252.937681707
180.527,252.870837447
180.542,252.80372805
180.557,252.736352563
180.56,252.722845454
180.572,252.668710029
180.587,252.600799517
180.602,252.53262007
180.617,252.464170769
180.632,252.39545069
180.647,252.326458924
180.66,252.266445573
180.662,252.257194542
180.677,252.187656649
180.692,252.117844362
180.707,252.047756791
180.722,251.977393062
180.737,251.906752306
180.752,251.835833667
180.767,251.7646363
180.782,251.693159366
180.797,251.621402044
180.812,251.549363523
180.827,251.477042986
180.842,251.404439654
180.857,251.331552752
180.872,251.258381505
180.887,251.184925168
180.902,251.111182995
180.917,251.037154276
180.932,250.962838291
180.947,250.88823434
180.962,250.813341759
180.977,250.738159867
180.992,250.662688018
181.007,250.5869256
181.022,250.510871985
181.037,250.434526575
181.052,250.357888801
181.067,250.2809581
181.082,250.203733936
181.097,250.126215786
181.112,250.048403156
181.127,249.970295558
181.142,249.891892543
181.157,249.813193685
181.172,249.73419856
181.187,249.654906782
181.202,249.575317996
181.217,249.495431858
181.232,249.415248057
181.247,249.334766306
181.262,249.253986348
181.277,249.172907948
181.292,249.091530909
181.307,249.009855057
181.31,248.993484018
181.322,248.927880246
181.337,248.845606376
181.352,248.763033363
181.367,248.680161167
181.382,248.596989771
181.397,248.513519221
181.412,248.429749571
181.427,248.345680924
181.442,248.261313432
181.457,248.176647277
181.472,248.091682691
181.487,248.006419954
181.502,247.920859379
181.517,247.835001342
181.532,247.748846266
181.547,247.662394627
181.562,247.57564695
181.577,247.488603827
181.592,247.401265912
181.607,247.313633908
181.622,247.225708602
181.637,247.13749083
181.652,247.048981523
181.667,246.960181683
181.682,246.871092366
181.697,246.781714762
181.712,246.692050106
181.727,246.602099743
181.742,246.511865114
181.757,246.421347777
181.772,246.330549378
181.787,246.239471697
181.802,246.148116625
181.817,246.056486181
181.832,245.96458253
181.847,245.872407982
181.862,245.779964982
181.877,245.687256152
181.892,245.594284281
181.907,245.501052344
181.922,245.407563488
181.937,245.313821084
181.952,245.219828701
181.967,245.125590154
181.982,245.031109475
181.997,244.936390972
182.012,244.841439205
182.027,244.746259024
182.042,244.650855591
182.057,244.555234375
182.06,244.536084499
182.072,244.459401178
182.087,244.363362175
182.102,244.267123911
182.117,244.17069333
182.132,244.074077803
182.147,243.977285136
182.162,243.880323617
182.177,243.783202027
182.192,243.685929676
182.207,243.588516423
182.222,243.490972711
182.237,243.393309595
182.252,243.295538789
182.267,243.197672674
182.282,243.099724362
182.297,243.00170771
182.312,242.903637358
182.327,242.805528804
182.342,242.707398389
182.357,242.609263387
182.372,242.511142024
182.387,242.413053505
182.402,242.315018127
182.417,242.217057241
182.432,242.119193347
182.447,242.021450147
182.462,241.923852573
182.477,241.826426844
182.492,241.729200512
182.507,241.632202525
182.522,241.535463274
182.537,241.439014618
182.552,241.342889974
182.567,241.247124339
182.582,241.151754341
182.597,241.056818303
182.612,240.962356248
182.627,240.868409999
182.642,240.775023155
182.657,240.682241179
182.672,240.590111405
182.687,240.498683079
182.702,240.408007357
182.717,240.318137362
182.732,240.22912817
182.747,240.141036809
182.762,240.053922297
182.777,239.967845567
182.792,239.88286951
182.807,239.799058911
182.822,239.716480417
182.837,239.63520247
182.852,239.55529527
182.867,239.476830678
182.882,239.399882112
182.897,239.324524474
182.912,239.250833984
182.927,239.178888064
182.942,239.108765169
182.957,239.040544607
182.972,238.974306348
182.987,238.910130796
183.002,238.848098561
183.017,238.788290188
183.032,238.730785882
183.047,238.675665219
183.062,238.623006812
183.077,238.572887971
183.092,238.525384356
183.107,238.4805696
183.122,238.438514942
183.137,238.399288808
183.152,238.362956414
183.167,238.329579379
183.182,238.299215319
183.197,238.27191745
183.212,238.247734218
183.227,238.226708951
183.242,238.208879504
183.257,238.194277965
183.367,238.187352388
183.382,238.200055979
183.397,238.215981005
183.412,238.235094113
183.427,238.257356247
183.442,238.282722972
183.457,238.311144802
183.472,238.342567581
183.487,238.376932827
183.502,238.414178162
183.517,238.454237688
183.532,238.497042398
183.547,238.54252057
183.562,238.590598174
183.577,238.641199218
183.592,238.69424615
183.607,238.749660183
183.622,238.807361651
183.637,238.867270307
183.652,238.929305628
183.667,238.993387071
183.682,239.059434359
183.697,239.127367667
183.712,239.197107896
183.727,239.268576812
183.742,239.341697241
183.757,239.416393236
183.772,239.492590201
183.787,239.570215008
183.802,239.649196112
183.817,239.729463649
183.832,239.810949491
183.847,239.893587319
183.862,239.977312686
183.877,240.062063025
183.892,240.147777713
183.907,240.234398065
183.922,240.32186734
183.937,240.410130756
183.952,240.499135509
183.967,240.58883069
183.982,240.679167339
183.997,240.77009837
184.012,240.861578577
184.027,240.953564571
184.042,241.046014777
184.057,241.138889368
184.072,241.232150225
184.087,241.325760906
184.102,241.419686599
184.117,241.513894059
184.132,241.608351566
184.147,241.703028896
184.162,241.797897241
184.177,241.892929181
184.192,241.988098621
184.207,242.083380742
184.222,242.178751969
184.237,242.27418991
184.252,242.369673297
184.267,242.465181959
184.282,242.560696772
184.297,242.656199601
184.312,242.751673268
184.327,242.8471015
184.342,242.942468918
184.357,243.03776094
184.372,243.132963796
184.387,243.228064471
184.402,243.323050643
184.417,243.417910706
184.432,243.512633678
184.447,243.6072092
184.462,243.701627494
184.477,243.795879356
184.492,243.88995607
184.507,243.983849464
184.522,244.077551807
184.537,244.171055825
184.552,244.26435468
184.56,244.314027938
184.567,244.35744192
184.582,244.450311482
184.597,244.542957655
184.612,244.635375083
184.627,244.727558712
184.642,244.819503799
184.657,244.911205902
184.672,245.002660831
184.687,245.09386466
184.702,245.184813717
184.717,245.275504536
184.732,245.365933883
184.747,245.45609872
184.762,245.545996208
184.777,245.635623689
184.792,245.724978681
184.807,245.814058854
184.822,245.902862031
184.837,245.991386195
184.852,246.079629455
184.867,246.167590054
184.882,246.255266352
184.897,246.342656832
184.912,246.429760082
184.927,246.516574798
184.942,246.60309977
184.957,246.689333889
184.972,246.775276125
184.987,246.860925537
185.002,246.946281272
185.017,247.031342537
185.032,247.116108621
185.047,247.200578879
185.062,247.284752735
185.077,247.368629671
185.092,247.452209232
185.107,247.535491011
185.122,247.618474664
185.137,247.701159898
185.152,247.783546465
185.167,247.865634169
185.182,247.947422853
185.197,248.028912419
185.212,248.110102783
185.227,248.190993927
185.242,248.271585859
185.257,248.351878626
185.272,248.43187232
185.287,248.511567042
185.302,248.590962953
185.31,248.633185323
185.317,248.670060232
185.332,248.748859094
185.347,248.827359781
185.362,248.905562559
185.377,248.983467736
185.392,249.061075634
185.407,249.138386598
185.422,249.215401011
185.437,249.292119273
185.452,249.368541809
185.467,249.444669068
185.482,249.52050151
185.497,249.596039634
185.512,249.671283944
185.527,249.746234979
185.542,249.820893295
185.557,249.895259445
185.572,249.969334027
185.587,250.043117647
185.602,250.116610932
185.617,250.189814505
185.632,250.262729051
185.647,250.33535522
185.662,250.407693702
185.677,250.479745209
185.692,250.551510451
185.707,250.622990169
185.722,250.694185088
185.737,250.765095981
185.752,250.835723615
185.767,250.906068773
185.782,250.976132251
185.797,251.045914851
185.812,251.115417388
185.827,251.184640699
185.842,251.253585617
185.857,251.322252994
185.872,251.390643684
185.887,251.458758559
185.902,251.526598494
185.917,251.594164375
185.932,251.661457096
185.947,251.728477556
185.96,251.786342431
185.962,251.795226669
185.977,251.861705355
185.992,251.92791453
186.007,251.993855133
186.022,252.059528093
186.037,252.124934365
186.052,252.190074891
186.06,252.224708177
186.067,252.254950639
186.082,252.31956255
186.097,252.383911606
186.112,252.447998772
186.127,252.511825025
186.142,252.575391348
186.157,252.638698725
186.172,252.701748135
186.187,252.764540584
186.202,252.827077052
186.217,252.889358551
186.232,252.951386071
186.247,253.013160626
186.262,253.074683214
186.277,253.135954845
186.292,253.196976526
186.307,253.257749276
186.322,253.318274108
186.337,253.378552024
186.352,253.438584059
186.367,253.498371211
186.382,253.557914509
186.397,253.617214962
186.412,253.6762736
186.427,253.735091429
186.442,253.793669473
186.457,253.852008744
186.472,253.910110262
186.487,253.967975049
186.502,254.025604105
186.517,254.082998456
186.532,254.14015911
186.547,254.197087082
186.562,254.253783369
186.577,254.310248994
186.592,254.366484957
186.607,254.422492252
186.622,254.478271894
186.637,254.533824871
186.652,254.589152181
186.667,254.644254821
186.682,254.69913377
186.697,254.753790025
186.71,254.800979403
186.712,254.808224568
186.727,254.862438368
186.742,254.916432411
186.757,254.970207663
186.772,255.02376509
186.787,255.077105659
186.802,255.130230326
186.817,255.183140051
186.832,255.235835783
186.847,255.288318462
186.862,255.340589027
186.877,255.392648425
186.892,255.444497563
186.907,255.496137392
186.922,255.547568812
186.937,255.598792743
186.952,255.649810091
186.967,255.700621759
186.982,255.751228645
186.997,255.801631627
187.012,255.851831609
187.027,255.901829447
187.042,255.951626021
187.057,256.00122219
187.072,256.050618819
187.087,256.099816744
187.102,256.148816818
187.117,256.197619876
187.132,256.246226743
187.147,256.294638242
187.162,256.342855189
187.177,256.390878384
187.192,256.43870863
187.207,256.486346716
187.222,256.53379343
187.237,256.581049541
187.252,256.628115815
187.267,256.674993013
187.282,256.72168189
187.297,256.768183178
187.312,256.814497622
187.327,256.860625938
187.342,256.906568853
187.357,256.952327072
187.372,256.997901287
187.387,257.043292204
187.402,257.088500496
187.417,257.133526833
187.432,257.178371887
187.447,257.223036314
187.46,257.261599876
187.462,257.267520756
187.477,257.311825855
187.492,257.355952236
187.507,257.399900527
187.522,257.443671329
187.537,257.487265246
187.552,257.530682869
187.567,257.573924788
187.582,257.616991569
187.597,257.659883771
187.612,257.702601968
187.627,257.745146688
187.642,257.787518475
187.657,257.829717857
187.672,257.871745342
187.687,257.913601459
187.702,257.95528668
187.717,257.996801512
187.732,258.038146437
187.747,258.079321913
187.762,258.120328409
187.777,258.161166382
187.792,258.201836269
187.807,258.242338498
187.822,258.282673503
187.837,258.322841697
187.852,258.362843482
187.867,258.402679258
187.882,258.442349414
187.897,258.48185432
187.912,258.521194363
187.927,258.560369889
187.942,258.599381253
187.957,258.6382288
187.972,258.676912864
187.987,258.715433764
188.002,258.753791823
188.017,258.791987349
188.032,258.830020639
188.047,258.867891987
188.062,258.905601667
188.077,258.943149966
188.092,258.980537135
188.107,259.01776344
188.122,259.054829133
188.137,259.091734449
188.152,259.128479624
188.167,259.165064888
188.182,259.201490446
188.197,259.237756516
188.21,259.269058263
188.212,259.273863305
188.227,259.309811001
188.242,259.345599796
188.257,259.381229868
188.272,259.416701381
188.287,259.452014523
188.302,259.487169429
188.317,259.522166269
188.332,259.557005178
188.347,259.5916863
188.362,259.626209766
188.377,259.660575699
188.392,259.694784218
188.407,259.728835439
188.422,259.762729476
188.437,259.79646642
188.452,259.830046361
188.467,259.863469406
188.482,259.896735627
188.497,259.929845108
188.512,259.962797916
188.527,259.995594128
188.542,260.028233795
188.557,260.06071699
188.572,260.093043752
188.587,260.125214136
188.602,260.157228188
188.617,260.189085947
188.632,260.220787447
188.647,260.252332716
188.66,260.279545599
188.662,260.283721781
188.677,260.314954669
188.692,260.346031401
188.707,260.376951991
188.722,260.407716444
188.737,260.438324778
