# 48698 WSSS Singapore Observations at 12Z 27 Aug 2019
Frequency [GHz],TB
175.31,273.565510658
175.322,273.545791308
175.337,273.521086804
175.352,273.496320619
175.367,273.471492529
175.382,273.446602314
175.397,273.42164974
175.412,273.396634566
175.427,273.371556575
175.442,273.346415524
175.457,273.321211178
175.472,273.295943304
175.487,273.270611669
175.502,273.24521602
175.517,273.219756134
175.532,273.194231756
175.547,273.168642641
175.562,273.142988556
175.577,273.117269241
175.592,273.091484457
175.607,273.065633947
175.622,273.03971747
175.637,273.013734764
175.652,272.987685577
175.667,272.961569658
175.682,272.935386747
175.697,272.909136581
175.712,272.882818905
175.727,272.856433452
175.742,272.829979958
175.757,272.803458168
175.772,272.776867806
175.787,272.750208601
175.802,272.723480288
175.817,272.696682592
175.832,272.669815245
175.847,272.642877962
175.862,272.615870478
175.877,272.588792511
175.892,272.561643768
175.907,272.53442398
175.922,272.507132863
175.937,272.479770128
175.952,272.452335484
175.967,272.424828646
175.982,272.397249326
175.997,272.369597226
176.012,272.341872051
176.027,272.314073508
176.042,272.286201298
176.057,272.25825512
176.072,272.230234665
176.087,272.202139644
176.102,272.173969738
176.117,272.145724645
176.132,272.117404054
176.147,272.089007657
176.162,272.06053513
176.177,272.03198617
176.192,272.003360457
176.207,271.974657661
176.222,271.945877476
176.237,271.917019564
176.252,271.888083603
176.267,271.859069276
176.282,271.82997624
176.297,271.800804168
176.31,271.775457519
176.312,271.771552733
176.327,271.742221582
176.342,271.712810393
176.357,271.683318823
176.372,271.653746523
176.387,271.624093151
176.402,271.594358358
176.417,271.564541807
176.432,271.534643134
176.447,271.504661986
176.46,271.478611343
176.462,271.474598015
176.477,271.444450854
176.492,271.414220153
176.507,271.38390554
176.522,271.353506659
176.537,271.323023137
176.552,271.292454604
176.567,271.261800689
176.582,271.231061025
176.597,271.20023522
176.612,271.169322909
176.627,271.138323706
176.642,271.107237228
176.657,271.076063084
176.672,271.044800889
176.687,271.013450255
176.702,270.982010783
176.717,270.950482081
176.732,270.91886374
176.747,270.887155377
176.762,270.855356571
176.777,270.823466925
176.792,270.791486021
176.807,270.759413458
176.822,270.727248812
176.837,270.694991675
176.852,270.662641622
176.867,270.630198229
176.882,270.597661074
176.897,270.56502973
176.912,270.532303762
176.927,270.499482738
176.942,270.466566229
176.957,270.433553783
176.972,270.400444968
176.987,270.367239337
177.002,270.333936436
177.017,270.300535828
177.032,270.267037048
177.047,270.23343964
177.062,270.199743151
177.077,270.165947117
177.092,270.132051069
177.107,270.098054545
177.122,270.063957068
177.137,270.029758162
177.152,269.995457361
177.167,269.96105417
177.182,269.926548115
177.197,269.891938708
177.21,269.861859909
177.212,269.857225456
177.227,269.822407868
177.242,269.787485448
177.257,269.752457696
177.272,269.717324109
177.287,269.682084178
177.302,269.6467374
177.31,269.627841917
177.317,269.611283262
177.332,269.575721241
177.347,269.540050822
177.362,269.504271484
177.377,269.468382704
177.392,269.432383942
177.407,269.396274673
177.422,269.360054361
177.437,269.32372246
177.452,269.287278429
177.467,269.250721731
177.482,269.214051801
177.497,269.177268092
177.512,269.140370046
177.527,269.103357102
177.542,269.066228689
177.557,269.028984252
177.572,268.991623206
177.587,268.954144977
177.602,268.916548988
177.617,268.878834657
177.632,268.841001394
177.647,268.803048604
177.66,268.770059045
177.662,268.764975695
177.677,268.726782072
177.692,268.688467128
177.707,268.65003025
177.722,268.611470838
177.737,268.57278827
177.752,268.53398193
177.767,268.495051197
177.782,268.455995439
177.797,268.416814023
177.812,268.377506325
177.827,268.338071695
177.842,268.298509488
177.857,268.258819064
177.872,268.218999766
177.887,268.179050935
177.902,268.138971919
177.917,268.09876204
177.932,268.058420641
177.947,268.01794704
177.96,267.982762462
177.962,267.977340559
177.977,267.936600521
177.992,267.895726231
178.007,267.854717003
178.022,267.813572135
178.037,267.772290928
178.052,267.730872678
178.067,267.689316668
178.082,267.647622195
178.097,267.605788528
178.112,267.563814941
178.127,267.521700717
178.142,267.479445112
178.157,267.437047384
178.172,267.394506801
178.187,267.3518226
178.202,267.308994032
178.217,267.266020341
178.232,267.22290076
178.247,267.17963452
178.262,267.136220848
178.277,267.092658956
178.292,267.048948073
178.307,267.005087393
178.322,266.961076131
178.337,266.91691349
178.352,266.872598656
178.367,266.828130814
178.382,266.783509148
178.397,266.738732845
178.41,266.699800985
178.412,266.693801074
178.427,266.648712996
178.442,266.603467766
178.457,266.558064554
178.472,266.512502496
178.487,266.466780739
178.502,266.420898426
178.517,266.374854683
178.532,266.328648637
178.547,266.282279407
178.562,266.235746109
178.577,266.189047848
178.592,266.142183729
178.607,266.095152839
178.622,266.047954277
178.637,266.00058712
178.652,265.953050446
178.667,265.905343322
178.682,265.857464816
178.697,265.809413988
178.712,265.761189881
178.727,265.71279154
178.742,265.664218003
178.757,265.615468308
178.772,265.566541469
178.787,265.517436506
178.802,265.468152431
178.817,265.418688247
178.832,265.369042939
178.847,265.319215511
178.862,265.269204936
178.877,265.219010193
178.892,265.168630246
178.907,265.118064054
178.922,265.067310575
178.937,265.016368745
178.952,264.96523751
178.967,264.913915788
178.982,264.862402513
178.997,264.810696592
179.012,264.758796929
179.027,264.706702428
179.042,264.654411975
179.057,264.601924452
179.072,264.549238734
179.087,264.496353685
179.102,264.443268162
179.117,264.389981012
179.132,264.336491078
179.147,264.282797184
179.16,264.236096588
179.162,264.228898159
179.177,264.174792816
179.192,264.120479951
179.207,264.065958373
179.222,264.011226862
179.237,263.956284184
179.252,263.901129129
179.267,263.84576043
179.282,263.790176851
179.297,263.734377129
179.312,263.678359994
179.327,263.622124157
179.342,263.565668338
179.357,263.508991228
179.372,263.452091518
179.387,263.394967877
179.402,263.337618994
179.417,263.280043504
179.432,263.222240066
179.447,263.16420731
179.462,263.105943866
179.477,263.047448337
179.492,262.988719337
179.507,262.929755449
179.522,262.870555252
179.537,262.811117317
179.552,262.751440187
179.567,262.691522424
179.582,262.631362542
179.597,262.570959067
179.612,262.51031051
179.627,262.449415351
179.642,262.388272083
179.657,262.326879163
179.672,262.265235053
179.687,262.203338189
179.702,262.141187007
179.717,262.078779904
179.732,262.016115298
179.747,261.953191564
179.762,261.890007069
179.777,261.826560179
179.792,261.762849237
179.807,261.698872561
179.822,261.634628469
179.837,261.570115257
179.852,261.505331201
179.867,261.44027458
179.882,261.374943633
179.897,261.309336595
179.91,261.252252457
179.912,261.24345168
179.927,261.177287096
179.942,261.110841021
179.957,261.044111626
179.972,260.977097054
179.987,260.909795443
180.002,260.842204897
180.017,260.774323526
180.032,260.7061494
180.047,260.637680575
180.062,260.568915094
180.077,260.499850976
180.092,260.430486227
180.107,260.36081883
180.122,260.290846736
180.137,260.220567895
180.152,260.149980232
180.167,260.079081643
180.182,260.007870002
180.197,259.936343177
180.212,259.864499003
180.227,259.792335288
180.242,259.719849829
180.257,259.647040404
180.272,259.573904746
180.287,259.500440581
180.302,259.426645619
180.317,259.352517529
180.332,259.278053966
180.347,259.203252555
180.362,259.1281109
180.377,259.052626585
180.392,258.976797159
180.407,258.900620152
180.422,258.82409306
180.437,258.747213355
180.452,258.669978499
180.467,258.592385893
180.482,258.514432948
180.497,258.436117019
180.512,258.35743545
180.527,258.278385546
180.542,258.198964589
180.557,258.119169826
180.56,258.103165776
180.572,258.038998481
180.587,257.958447753
180.602,257.877514791
180.617,257.79619674
180.632,257.71449069
180.647,257.632393711
180.66,257.560924493
180.662,257.549902843
180.677,257.467015093
180.692,257.383727434
180.707,257.300036803
180.722,257.215940114
180.737,257.131434239
180.752,257.046516022
180.767,256.961182264
180.782,256.875429746
180.797,256.78925521
180.812,256.702655351
180.827,256.615626851
180.842,256.528166333
180.857,256.440270404
180.872,256.351935627
180.887,256.263158529
180.902,256.173935601
180.917,256.084263288
180.932,255.994138029
180.947,255.903556192
180.962,255.812514126
180.977,255.721008139
180.992,255.629034496
181.007,255.53658944
181.022,255.443669154
181.037,255.350269809
181.052,255.25638752
181.067,255.162018368
181.082,255.067158398
181.097,254.971803623
181.112,254.875950009
181.127,254.779593486
181.142,254.68272995
181.157,254.585355263
181.172,254.487465237
181.187,254.389055666
181.202,254.29012229
181.217,254.190660824
181.232,254.09066694
181.247,253.990136273
181.262,253.889064434
181.277,253.787446989
181.292,253.685279465
181.307,253.582557377
181.31,253.561946013
181.322,253.479276184
181.337,253.375431318
181.352,253.271018188
181.367,253.16603217
181.382,253.060468603
181.397,252.954322803
181.412,252.847590057
181.427,252.740265616
181.442,252.63234473
181.457,252.523822598
181.472,252.414694411
181.487,252.304955341
181.502,252.194600524
181.517,252.083625095
181.532,251.972024165
181.547,251.859792841
181.562,251.746926192
181.577,251.633419317
181.592,251.519267271
181.607,251.404465127
181.622,251.289007944
181.637,251.172890788
181.652,251.056108731
181.667,250.938656842
181.682,250.820530211
181.697,250.701723942
181.712,250.582233151
181.727,250.462052979
181.742,250.341178594
181.757,250.219605198
181.772,250.097328027
181.787,249.974342363
181.802,249.850643528
181.817,249.726226906
181.832,249.601087931
181.847,249.475222119
181.862,249.348625039
181.877,249.221292361
181.892,249.093219837
181.907,248.964403315
181.922,248.834838749
181.937,248.704522218
181.952,248.573449931
181.967,248.441618223
181.982,248.309023582
181.997,248.175662671
182.012,248.041532324
182.027,247.906629561
182.042,247.770951614
182.057,247.634495926
182.06,247.607111256
182.072,247.497260202
182.087,247.359242378
182.102,247.220440687
182.117,247.080853654
182.132,246.940480118
182.147,246.799319269
182.162,246.657370667
182.177,246.51463426
182.192,246.371110424
182.207,246.226799993
182.222,246.081704268
182.237,245.935825096
182.252,245.789164866
182.267,245.641726547
182.282,245.493513773
182.297,245.344530825
182.312,245.194782725
182.327,245.044275263
182.342,244.893015039
182.357,244.741009535
182.372,244.588267166
182.387,244.434797336
182.402,244.280610495
182.417,244.125718219
182.432,243.970133264
182.447,243.813869652
182.462,243.656942724
182.477,243.499369243
182.492,243.34116746
182.507,243.182357205
182.522,243.022959959
182.537,242.862998965
182.552,242.702499293
182.567,242.54148796
182.582,242.379993997
182.597,242.218048557
182.612,242.055685012
182.627,241.892939027
182.642,241.729848662
182.657,241.566454437
182.672,241.402799441
182.687,241.238929369
182.702,241.07489258
182.717,240.910740148
182.732,240.746525863
182.747,240.58230624
182.762,240.418140464
182.777,240.254090307
182.792,240.090220012
182.807,239.926596075
182.822,239.76328698
182.837,239.60036282
182.852,239.437894799
182.867,239.275954581
182.882,239.114613432
182.897,238.953941157
182.912,238.794004655
182.927,238.634866163
182.942,238.47658094
182.957,238.319194315
182.972,238.162737903
182.987,238.007224693
183.002,237.852642708
183.017,237.698946731
183.032,237.546047412
183.047,237.393796908
183.062,237.241969701
183.077,237.090236814
183.092,236.938130752
183.107,236.784997434
183.122,236.629929485
183.137,236.471672756
183.152,236.308494136
183.167,236.137993333
183.182,235.956834627
183.197,235.760369157
183.212,235.542125353
183.227,235.293208528
183.242,235.001927062
183.257,234.6550056
183.367,234.735093537
183.382,235.063394995
183.397,235.339388245
183.412,235.576263148
183.427,235.785006412
183.442,235.973840509
183.457,236.148717988
183.472,236.313910864
183.487,236.472486039
183.502,236.626652276
183.517,236.778005434
183.532,236.927700437
183.547,237.076572246
183.562,237.225221579
183.577,237.374076231
183.592,237.523435407
183.607,237.67350215
183.622,237.824407214
183.637,237.97622688
183.652,238.128996385
183.667,238.282720005
183.682,238.437378851
183.697,238.592936779
183.712,238.749345005
183.727,238.906545642
183.742,239.064474497
183.757,239.223063202
183.772,239.382240929
183.787,239.541935688
183.802,239.702075349
183.817,239.862588454
183.832,240.023404806
183.847,240.184455951
183.862,240.345675513
183.877,240.506999463
183.892,240.668366286
183.907,240.829717089
183.922,240.990995706
183.937,241.152148702
183.952,241.313125377
183.967,241.473877759
183.982,241.634360525
183.997,241.794531001
184.012,241.954349029
184.027,242.113776928
184.042,242.272779406
184.057,242.431323455
184.072,242.589378268
184.087,242.746915162
184.102,242.903907449
184.117,243.060330363
184.132,243.216160979
184.147,243.371378107
184.162,243.525962196
184.177,243.679895276
184.192,243.833160836
184.207,243.985743788
184.222,244.137630348
184.237,244.288807988
184.252,244.439265352
184.267,244.588992209
184.282,244.737979346
184.297,244.88621854
184.312,245.033702516
184.327,245.180424821
184.342,245.32637985
184.357,245.471562752
184.372,245.615969386
184.387,245.759596277
184.402,245.902440597
184.417,246.044500081
184.432,246.185773042
184.447,246.326258278
184.462,246.465955089
184.477,246.604863205
184.492,246.742982794
184.507,246.880314396
184.522,247.016858934
184.537,247.15261764
184.552,247.287592096
184.56,247.359258435
184.567,247.421784164
184.582,247.555195965
184.597,247.687829896
184.612,247.819688577
184.627,247.95077485
184.642,248.08109175
184.657,248.210642511
184.672,248.339430546
184.687,248.467459407
184.702,248.594732807
184.717,248.72125459
184.732,248.847028732
184.747,248.972059313
184.762,249.096350528
184.777,249.219906658
184.792,249.34273208
184.807,249.464831235
184.822,249.58620866
184.837,249.706868926
184.852,249.826816684
184.867,249.94605664
184.882,250.064593521
184.897,250.182432117
184.912,250.299577235
184.927,250.416033732
184.942,250.53180647
184.957,250.646900342
184.972,250.76132027
184.987,250.875071153
185.002,250.988157938
185.017,251.100585561
185.032,251.212358956
185.047,251.323483068
185.062,251.433962832
185.077,251.543803178
185.092,251.653009034
185.107,251.76158531
185.122,251.869536901
185.137,251.976868704
185.152,252.083585582
185.167,252.189692389
185.182,252.29519395
185.197,252.400095082
185.212,252.504400567
185.227,252.608115166
185.242,252.711243619
185.257,252.813790636
185.272,252.915760899
185.287,253.017159058
185.302,253.11798974
185.31,253.171535657
185.317,253.218257538
185.332,253.317967008
185.347,253.417122682
185.362,253.515729055
185.377,253.613790591
185.392,253.711311725
185.407,253.808296834
185.422,253.904750295
185.437,254.000676416
185.452,254.096079498
185.467,254.190963787
185.482,254.285333495
185.497,254.379192805
185.512,254.472545856
185.527,254.565396757
185.542,254.657749578
185.557,254.74960834
185.572,254.840977047
185.587,254.931859651
185.602,255.022260067
185.617,255.112182185
185.632,255.201629846
185.647,255.290606853
185.662,255.379116985
185.677,255.467163968
185.692,255.554751502
185.707,255.641883244
185.722,255.728562821
185.737,255.81479382
185.752,255.900579785
185.767,255.985924237
185.782,256.07083065
185.797,256.15530247
185.812,256.239343105
185.827,256.322955927
185.842,256.406144267
185.857,256.48891144
185.872,256.5712607
185.887,256.653195291
185.902,256.734718414
185.917,256.815833236
185.932,256.896542886
185.947,256.976850461
185.96,257.046127511
185.962,257.056759043
185.977,257.136271654
185.992,257.215391307
186.007,257.294120973
186.022,257.372463586
186.037,257.450422062
186.052,257.527999278
186.06,257.569218885
186.067,257.605198081
186.082,257.682021294
186.097,257.758471698
186.112,257.834552057
186.127,257.910265103
186.142,257.985613531
186.157,258.060600023
186.172,258.135227213
186.187,258.209497724
186.202,258.283414145
186.217,258.356979033
186.232,258.430194929
186.247,258.503064342
186.262,258.575589752
186.277,258.647773615
186.292,258.719618368
186.307,258.791126407
186.322,258.86230012
186.337,258.933141865
186.352,259.003653967
186.367,259.073838739
186.382,259.143698469
186.397,259.213235406
186.412,259.282451803
186.427,259.351349867
186.442,259.419931788
186.457,259.488199745
186.472,259.556155878
186.487,259.623802319
186.502,259.691141177
186.517,259.758174527
186.532,259.824904443
186.547,259.89133296
186.562,259.957462108
186.577,260.023293884
186.592,260.088830278
186.607,260.154073254
186.622,260.219024749
186.637,260.283686698
186.652,260.348061001
186.667,260.412149553
186.682,260.475954221
186.697,260.53947686
186.71,260.594303102
186.712,260.602719303
186.727,260.665683369
186.742,260.728370863
186.757,260.790783558
186.772,260.852923229
186.787,260.914791626
186.802,260.976390482
186.817,261.037721511
186.832,261.098786421
186.847,261.15958689
186.862,261.220124598
186.877,261.280401198
186.892,261.340418325
186.907,261.400177616
186.922,261.459680663
186.937,261.518929082
186.952,261.577924442
186.967,261.636668315
186.982,261.695162265
186.997,261.753407819
187.012,261.811406506
187.027,261.869159845
187.042,261.926669332
187.057,261.983936451
187.072,262.040962685
187.087,262.097749482
187.102,262.15429831
187.117,262.21061059
187.132,262.266687753
187.147,262.322531208
187.162,262.378142358
187.177,262.433522589
187.192,262.488673284
187.207,262.543595802
187.222,262.598291492
187.237,262.652761709
187.252,262.707007776
187.267,262.761031018
187.282,262.814832737
187.297,262.868414248
187.312,262.921776825
187.327,262.974921752
187.342,263.027850296
187.357,263.080563714
187.372,263.133063252
187.387,263.185350151
187.402,263.237425638
187.417,263.289290933
187.432,263.340947236
187.447,263.392395752
187.46,263.436817306
187.462,263.443637669
187.477,263.494674169
187.492,263.545506422
187.507,263.596135591
187.522,263.646562826
187.537,263.69678927
187.552,263.746816062
187.567,263.796644327
187.582,263.846275183
187.597,263.895709738
187.612,263.944949095
187.627,263.99399435
187.642,264.04284658
187.657,264.091506859
187.672,264.139976267
187.687,264.188255853
187.702,264.236346677
187.717,264.284249777
187.732,264.331966192
187.747,264.379496953
187.762,264.426843079
187.777,264.474005587
187.792,264.520985482
187.807,264.567783759
187.822,264.614401415
187.837,264.660839432
187.852,264.707098789
187.867,264.753180455
187.882,264.799085397
187.897,264.844814564
187.912,264.890368908
187.927,264.935749378
187.942,264.980956911
187.957,265.025992421
187.972,265.070856848
187.987,265.115551095
188.002,265.160076083
188.017,265.204432707
188.032,265.24862187
188.047,265.292644452
188.062,265.336501355
188.077,265.38019344
188.092,265.423721587
188.107,265.467086658
188.122,265.510289527
188.137,265.55333103
188.152,265.596212018
188.167,265.63893334
188.182,265.68149583
188.197,265.723900313
188.21,265.760523694
188.212,265.766147619
188.227,265.80823857
188.242,265.850173974
188.257,265.891954643
188.272,265.933581373
188.287,265.975054966
188.302,266.016376217
188.317,266.057545901
188.332,266.098564808
188.347,266.139433712
188.362,266.18015338
188.377,266.220724586
188.392,266.261148072
188.407,266.301424608
188.422,266.341554942
188.437,266.381539817
188.452,266.421379966
188.467,266.461076131
188.482,266.500629044
188.497,266.540039418
188.512,266.579307986
188.527,266.618435456
188.542,266.657422539
188.557,266.696269947
188.572,266.734978379
188.587,266.773548516
188.602,266.811981075
188.617,266.850276726
188.632,266.888436159
188.647,266.926460047
188.66,266.959304966
188.662,266.964349065
188.677,267.002103886
188.692,267.039725172
188.707,267.077213588
188.722,267.114569778
188.737,267.15179441
