# 10410 EDZE Essen Observations at 12Z 27 Aug 2019
Frequency [GHz],TB
175.31,278.267844152
175.322,278.243921679
175.337,278.213945789
175.352,278.183888929
175.367,278.153750991
175.382,278.123531874
175.397,278.093231483
175.412,278.062849711
175.427,278.032386452
175.442,278.00184161
175.457,277.971215068
175.472,277.940506732
175.487,277.909716479
175.502,277.878844208
175.517,277.847889801
175.532,277.816853144
175.547,277.78573413
175.562,277.754532634
175.577,277.72324854
175.592,277.691881736
175.607,277.660432096
175.622,277.628899487
175.637,277.597283807
175.652,277.565584918
175.667,277.533802687
175.682,277.501937001
175.697,277.469987713
175.712,277.437954697
175.727,277.405837824
175.742,277.373636946
175.757,277.341351944
175.772,277.308982657
175.787,277.276528956
175.802,277.2439907
175.817,277.211367738
175.832,277.178659923
175.847,277.14586711
175.862,277.112989143
175.877,277.080025873
175.892,277.046977142
175.907,277.013842798
175.922,276.980622673
175.937,276.947316612
175.952,276.913924455
175.967,276.880446027
175.982,276.846881166
175.997,276.813229699
176.012,276.779491462
176.027,276.745666274
176.042,276.711753951
176.057,276.677754321
176.072,276.64366721
176.087,276.609492427
176.102,276.575229779
176.117,276.540879085
176.132,276.506440152
176.147,276.471912789
176.162,276.437296794
176.177,276.40259198
176.192,276.367798126
176.207,276.332915042
176.222,276.297942523
176.237,276.262880353
176.252,276.227728321
176.267,276.192486217
176.282,276.157153816
176.297,276.121730907
176.31,276.090957662
176.312,276.086217258
176.327,276.050612648
176.342,276.014916844
176.357,275.979129624
176.372,275.943250741
176.387,275.907279967
176.402,275.871217061
176.417,275.835061769
176.432,275.798813856
176.447,275.762473073
176.46,275.730902401
176.462,275.726039155
176.477,275.689511858
176.492,275.65289092
176.507,275.616176076
176.522,275.579367064
176.537,275.542463615
176.552,275.505465456
176.567,275.468372309
176.582,275.431183898
176.597,275.393899941
176.612,275.356520159
176.627,275.319044252
176.642,275.281471931
176.657,275.24380291
176.672,275.206036879
176.687,275.168173535
176.702,275.130212582
176.717,275.092153693
176.732,275.053996576
176.747,275.015740899
176.762,274.97738634
176.777,274.938932583
176.792,274.900379297
176.807,274.86172615
176.822,274.822972799
176.837,274.78411891
176.852,274.745164142
176.867,274.706108144
176.882,274.666950564
176.897,274.627691044
176.912,274.588329231
176.927,274.548864755
176.942,274.509297253
176.957,274.469626349
176.972,274.429851668
176.987,274.389972836
177.002,274.349989458
177.017,274.309901153
177.032,274.269707526
177.047,274.229408178
177.062,274.18900271
177.077,274.148490718
177.092,274.107871787
177.107,274.067145508
177.122,274.026311452
177.137,273.985369202
177.152,273.944318338
177.167,273.903158411
177.182,273.861888997
177.197,273.820509642
177.21,273.784558273
177.212,273.779019911
177.227,273.737419349
177.242,273.695707496
177.257,273.653883897
177.272,273.611948072
177.287,273.569899576
177.302,273.527737919
177.31,273.505205261
177.317,273.485462615
177.332,273.443073188
177.347,273.400569146
177.362,273.357949993
177.377,273.315215235
177.392,273.272364356
177.407,273.229396854
177.422,273.186312208
177.437,273.143109907
177.452,273.099789413
177.467,273.056350204
177.482,273.012791742
177.497,272.969113483
177.512,272.925314884
177.527,272.88139539
177.542,272.837354445
177.557,272.793191489
177.572,272.748905944
177.587,272.704497247
177.602,272.659964814
177.617,272.615308058
177.632,272.570526389
177.647,272.525619216
177.66,272.486597673
177.662,272.480585928
177.677,272.435425927
177.692,272.390138592
177.707,272.344723308
177.722,272.299179451
177.737,272.253506391
177.752,272.207703488
177.767,272.161770094
177.782,272.11570557
177.797,272.069509261
177.812,272.023180498
177.827,271.976718622
177.842,271.930122965
177.857,271.883392835
177.872,271.83652755
177.887,271.789526429
177.902,271.742388767
177.917,271.69511386
177.932,271.647701
177.947,271.600149472
177.96,271.558825421
177.962,271.552458549
177.977,271.504627509
177.992,271.456655608
178.007,271.408542113
178.022,271.360286269
178.037,271.311887317
178.052,271.263344512
178.067,271.214657073
178.082,271.165824229
178.097,271.116845192
178.112,271.067719188
178.127,271.018445407
178.142,270.969023062
178.157,270.919451331
178.172,270.86972941
178.187,270.81985647
178.202,270.769831686
178.217,270.719654217
178.232,270.669323229
178.247,270.618837863
178.262,270.56819727
178.277,270.517400584
178.292,270.466446926
178.307,270.415335436
178.322,270.364065213
178.337,270.312635369
178.352,270.261045008
178.367,270.209293223
178.382,270.157379099
178.397,270.105301714
178.41,270.060035203
178.412,270.053060141
178.427,270.000653448
178.442,269.948080683
178.457,269.895340901
178.472,269.842433145
178.487,269.789356451
178.502,269.736109841
178.517,269.682692342
178.532,269.629102963
178.547,269.575340714
178.562,269.521404583
178.577,269.467293566
178.592,269.413006643
178.607,269.358542798
178.622,269.303900984
178.637,269.249080169
178.652,269.194079308
178.667,269.138897338
178.682,269.083533203
178.697,269.027985823
178.712,268.972254126
178.727,268.916337027
178.742,268.860233432
178.757,268.803942239
178.772,268.747462329
178.787,268.690792601
178.802,268.633931918
178.817,268.576879155
178.832,268.51963317
178.847,268.462192816
178.862,268.404556929
178.877,268.346724358
178.892,268.288693924
178.907,268.230464451
178.922,268.172034752
178.937,268.113403633
178.952,268.054569897
178.967,267.995532327
178.982,267.936289713
178.997,267.876840819
179.012,267.817184425
179.027,267.757319285
179.042,267.697244151
179.057,267.636957768
179.072,267.576458877
179.087,267.515746202
179.102,267.454818471
179.117,267.393674392
179.132,267.332312677
179.147,267.270732029
179.16,267.217184026
179.162,267.208931134
179.177,267.14690868
179.192,267.084663349
179.207,267.022193798
179.222,266.95949871
179.237,266.896576728
179.252,266.833426511
179.267,266.770046688
179.282,266.706435906
179.297,266.64259279
179.312,266.578515961
179.327,266.514204038
179.342,266.449655624
179.357,266.384869324
179.372,266.319843736
179.387,266.254577438
179.402,266.189069028
179.417,266.123317068
179.432,266.057320137
179.447,265.991076796
179.462,265.92458561
179.477,265.857845115
179.492,265.790853867
179.507,265.723610417
179.522,265.656113284
179.537,265.588361013
179.552,265.520352116
179.567,265.452085116
179.582,265.383558532
179.597,265.314770866
179.612,265.245720637
179.627,265.176406336
179.642,265.106826458
179.657,265.036979498
179.672,264.966863947
179.687,264.896478287
179.702,264.825820993
179.717,264.754890556
179.732,264.683685437
179.747,264.612204112
179.762,264.540445049
179.777,264.468406713
179.792,264.396087567
179.807,264.323486067
179.822,264.250600677
179.837,264.177429856
179.852,264.103972053
179.867,264.030225719
179.882,263.956189311
179.897,263.88186129
179.91,263.817206582
179.912,263.807240092
179.927,263.732324182
179.942,263.657111995
179.957,263.581601994
179.972,263.50579263
179.987,263.429682352
180.002,263.353269616
180.017,263.276552876
180.032,263.19953059
180.047,263.122201219
180.062,263.044563217
180.077,262.966615058
180.092,262.888355206
180.107,262.809782131
180.122,262.730894304
180.137,262.651690204
180.152,262.572168322
180.167,262.492327141
180.182,262.41216515
180.197,262.331680854
180.212,262.250872755
180.227,262.169739363
180.242,262.088279197
180.257,262.006490773
180.272,261.924372636
180.287,261.841923321
180.302,261.759141375
180.317,261.676025353
180.332,261.592573823
180.347,261.508785364
180.362,261.424658553
180.377,261.340191992
180.392,261.255384285
180.407,261.170234046
180.422,261.084739907
180.437,260.99890051
180.452,260.912714507
180.467,260.82618056
180.482,260.739297348
180.497,260.652063569
180.512,260.564477922
180.527,260.476539127
180.542,260.388245921
180.557,260.299597053
180.56,260.281824493
180.572,260.210591291
180.587,260.121227412
180.602,260.031504213
180.617,259.941420509
180.632,259.850975127
180.647,259.760166917
180.66,259.681172092
180.662,259.66899473
180.677,259.577457468
180.692,259.485554014
180.707,259.393283293
180.722,259.30064423
180.737,259.207635792
180.752,259.114256942
180.767,259.020506674
180.782,258.926384
180.797,258.831887943
180.812,258.737017555
180.827,258.641771899
180.842,258.546150069
180.857,258.450151165
180.872,258.353774309
180.887,258.257018644
180.902,258.159883338
180.917,258.062367569
180.932,257.964470531
180.947,257.866191451
180.962,257.76752956
180.977,257.66848411
180.992,257.569054372
181.007,257.46923963
181.022,257.369039203
181.037,257.268452395
181.052,257.167478545
181.067,257.066117009
181.082,256.964367153
181.097,256.862228341
181.112,256.759699976
181.127,256.656781459
181.142,256.553472199
181.157,256.449771626
181.172,256.345679168
181.187,256.241194268
181.202,256.136316372
181.217,256.031044939
181.232,255.925379425
181.247,255.819319289
181.262,255.712863998
181.277,255.606013009
181.292,255.498765803
181.307,255.391121825
181.31,255.369545371
181.322,255.28308054
181.337,255.174641412
181.352,255.065803871
181.367,254.956567367
181.382,254.846931328
181.397,254.736895163
181.412,254.626458281
181.427,254.515620074
181.442,254.404379912
181.457,254.292737155
181.472,254.180691131
181.487,254.068241154
181.502,253.955386517
181.517,253.842126487
181.532,253.7284603
181.547,253.614387169
181.562,253.499906274
181.577,253.385016767
181.592,253.269717778
181.607,253.154008384
181.622,253.037887649
181.637,252.921354587
181.652,252.804408181
181.667,252.687047387
181.682,252.569271123
181.697,252.451078263
181.712,252.332467658
181.727,252.213438109
181.742,252.093988406
181.757,251.974117289
181.772,251.853823471
181.787,251.733105644
181.802,251.611962471
181.817,251.490392597
181.832,251.368394637
181.847,251.245967209
181.862,251.123108898
181.877,250.999818314
181.892,250.876094049
181.907,250.751934712
181.922,250.627338926
181.937,250.502305344
181.952,250.37683265
181.967,250.250919575
181.982,250.124564916
181.997,249.997767522
182.012,249.870526347
182.027,249.742840428
182.042,249.614708923
182.057,249.486131116
182.06,249.46036195
182.072,249.357106454
182.087,249.227634543
182.102,249.097715187
182.117,248.967348406
182.132,248.836534461
182.147,248.705273886
182.162,248.573567492
182.177,248.441416444
182.192,248.308822239
182.207,248.175786775
182.222,248.04231239
182.237,247.908401862
182.252,247.774058485
182.267,247.639286106
182.282,247.504089146
182.297,247.368472672
182.312,247.232442421
182.327,247.096004874
182.342,246.959167288
182.357,246.821937748
182.372,246.684325233
182.387,246.546339661
182.402,246.407991959
182.417,246.269294103
182.432,246.130259185
182.447,245.99090148
182.462,245.851236471
182.477,245.711280955
182.492,245.571053067
182.507,245.430572317
182.522,245.289859682
182.537,245.148937629
182.552,245.007830139
182.567,244.86656277
182.582,244.725162666
182.597,244.58365855
182.612,244.442080763
182.627,244.300461221
182.642,244.158833375
182.657,244.017232181
182.672,243.875693963
182.687,243.734256344
182.702,243.592958071
182.717,243.451838793
182.732,243.310938819
182.747,243.170298812
182.762,243.029959342
182.777,242.88996045
182.792,242.75034102
182.807,242.611138066
182.822,242.472385848
182.837,242.334114848
182.852,242.196350458
182.867,242.059111457
182.882,241.922408173
182.897,241.786240244
182.912,241.65059391
182.927,241.515438744
182.942,241.380723657
182.957,241.246372051
182.972,241.112275826
182.987,240.978288013
183.002,240.84421369
183.017,240.709798575
183.032,240.574714734
183.047,240.438542555
183.062,240.300747786
183.077,240.160652157
183.092,240.017395483
183.107,239.869886781
183.122,239.716740872
183.137,239.556196736
183.152,239.38601371
183.167,239.20334435
183.182,239.004591317
183.197,238.78528194
183.212,238.540063692
183.227,238.263102257
183.242,237.949596437
183.257,237.600049229
183.367,237.676988033
183.382,238.014404215
183.397,238.314786261
183.412,238.579620762
183.427,238.814216403
183.442,239.024359813
183.457,239.215190505
183.472,239.390948285
183.487,239.555024799
183.502,239.710099059
183.517,239.858277965
183.532,240.001217644
183.547,240.140221198
183.562,240.276315349
183.577,240.410309703
183.592,240.542842559
183.607,240.674416386
183.622,240.805425401
183.637,240.936177098
183.652,241.066909297
183.667,241.197803558
183.682,241.328995957
183.697,241.460585702
183.712,241.592642117
183.727,241.725210311
183.742,241.858315789
183.757,241.991968254
183.772,242.126164717
183.787,242.260892097
183.802,242.396129298
183.817,242.531849038
183.832,242.668019276
183.847,242.804604427
183.862,242.941566389
183.877,243.078865367
183.892,243.216460557
183.907,243.35431073
183.922,243.492374693
183.937,243.630611665
183.952,243.768981574
183.967,243.907445335
183.982,244.045965021
183.997,244.184503983
184.012,244.323027046
184.027,244.461500499
184.042,244.599892193
184.057,244.738171594
184.072,244.876309747
184.087,245.01427931
184.102,245.152054533
184.117,245.289611226
184.132,245.426926735
184.147,245.5639799
184.162,245.700750997
184.177,245.837221711
184.192,245.973375075
184.207,246.109195392
184.222,246.244668219
184.237,246.379780289
184.252,246.514519448
184.267,246.648874596
184.282,246.782835664
184.297,246.916393513
184.312,247.049539899
184.327,247.182267426
184.342,247.314569493
184.357,247.446440232
184.372,247.577874468
184.387,247.708867671
184.402,247.839415913
184.417,247.969515814
184.432,248.099164524
184.447,248.228359664
184.462,248.35709928
184.477,248.48538186
184.492,248.613206221
184.507,248.740571542
184.522,248.867477313
184.537,248.993923289
184.552,249.119909492
184.56,249.186914219
184.567,249.24543618
184.582,249.370503798
184.597,249.495112994
184.612,249.619264567
184.627,249.742959465
184.642,249.866198775
184.657,249.98898368
184.672,250.111315462
184.687,250.233195491
184.702,250.354625202
184.717,250.475606083
184.732,250.596139683
184.747,250.716227569
184.762,250.835871341
184.777,250.955072629
184.792,251.07383306
184.807,251.192154273
184.822,251.3100379
184.837,251.427485571
184.852,251.544498916
184.867,251.661079523
184.882,251.777228979
184.897,251.892948846
184.912,252.008240656
184.927,252.123105925
184.942,252.237546129
184.957,252.35156271
184.972,252.465157093
184.987,252.578330647
185.002,252.691084739
185.017,252.803420677
185.032,252.915339739
185.047,253.026843182
185.062,253.137932219
185.077,253.248608029
185.092,253.358871763
185.107,253.468724539
185.122,253.57816745
185.137,253.687201548
185.152,253.795827868
185.167,253.904047409
185.182,254.01186115
185.197,254.11927004
185.212,254.226275007
185.227,254.332876971
185.242,254.439076801
185.257,254.544875371
185.272,254.650273534
185.287,254.755272118
185.302,254.859871946
185.31,254.915495749
185.317,254.964073825
185.332,255.067878536
185.347,255.171286875
185.362,255.274299611
185.377,255.376917515
185.392,255.479141341
185.407,255.580971849
185.422,255.682409783
185.437,255.783455896
185.452,255.884110935
185.467,255.984375645
185.482,256.084250775
185.497,256.18373708
185.512,256.282835298
185.527,256.381546198
185.542,256.479870537
185.557,256.577809079
185.572,256.675362602
185.587,256.772531876
185.602,256.869317699
185.617,256.965720868
185.632,257.06174218
185.647,257.157382462
185.662,257.252642537
185.677,257.34752324
185.692,257.44202542
185.707,257.536149939
185.722,257.629897669
185.737,257.723269496
185.752,257.816266324
185.767,257.908889054
185.782,258.001138618
185.797,258.093015964
185.812,258.184522029
185.827,258.275657791
185.842,258.36642422
185.857,258.456822313
185.872,258.546853092
185.887,258.636517568
185.902,258.72581679
185.917,258.814751793
185.932,258.903323655
185.947,258.991533458
185.96,259.067689929
185.962,259.079382293
185.977,259.166871263
185.992,259.254001497
186.007,259.340774132
186.022,259.427190309
186.037,259.513251198
186.052,259.598957975
186.06,259.644523868
186.067,259.684311821
186.082,259.769313937
186.097,259.853965551
186.112,259.938267866
186.127,260.022222137
186.142,260.105829611
186.157,260.189091543
186.172,260.272009204
186.187,260.354583885
186.202,260.436816867
186.217,260.518709464
186.232,260.600262983
186.247,260.681478747
186.262,260.762358096
186.277,260.842902363
186.292,260.923112892
186.307,261.002991055
186.322,261.082538211
186.337,261.161755731
186.352,261.240645001
186.367,261.319207413
186.382,261.397444351
186.397,261.475357218
186.412,261.552947433
186.427,261.630216399
186.442,261.707165539
186.457,261.78379627
186.472,261.860110027
186.487,261.936108238
186.502,262.011792347
186.517,262.087163792
186.532,262.162224021
186.547,262.236974475
186.562,262.311416607
186.577,262.385551872
186.592,262.459381733
186.607,262.532907638
186.622,262.606131044
186.637,262.679053428
186.652,262.751676242
186.667,262.824000956
186.682,262.896029032
186.697,262.967761933
186.71,263.029692817
186.712,263.039201126
186.727,263.110348079
186.742,263.181204258
186.757,263.251771126
186.772,263.322050147
186.787,263.392042791
186.802,263.461750512
186.817,263.53117477
186.832,263.600317031
186.847,263.669178762
186.862,263.737761391
186.877,263.806066398
186.892,263.874095225
186.907,263.941849319
186.922,264.009330125
186.937,264.076539095
186.952,264.143477658
186.967,264.210147262
186.982,264.276549329
186.997,264.342685299
187.012,264.408556592
187.027,264.474164637
187.042,264.539510845
187.057,264.604596634
187.072,264.669423415
187.087,264.733992592
187.102,264.798305571
187.117,264.862363736
187.132,264.926168498
187.147,264.989721225
187.162,265.053023312
187.177,265.116076126
187.192,265.178881042
187.207,265.241439433
187.222,265.303752654
187.237,265.365822054
187.252,265.427648998
187.267,265.489234816
187.282,265.550580854
187.297,265.611688443
187.312,265.672558913
187.327,265.733193575
187.342,265.793593756
187.357,265.853760754
187.372,265.913695872
187.387,265.973400418
187.402,266.032875669
187.417,266.092122921
187.432,266.151143433
187.447,266.209938497
187.46,266.260712819
187.462,266.268509359
187.477,266.326857287
187.492,266.384983533
187.507,266.442889331
187.522,266.500575933
187.537,266.558044563
187.552,266.615296445
187.567,266.672332797
187.582,266.729154831
187.597,266.785763757
187.612,266.842160761
187.627,266.898347048
187.642,266.954323789
187.657,267.010092162
187.672,267.065653344
187.687,267.121008503
187.702,267.176158782
187.717,267.231105337
187.732,267.285849316
187.747,267.34039184
187.762,267.39473405
187.777,267.44887707
187.792,267.502822009
187.807,267.55656998
187.822,267.610122069
187.837,267.663479386
187.852,267.716643019
187.867,267.769614039
187.882,267.822393527
187.897,267.874982548
187.912,267.927382153
187.927,267.979593403
187.942,268.031617353
187.957,268.083455022
187.972,268.135107457
187.987,268.186575681
188.002,268.237860704
188.017,268.288963549
188.032,268.339885217
188.047,268.390626707
188.062,268.441189008
188.077,268.491573106
188.092,268.541779982
188.107,268.591810602
188.122,268.641665938
188.137,268.691346933
188.152,268.740854562
188.167,268.790189757
188.182,268.83935345
188.197,268.888346582
188.21,268.930670048
188.212,268.937170077
188.227,268.985824852
188.242,269.034311821
188.257,269.082631885
188.272,269.130785947
188.287,269.178774904
188.302,269.226599643
188.317,269.274261026
188.332,269.321759945
188.347,269.369097274
188.362,269.416273857
188.377,269.463290551
188.392,269.510148212
188.407,269.556847686
188.422,269.603389801
188.437,269.649775394
188.452,269.696005281
188.467,269.742080291
188.482,269.788001229
188.497,269.833768906
188.512,269.879384112
188.527,269.924847658
188.542,269.970160326
188.557,270.015322889
188.572,270.06033614
188.587,270.105200836
188.602,270.149917754
188.617,270.194487642
188.632,270.238911263
188.647,270.283189368
188.66,270.321446583
188.662,270.327322692
188.677,270.371311969
188.692,270.415157941
188.707,270.458861332
188.722,270.502422853
