# 78954 TBPB Grantley Adams Observations at 12Z 16 Mar 2019
Frequency [GHz],TB
175.31,278.797270874
175.322,278.78060726
175.337,278.759727323
175.352,278.738791256
175.367,278.71779894
175.382,278.696750256
175.397,278.675645082
175.412,278.654483297
175.427,278.633264779
175.442,278.611989404
175.457,278.590657047
175.472,278.569267583
175.487,278.547820884
175.502,278.526316823
175.517,278.504755271
175.532,278.483136099
175.547,278.461459175
175.562,278.439724367
175.577,278.417931543
175.592,278.396080568
175.607,278.374171306
175.622,278.352203623
175.637,278.330177379
175.652,278.308092437
175.667,278.285948656
175.682,278.263745897
175.697,278.241484017
175.712,278.219162873
175.727,278.196782321
175.742,278.174342216
175.757,278.15184241
175.772,278.129282758
175.787,278.106663109
175.802,278.083983313
175.817,278.061243221
175.832,278.038442679
175.847,278.015581533
175.862,277.99265963
175.877,277.969676813
175.892,277.946632925
175.907,277.923527807
175.922,277.900361302
175.937,277.877133247
175.952,277.85384348
175.967,277.83049184
175.982,277.80707816
175.997,277.783602276
176.012,277.760064021
176.027,277.736463226
176.042,277.712799723
176.057,277.68907334
176.072,277.665283906
176.087,277.641431247
176.102,277.61751519
176.117,277.593535558
176.132,277.569492175
176.147,277.545384862
176.162,277.521213441
176.177,277.496977729
176.192,277.472677546
176.207,277.448312707
176.222,277.423883028
176.237,277.399388323
176.252,277.374828405
176.267,277.350203085
176.282,277.325512173
176.297,277.300755479
176.31,277.279246317
176.312,277.275932809
176.327,277.25104397
176.342,277.226088767
176.357,277.201067002
176.372,277.175978479
176.387,277.150822998
176.402,277.125600358
176.417,277.100310359
176.432,277.074952796
176.447,277.049527465
176.46,277.027437203
176.462,277.024034161
176.477,276.998472675
176.492,276.972842801
176.507,276.947144326
176.522,276.921377042
176.537,276.895540734
176.552,276.869635188
176.567,276.843660191
176.582,276.817615524
176.597,276.791500969
176.612,276.765316308
176.627,276.73906132
176.642,276.712735782
176.657,276.68633947
176.672,276.659872161
176.687,276.633333626
176.702,276.60672364
176.717,276.580041973
176.732,276.553288393
176.747,276.526462671
176.762,276.499564571
176.777,276.47259386
176.792,276.445550302
176.807,276.41843366
176.822,276.391243693
176.837,276.363980163
176.852,276.336642828
176.867,276.309231444
176.882,276.281745768
176.897,276.254185554
176.912,276.226550554
176.927,276.198840519
176.942,276.171055201
176.957,276.143194347
176.972,276.115257704
176.987,276.087245019
177.002,276.059156035
177.017,276.030990496
177.032,276.002748144
177.047,275.974428717
177.062,275.946031955
177.077,275.917557595
177.092,275.889005372
177.107,275.860375022
177.122,275.831666277
177.137,275.802878869
177.152,275.774012527
177.167,275.74506698
177.182,275.716041955
177.197,275.686937178
177.21,275.661648315
177.212,275.657752374
177.227,275.628487264
177.242,275.59914157
177.257,275.569715012
177.272,275.540207309
177.287,275.510618177
177.302,275.480947331
177.31,275.46508937
177.317,275.451194486
177.332,275.421359354
177.347,275.391441645
177.362,275.36144107
177.377,275.331357336
177.392,275.301190149
177.407,275.270939214
177.422,275.240604236
177.437,275.210184914
177.452,275.17968095
177.467,275.149092042
177.482,275.118417888
177.497,275.087658183
177.512,275.056812621
177.527,275.025880894
177.542,274.994862693
177.557,274.963757708
177.572,274.932565626
177.587,274.901286132
177.602,274.869918912
177.617,274.838463648
177.632,274.806920021
177.647,274.775287709
177.66,274.747801055
177.662,274.743566392
177.677,274.711755745
177.692,274.679855442
177.707,274.647865155
177.722,274.615784556
177.737,274.583613312
177.752,274.551351093
177.767,274.518997562
177.782,274.486552385
177.797,274.454015221
177.812,274.421385732
177.827,274.388663575
177.842,274.355848407
177.857,274.322939881
177.872,274.289937651
177.887,274.256841366
177.902,274.223650675
177.917,274.190365224
177.932,274.156984657
177.947,274.123508618
177.96,274.094418545
177.962,274.089936745
177.977,274.056268678
177.992,274.022504051
178.007,273.9886425
178.022,273.954683654
178.037,273.920627144
178.052,273.886472597
178.067,273.852219637
178.082,273.817867887
178.097,273.783416966
178.112,273.748866493
178.127,273.714216082
178.142,273.679465345
178.157,273.644613894
178.172,273.609661335
178.187,273.574607272
178.202,273.539451309
178.217,273.504193045
178.232,273.468832076
178.247,273.433367995
178.262,273.397800394
178.277,273.362128861
178.292,273.326352981
178.307,273.290472334
178.322,273.254486501
178.337,273.218395057
178.352,273.182197573
178.367,273.145893619
178.382,273.109482761
178.397,273.07296456
178.41,273.041228283
178.412,273.036338575
178.427,272.999604362
178.442,272.962761471
178.457,272.92580945
178.472,272.888747843
178.487,272.851576189
178.502,272.814294025
178.517,272.776900882
178.532,272.739396287
178.547,272.701779765
178.562,272.664050833
178.577,272.626209006
178.592,272.588253794
178.607,272.550184702
178.622,272.512001231
178.637,272.473702875
178.652,272.435289126
178.667,272.396759468
178.682,272.358113382
178.697,272.319350343
178.712,272.280469819
178.727,272.241471274
178.742,272.202354166
178.757,272.163117948
178.772,272.123762064
178.787,272.084285955
178.802,272.044689055
178.817,272.004970789
178.832,271.965130579
178.847,271.925167838
178.862,271.885081973
178.877,271.844872383
178.892,271.804538461
178.907,271.764079591
178.922,271.72349515
178.937,271.682784509
178.952,271.641947028
178.967,271.60098206
178.982,271.559888951
178.997,271.518667037
179.012,271.477315644
179.027,271.435834093
179.042,271.394221691
179.057,271.352477738
179.072,271.310601526
179.087,271.268592333
179.102,271.226449431
179.117,271.184172079
179.132,271.141759525
179.147,271.09921101
179.16,271.062225054
179.162,271.056525759
179.177,271.013702989
179.192,270.970741904
179.207,270.927641695
179.222,270.884401544
179.237,270.841020617
179.252,270.79749807
179.267,270.753833044
179.282,270.710024667
179.297,270.666072055
179.312,270.621974307
179.327,270.57773051
179.342,270.533339736
179.357,270.488801041
179.372,270.444113467
179.387,270.399276038
179.402,270.354287765
179.417,270.30914764
179.432,270.26385464
179.447,270.218407724
179.462,270.172805833
179.477,270.127047891
179.492,270.081132802
179.507,270.035059453
179.522,269.988826712
179.537,269.942433425
179.552,269.89587842
179.567,269.849160505
179.582,269.802278464
179.597,269.755231062
179.612,269.708017042
179.627,269.660635125
179.642,269.613084007
179.657,269.565362362
179.672,269.51746884
179.687,269.469402068
179.702,269.421160645
179.717,269.372743148
179.732,269.324148125
179.747,269.2753741
179.762,269.226419568
179.777,269.177282997
179.792,269.127962827
179.807,269.078457469
179.822,269.028765304
179.837,268.978884685
179.852,268.928813931
179.867,268.878551332
179.882,268.828095145
179.897,268.777443597
179.91,268.733386164
179.912,268.726594877
179.927,268.675547144
179.942,268.624298522
179.957,268.572847096
179.972,268.52119092
179.987,268.469328009
180.002,268.417256338
180.017,268.364973849
180.032,268.312478441
180.047,268.259767974
180.062,268.206840268
180.077,268.153693102
180.092,268.100324213
180.107,268.046731294
180.122,267.992911994
180.137,267.938863919
180.152,267.884584628
180.167,267.830071635
180.182,267.775322406
180.197,267.720334359
180.212,267.665104863
180.227,267.609631238
180.242,267.553910751
180.257,267.497940619
180.272,267.441718006
180.287,267.385240022
180.302,267.328503723
180.317,267.271506108
180.332,267.21424412
180.347,267.156714645
180.362,267.098914509
180.377,267.04084048
180.392,266.982489262
180.407,266.923857501
180.422,266.864941776
180.437,266.805738606
180.452,266.746244441
180.467,266.686455667
180.482,266.626368601
180.497,266.565979493
180.512,266.505284522
180.527,266.444279795
180.542,266.382961348
180.557,266.321325144
180.56,266.308959412
180.572,266.25936707
180.587,266.197082938
180.602,266.134468482
180.617,266.071519359
180.632,266.008231143
180.647,265.94459933
180.66,265.889170284
180.662,265.880619334
180.677,265.816286481
180.692,265.751596017
180.707,265.686543099
180.722,265.621122795
180.737,265.555330087
180.752,265.489159863
180.767,265.422606923
180.782,265.355665969
180.797,265.288331612
180.812,265.220598365
180.827,265.152460642
180.842,265.08391276
180.857,265.014948935
180.872,264.945563279
180.887,264.875749803
180.902,264.80550241
180.917,264.734814898
180.932,264.663680957
180.947,264.592094166
180.962,264.520047994
180.977,264.447535796
180.992,264.374550812
181.007,264.301086169
181.022,264.227134873
181.037,264.152689814
181.052,264.077743758
181.067,264.002289352
181.082,263.926319117
181.097,263.849825451
181.112,263.772800622
181.127,263.695236771
181.142,263.617125911
181.157,263.53845992
181.172,263.459230546
181.187,263.379429401
181.202,263.29904796
181.217,263.218077563
181.232,263.13650941
181.247,263.054334559
181.262,262.971543928
181.277,262.888128291
181.292,262.804078279
181.307,262.719384376
181.31,262.702367481
181.322,262.634036919
181.337,262.548026096
181.352,262.461341947
181.367,262.373974362
181.382,262.285913076
181.397,262.197147676
181.412,262.107667592
181.427,262.017462101
181.442,261.926520327
181.457,261.834831234
181.472,261.742383635
181.487,261.649166182
181.502,261.555167373
181.517,261.460375548
181.532,261.364778891
181.547,261.268365427
181.562,261.171123027
181.577,261.073039405
181.592,260.97410212
181.607,260.874298577
181.622,260.773616028
181.637,260.672041574
181.652,260.569562165
181.667,260.466164605
181.682,260.361835551
181.697,260.256561519
181.712,260.150328886
181.727,260.043123893
181.742,259.934932647
181.757,259.825741131
181.772,259.715535206
181.787,259.604300613
181.802,259.492022986
181.817,259.378687855
181.832,259.264280655
181.847,259.148786731
181.862,259.032191353
181.877,258.914479721
181.892,258.795636979
181.907,258.675648226
181.922,258.55449853
181.937,258.43217294
181.952,258.308656504
181.967,258.183934286
181.982,258.057991384
181.997,257.930812947
182.012,257.802384202
182.027,257.672690473
182.042,257.54171721
182.057,257.409450011
182.06,257.382840045
182.072,257.275874659
182.087,257.140977144
182.102,257.004743707
182.117,256.867160869
182.132,256.728215476
182.147,256.587894736
182.162,256.446186269
182.177,256.303078151
182.192,256.158558971
182.207,256.01261788
182.222,255.865244655
182.237,255.71642976
182.252,255.566164412
182.267,255.414440653
182.282,255.261251424
182.297,255.106590647
182.312,254.950453306
182.327,254.792835538
182.342,254.633734727
182.357,254.473149599
182.372,254.311080331
182.387,254.147528653
182.402,253.982497965
182.417,253.815993454
182.432,253.648022213
182.447,253.47859337
182.462,253.307718221
182.477,253.135410359
182.492,252.961685814
182.507,252.786563191
182.522,252.610063817
182.537,252.432211878
182.552,252.253034567
182.567,252.072562224
182.582,251.890828479
182.597,251.707870388
182.612,251.523728565
182.627,251.33844731
182.642,251.152074728
182.657,250.964662833
182.672,250.776267643
182.687,250.586949264
182.702,250.396771952
182.717,250.205804153
182.732,250.014118532
182.747,249.821791965
182.762,249.628905517
182.777,249.435544385
182.792,249.241797822
182.807,249.047759024
182.822,248.853525005
182.837,248.659196446
182.852,248.464877537
182.867,248.270675817
182.882,248.076702042
182.897,247.883070089
182.912,247.689896956
182.927,247.497302886
182.942,247.3054117
182.957,247.114351415
182.972,246.924255282
182.987,246.735263391
183.002,246.547525046
183.017,246.361202173
183.032,246.176474074
183.047,245.993543928
183.062,245.812647493
183.077,245.63406453
183.092,245.458133502
183.107,245.285270016
183.122,245.115989328
183.137,244.950932803
183.152,244.790897496
183.167,244.636866871
183.182,244.490038978
183.197,244.351846297
183.212,244.223959143
183.227,244.108262797
183.242,244.006798508
183.257,243.921661717
183.367,243.923676432
183.382,244.008496889
183.397,244.109158817
183.412,244.223572718
183.427,244.349731671
183.442,244.485802259
183.457,244.630173897
183.472,244.781474356
183.487,244.938561568
183.502,245.100501184
183.517,245.26653744
183.532,245.436062558
183.547,245.608587878
183.562,245.783718401
183.577,245.96113134
183.592,246.140558664
183.607,246.321773281
183.622,246.50457834
183.637,246.688799125
183.652,246.874277017
183.667,247.060865108
183.682,247.248425065
183.697,247.436824958
183.712,247.625937808
183.727,247.815640656
183.742,248.005814017
183.757,248.196341602
183.772,248.387110221
183.787,248.578009813
183.802,248.76893354
183.817,248.959777932
183.832,249.150443041
183.847,249.340832599
183.862,249.530854157
183.877,249.720419214
183.892,249.909443313
183.907,250.097846119
183.922,250.285551459
183.937,250.472487352
183.952,250.658585999
183.967,250.843783758
183.982,251.028021097
183.997,251.211242528
184.012,251.393396525
184.027,251.574435424
184.042,251.754315319
184.057,251.932995941
184.072,252.110440532
184.087,252.286615714
184.102,252.461491351
184.117,252.63504041
184.132,252.807238817
184.147,252.97806532
184.162,253.147501343
184.177,253.315530847
184.192,253.482140192
184.207,253.647318003
184.222,253.811055034
184.237,253.973344046
184.252,254.134179674
184.267,254.293558313
184.282,254.451478003
184.297,254.607938312
184.312,254.762940237
184.327,254.916486094
184.342,255.068579432
184.357,255.21922493
184.372,255.368428318
184.387,255.51619629
184.402,255.662536426
184.417,255.80745712
184.432,255.950967509
184.447,256.093077406
184.462,256.233797243
184.477,256.373138007
184.492,256.511111189
184.507,256.647728734
184.522,256.783002993
184.537,256.916946674
184.552,257.049572809
184.56,257.119772603
184.567,257.180894707
184.582,257.310925923
184.597,257.439680223
184.612,257.567171553
184.627,257.693414009
184.642,257.818421813
184.657,257.942209284
184.672,258.064790819
184.687,258.18618087
184.702,258.306393923
184.717,258.425444483
184.732,258.543347055
184.747,258.660116129
184.762,258.775766167
184.777,258.890311589
184.792,259.00376676
184.807,259.116145983
184.822,259.227463485
184.837,259.33773341
184.852,259.44696981
184.867,259.55518664
184.882,259.662397745
184.897,259.768616863
184.912,259.873857611
184.927,259.978133484
184.942,260.081457852
184.957,260.183843952
184.972,260.28530489
184.987,260.38585363
185.002,260.485502999
185.017,260.584265683
185.032,260.682154219
185.047,260.779181002
185.062,260.875358279
185.077,260.970698145
185.092,261.065212549
185.107,261.158913289
185.122,261.251812011
185.137,261.343920209
185.152,261.43524923
185.167,261.525810264
185.182,261.615614354
185.197,261.704672391
185.212,261.792995114
185.227,261.880593115
185.242,261.967476835
185.257,262.053656565
185.272,262.139142452
185.287,262.223944493
185.302,262.30807254
185.31,262.352668601
185.317,262.391536301
185.332,262.474345339
185.347,262.556509075
185.362,262.638036789
185.377,262.718937621
185.392,262.799220571
185.407,262.878894501
185.422,262.957968139
185.437,263.036450077
185.452,263.114348772
185.467,263.191672551
185.482,263.268429611
185.497,263.344628017
185.512,263.420275708
185.527,263.495380497
185.542,263.569950073
185.557,263.643991999
185.572,263.71751372
185.587,263.790522558
185.602,263.863025717
185.617,263.935030284
185.632,264.006543232
185.647,264.077571416
185.662,264.148121582
185.677,264.218200364
185.692,264.287814284
185.707,264.35696976
185.722,264.425673101
185.737,264.493930509
185.752,264.561748086
185.767,264.62913183
185.782,264.696087638
185.797,264.762621308
185.812,264.828738541
185.827,264.894444941
185.842,264.959746015
185.857,265.02464718
185.872,265.089153759
185.887,265.153270983
185.902,265.217003995
185.917,265.28035785
185.932,265.343337516
185.947,265.405947876
185.96,265.459915171
185.962,265.468193728
185.977,265.530079786
185.992,265.591610687
186.007,265.652790983
186.022,265.713625149
186.037,265.774117583
186.052,265.834272606
186.06,265.86621879
186.067,265.894094463
186.082,265.953587325
186.097,266.012755292
186.112,266.071602391
186.127,266.130132578
186.142,266.188349741
186.157,266.246257699
186.172,266.303860203
186.187,266.361160942
186.202,266.418163534
186.217,266.474871539
186.232,266.531288452
186.247,266.587417705
186.262,266.643262671
186.277,266.698826664
186.292,266.754112938
186.307,266.809124691
186.322,266.863865062
186.337,266.918337138
186.352,266.972543949
186.367,267.026488471
186.382,267.080173629
186.397,267.133602294
186.412,267.186777289
186.427,267.239701384
186.442,267.292377303
186.457,267.344807718
186.472,267.396995258
186.487,267.448942502
186.502,267.500651984
186.517,267.552126194
186.532,267.603367579
186.547,267.654378539
186.562,267.705161435
186.577,267.755718585
186.592,267.806052267
186.607,267.856164716
186.622,267.906058131
186.637,267.955734671
186.652,268.005196456
186.667,268.05444557
186.682,268.103484059
186.697,268.152313935
186.71,268.194465943
186.712,268.200937173
186.727,268.249355714
186.742,268.297571466
186.757,268.345586302
186.772,268.393402063
186.787,268.441020559
186.802,268.488443567
186.817,268.535672835
186.832,268.582710078
186.847,268.629556984
186.862,268.67621521
186.877,268.722686385
186.892,268.768972112
186.907,268.815073964
186.922,268.860993488
186.937,268.906732204
186.952,268.952291608
186.967,268.997673168
186.982,269.04287833
186.997,269.087908513
187.012,269.132765114
187.027,269.177449505
187.042,269.221963037
187.057,269.266307037
187.072,269.31048281
187.087,269.354491641
187.102,269.398334791
187.117,269.442013504
187.132,269.485529
187.147,269.528882481
187.162,269.57207513
187.177,269.615108109
187.192,269.657982563
187.207,269.700699618
187.222,269.743260382
187.237,269.785665946
187.252,269.827917383
187.267,269.870015749
187.282,269.911962084
187.297,269.953757411
187.312,269.99540274
187.327,270.036899061
187.342,270.078247352
187.357,270.119448575
187.372,270.160503677
187.387,270.201413593
187.402,270.242179241
187.417,270.282801528
187.432,270.323281344
187.447,270.36361957
187.46,270.398465505
187.462,270.403817072
187.477,270.443874703
187.492,270.483793305
187.507,270.523573708
187.522,270.563216728
187.537,270.602723173
187.552,270.642093836
187.567,270.681329501
187.582,270.720430942
187.597,270.75939892
187.612,270.798234187
187.627,270.836937486
187.642,270.875509547
187.657,270.913951094
187.672,270.952262838
187.687,270.990445482
187.702,271.028499722
187.717,271.066426241
187.732,271.104225717
187.747,271.141898817
187.762,271.179446201
187.777,271.21686852
187.792,271.254166418
187.807,271.29134053
187.822,271.328391483
187.837,271.365319899
187.852,271.402126389
187.867,271.43881156
187.882,271.475376011
187.897,271.511820333
187.912,271.548145111
187.927,271.584350924
187.942,271.620438343
187.957,271.656407935
187.972,271.692260258
187.987,271.727995866
188.002,271.763615307
188.017,271.799119121
188.032,271.834507845
188.047,271.869782009
188.062,271.904942138
188.077,271.939988752
188.092,271.974922364
188.107,272.009743484
188.122,272.044452616
188.137,272.079050259
188.152,272.113536908
188.167,272.147913051
188.182,272.182179174
188.197,272.216335758
188.21,272.245849894
188.212,272.250383279
188.227,272.284322207
188.242,272.318153011
188.257,272.351876154
188.272,272.385492094
188.287,272.419001288
188.302,272.452404186
188.317,272.485701235
188.332,272.518892879
188.347,272.551979558
188.362,272.584961708
188.377,272.617839762
188.392,272.650614148
188.407,272.683285292
188.422,272.715853617
188.437,272.748319542
188.452,272.780683481
188.467,272.812945849
188.482,272.845107053
188.497,272.877167501
188.512,272.909127596
188.527,272.940987738
188.542,272.972748325
188.557,273.004409751
188.572,273.035972408
188.587,273.067436685
188.602,273.098802968
188.617,273.130071641
188.632,273.161243085
188.647,273.192317678
188.66,273.219170942
188.662,273.223295797
188.677,273.254177815
188.692,273.284964102
188.707,273.315655027
188.722,273.346250956
