# 48698 WSSS Singapore Observations at 12Z 06 Apr 2019
Frequency [GHz],TB
175.31,279.89989361
175.322,279.87933735
175.337,279.853580129
175.352,279.827753965
175.367,279.801858656
175.382,279.775893996
175.397,279.749859833
175.412,279.723755947
175.427,279.697582149
175.442,279.671338231
175.457,279.645024016
175.472,279.618639303
175.487,279.592183865
175.502,279.565657524
175.517,279.539060094
175.532,279.512391305
175.547,279.485651026
175.562,279.458838998
175.577,279.431955041
175.592,279.404998936
175.607,279.377970457
175.622,279.350869408
175.637,279.323695576
175.652,279.296448727
175.667,279.269128645
175.682,279.241735141
175.697,279.214267954
175.712,279.186726892
175.727,279.15911172
175.742,279.131422201
175.757,279.103658135
175.772,279.075819257
175.787,279.047905379
175.802,279.019916242
175.817,278.991851615
175.832,278.963711263
175.847,278.935494958
175.862,278.907202447
175.877,278.878833501
175.892,278.850387885
175.907,278.821865345
175.922,278.793265649
175.937,278.764588537
175.952,278.735833751
175.967,278.707001097
175.982,278.678090237
175.997,278.649101011
176.012,278.620033088
176.027,278.590886241
176.042,278.561660222
176.057,278.532354751
176.072,278.502969596
176.087,278.473504479
176.102,278.443959098
176.117,278.414333249
176.132,278.384626625
176.147,278.354838964
176.162,278.324970014
176.177,278.295019459
176.192,278.26498705
176.207,278.234872511
176.222,278.20467557
176.237,278.174395939
176.252,278.144033306
176.267,278.113587406
176.282,278.083057985
176.297,278.052444717
176.31,278.025845149
176.312,278.021747317
176.327,277.990965496
176.342,277.960098968
176.357,277.92914742
176.372,277.898110586
176.387,277.866988117
176.402,277.835779765
176.417,277.804485186
176.432,277.773104093
176.447,277.741636181
176.46,277.714293495
176.462,277.710081125
176.477,277.678438605
176.492,277.646708357
176.507,277.614890004
176.522,277.582983275
176.537,277.550987838
176.552,277.51890335
176.567,277.486729502
176.582,277.454465998
176.597,277.422112448
176.612,277.38966858
176.627,277.35713405
176.642,277.32450846
176.657,277.291791581
176.672,277.25898302
176.687,277.226082392
176.702,277.193089442
176.717,277.160003781
176.732,277.126825031
176.747,277.093552896
176.762,277.060187011
176.777,277.026726994
176.792,276.99317253
176.807,276.959523246
176.822,276.925778771
176.837,276.891938763
176.852,276.858002837
176.867,276.82397061
176.882,276.789841792
176.897,276.755615889
176.912,276.721292641
176.927,276.686871621
176.942,276.652352448
176.957,276.617734751
176.972,276.583018131
176.987,276.548202238
177.002,276.513286634
177.017,276.478270993
177.032,276.443154852
177.047,276.407937856
177.062,276.3726196
177.077,276.337199676
177.092,276.301677708
177.107,276.266053237
177.122,276.23032591
177.137,276.194495294
177.152,276.158560978
177.167,276.122522527
177.182,276.086379552
177.197,276.050131629
177.21,276.018631538
177.212,276.01377831
177.227,275.977319183
177.242,275.94075382
177.257,275.90408178
177.272,275.867302651
177.287,275.830415951
177.302,275.793421331
177.31,275.773646532
177.317,275.756318242
177.332,275.719106277
177.347,275.681784985
177.362,275.644353918
177.377,275.606812657
177.392,275.569160666
177.407,275.531397548
177.422,275.493522822
177.437,275.455536007
177.452,275.417436669
177.467,275.379224289
177.482,275.340898406
177.497,275.302458544
177.512,275.263904239
177.527,275.225234979
177.542,275.186450271
177.557,275.147549646
177.572,275.108532589
177.587,275.069398601
177.602,275.030147212
177.617,274.990777863
177.632,274.951290088
177.647,274.91168337
177.66,274.877260901
177.662,274.871957155
177.677,274.83211096
177.692,274.792144242
177.707,274.752056462
177.722,274.711847138
177.737,274.671515652
177.752,274.631061564
177.767,274.590484266
177.782,274.549783222
177.797,274.508957885
177.812,274.468007699
177.827,274.426932102
177.842,274.38573055
177.857,274.344402436
177.872,274.302947215
177.887,274.261364349
177.902,274.219653184
177.917,274.177813145
177.932,274.135843697
177.947,274.093744214
177.96,274.057152348
177.962,274.051514095
177.977,274.00915274
177.992,273.966659541
178.007,273.9240339
178.022,273.881275184
178.037,273.838382773
178.052,273.795356009
178.067,273.752194327
178.082,273.708897061
178.097,273.665463532
178.112,273.621893155
178.127,273.578185196
178.142,273.534339088
178.157,273.490354087
178.172,273.446229613
178.187,273.401964885
178.202,273.357559297
178.217,273.313012144
178.232,273.268322712
178.247,273.223490318
178.262,273.178514291
178.277,273.133393857
178.292,273.088128343
178.307,273.042717034
178.322,272.997159133
178.337,272.951453967
178.352,272.905600792
178.367,272.859598824
178.382,272.813447321
178.397,272.767145527
178.41,272.726895152
178.412,272.720692662
178.427,272.674087959
178.442,272.62733061
178.457,272.580419836
178.472,272.533354831
178.487,272.48613483
178.502,272.438758947
178.517,272.391226385
178.532,272.34353634
178.547,272.295687958
178.562,272.247680347
178.577,272.199512707
178.592,272.151184175
178.607,272.102693809
178.622,272.054040801
178.637,272.005224239
178.652,271.956243231
178.667,271.907096816
178.682,271.857784135
178.697,271.808304258
178.712,271.758656152
178.727,271.708839018
178.742,271.658851781
178.757,271.608693555
178.772,271.558363263
178.787,271.507860038
178.802,271.457182788
178.817,271.406330535
178.832,271.355302256
178.847,271.30409694
178.862,271.252713522
178.877,271.201150955
178.892,271.149408174
178.907,271.097484095
178.922,271.045377621
178.937,270.993087689
178.952,270.940613151
178.967,270.887952873
178.982,270.83510576
178.997,270.782070627
179.012,270.728846311
179.027,270.675431646
179.042,270.621825466
179.057,270.568026516
179.072,270.514033611
179.087,270.459845511
179.102,270.405460972
179.117,270.350878721
179.132,270.296097524
179.147,270.241116057
179.16,270.193302446
179.162,270.185933033
179.177,270.13054711
179.192,270.074956961
179.207,270.019161268
179.222,269.963158643
179.237,269.906947708
179.252,269.85052707
179.267,269.793895309
179.282,269.737051028
179.297,269.679992717
179.312,269.622718955
179.327,269.565228291
179.342,269.507519168
179.357,269.449590136
179.372,269.391439595
179.387,269.333066036
179.402,269.274467937
179.417,269.215643611
179.432,269.156591514
179.447,269.097310031
179.462,269.037797516
179.477,268.978052291
179.492,268.918072682
179.507,268.857857008
179.522,268.79740353
179.537,268.736710521
179.552,268.675776237
179.567,268.614598894
179.582,268.553176692
179.597,268.491507794
179.612,268.429590408
179.627,268.367422638
179.642,268.305002597
179.657,268.242328418
179.672,268.17939818
179.687,268.116209898
179.702,268.052761651
179.717,267.989051445
179.732,267.92507725
179.747,267.860837063
179.762,267.79632883
179.777,267.731550448
179.792,267.666499857
179.807,267.601174925
179.822,267.535573483
179.837,267.469693433
179.852,267.403532529
179.867,267.337088576
179.882,267.270359378
179.897,267.20334264
179.91,267.14502714
179.912,267.136036111
179.927,267.068437462
179.942,267.000544386
179.957,266.932354546
179.972,266.863865567
179.987,266.795075033
180.002,266.725980562
180.017,266.65657968
180.032,266.586869957
180.047,266.516848879
180.062,266.446513962
180.077,266.375862653
180.092,266.304892397
180.107,266.233600623
180.122,266.161984738
180.137,266.090042098
180.152,266.017770044
180.167,265.945165929
180.182,265.872227038
180.197,265.798950678
180.212,265.725334056
180.227,265.651374489
180.242,265.577069112
180.257,265.50241519
180.272,265.427409818
180.287,265.35205019
180.302,265.276333416
180.317,265.200256601
180.332,265.123816841
180.347,265.047011156
180.362,264.96983663
180.377,264.892290278
180.392,264.81436906
180.407,264.736069957
180.422,264.657389958
180.437,264.578325971
180.452,264.498874904
180.467,264.419033672
180.482,264.338799163
180.497,264.258168196
180.512,264.177137627
180.527,264.095704284
180.542,264.013864937
180.557,263.931616392
180.56,263.915117292
180.572,263.848955402
180.587,263.765878731
180.602,263.682383081
180.617,263.598465186
180.632,263.514121732
180.647,263.429349365
180.66,263.355530513
180.662,263.344144797
180.677,263.258504655
180.692,263.172425582
180.707,263.085904188
180.722,262.998937048
180.737,262.911520781
180.752,262.823651937
180.767,262.735327117
180.782,262.646542795
180.797,262.557295568
180.812,262.467581917
180.827,262.377398374
180.842,262.286741396
180.857,262.195607488
180.872,262.103993123
180.887,262.01189475
180.902,261.919308834
180.917,261.826231778
180.932,261.732660024
180.947,261.638590001
180.962,261.544018081
180.977,261.448940675
180.992,261.353354147
181.007,261.257254911
181.022,261.160639291
181.037,261.063503663
181.052,260.965844344
181.067,260.867657696
181.082,260.768940036
181.097,260.669687657
181.112,260.569896908
181.127,260.469564052
181.142,260.368685385
181.157,260.267257198
181.172,260.165275721
181.187,260.062737227
181.202,259.959637984
181.217,259.855974217
181.232,259.751742138
181.247,259.646937971
181.262,259.541557958
181.277,259.435598218
181.292,259.329055001
181.307,259.221924415
181.31,259.20042748
181.322,259.114202663
181.337,259.005885869
181.352,258.896970162
181.367,258.787451662
181.382,258.677326473
181.397,258.566590663
181.412,258.455240304
181.427,258.343271473
181.442,258.230680145
181.457,258.117462397
181.472,258.003614201
181.487,257.889131523
181.502,257.774010317
181.517,257.658246547
181.532,257.541836084
181.547,257.424774819
181.562,257.307058644
181.577,257.188683361
181.592,257.069644779
181.607,256.949938696
181.622,256.829560855
181.637,256.708507003
181.652,256.586772779
181.667,256.464353893
181.682,256.341245953
181.697,256.21744455
181.712,256.092945265
181.727,255.967743608
181.742,255.84183508
181.757,255.715215152
181.772,255.587879209
181.787,255.459822696
181.802,255.331040899
181.817,255.201529169
181.832,255.071282797
181.847,254.940297006
181.862,254.808567036
181.877,254.676088042
181.892,254.542855183
181.907,254.408863628
181.922,254.274108413
181.937,254.138584625
181.952,254.002287349
181.967,253.865211642
181.982,253.727352478
181.997,253.588704954
182.012,253.449264038
182.027,253.309024799
182.042,253.167982282
182.057,253.026131563
182.06,252.997663988
182.072,252.883467726
182.087,252.739985988
182.102,252.595681483
182.117,252.450549566
182.132,252.304585555
182.147,252.157784912
182.162,252.010143227
182.177,251.861656214
182.192,251.712319733
182.207,251.562129856
182.222,251.411082781
182.237,251.25917502
182.252,251.106403319
182.267,250.952764663
182.282,250.798256395
182.297,250.642876221
182.312,250.486622186
182.327,250.329492831
182.342,250.171487113
182.357,250.012604562
182.372,249.85284519
182.387,249.692209727
182.402,249.530699491
182.417,249.368316563
182.432,249.205063806
182.447,249.040944906
182.462,248.875964514
182.477,248.710128198
182.492,248.543442627
182.507,248.375915586
182.522,248.207555997
182.537,248.038374185
182.552,247.868381693
182.567,247.697591618
182.582,247.526018503
182.597,247.353678532
182.612,247.180589529
182.627,247.00677117
182.642,246.832244849
182.657,246.657033924
182.672,246.481163744
182.687,246.304661629
182.702,246.127556958
182.717,245.949881209
182.732,245.771667858
182.747,245.592952446
182.762,245.413772388
182.777,245.234166958
182.792,245.054176888
182.807,244.873844252
182.822,244.69321193
182.837,244.512323037
182.852,244.331220209
182.867,244.149944546
182.882,243.968534317
182.897,243.787023155
182.912,243.605437887
182.927,243.423795533
182.942,243.242099487
182.957,243.060334571
182.972,242.878460517
182.987,242.696403563
183.002,242.514045227
183.017,242.331207809
183.032,242.147634809
183.047,241.962965287
183.062,241.776698882
183.077,241.588148961
183.092,241.396378329
183.107,241.200110671
183.122,240.997607497
183.137,240.786495039
183.152,240.563520091
183.167,240.324204001
183.182,240.062358198
183.197,239.769430919
183.212,239.433724165
183.227,239.039826309
183.242,238.5697853
183.257,238.012004742
183.367,238.146444918
183.382,238.677957738
183.397,239.123001808
183.412,239.496552424
183.427,239.816241156
183.442,240.096516633
183.457,240.348195945
183.472,240.579154731
183.487,240.795089151
183.502,241.000124619
183.517,241.197261194
183.532,241.388689926
183.547,241.576016615
183.562,241.760420198
183.577,241.942765809
183.592,242.123686331
183.607,242.303641722
183.622,242.482962421
183.637,242.661881602
183.652,242.840559198
183.667,243.019100014
183.682,243.197567245
183.697,243.375992984
183.712,243.554386056
183.727,243.732738142
183.742,243.911028376
183.757,244.089226949
183.772,244.267297821
183.787,244.445200922
183.802,244.622893703
183.817,244.800332434
183.832,244.977473063
183.847,245.154272033
183.862,245.330686757
183.877,245.506676021
183.892,245.682200229
183.907,245.857221709
183.922,246.031704707
183.937,246.2056155
183.952,246.378922559
183.967,246.551596313
183.982,246.723609379
183.997,246.894936289
184.012,247.065553632
184.027,247.235439902
184.042,247.404575399
184.057,247.572942233
184.072,247.740524138
184.087,247.907306531
184.102,248.07327629
184.117,248.238421763
184.132,248.402732654
184.147,248.566199952
184.162,248.728815866
184.177,248.890573682
184.192,249.051467778
184.207,249.211493558
184.222,249.370647244
184.237,249.528925981
184.252,249.686327734
184.267,249.842851109
184.282,249.998495464
184.297,250.153260759
184.312,250.307147505
184.327,250.460156768
184.342,250.612290042
184.357,250.763549334
184.372,250.913936988
184.387,251.063455756
184.402,251.212108696
184.417,251.359899112
184.432,251.506830657
184.447,251.652907163
184.462,251.798132681
184.477,251.942511434
184.492,252.086047861
184.507,252.228746468
184.522,252.370611931
184.537,252.511649036
184.552,252.651862619
184.56,252.72630817
184.567,252.791257619
184.582,252.929839018
184.597,253.067611886
184.612,253.20458129
184.627,253.340752324
184.642,253.47613012
184.657,253.610719837
184.672,253.744526564
184.687,253.877555485
184.702,254.00981171
184.717,254.141300347
184.732,254.272026502
184.747,254.401995238
184.762,254.531211606
184.777,254.659680655
184.792,254.787407329
184.807,254.914396611
184.822,255.040653433
184.837,255.166182632
184.852,255.290989135
184.867,255.415077681
184.882,255.538453102
184.897,255.661120089
184.912,255.783083352
184.927,255.904347583
184.942,256.02491735
184.957,256.144797283
184.972,256.263991908
184.987,256.382505739
185.002,256.500343249
185.017,256.617508878
185.032,256.734006999
185.047,256.849842009
185.062,256.965018258
185.077,257.079539995
185.092,257.193411539
185.107,257.306637116
185.122,257.419220917
185.137,257.531167131
185.152,257.642479924
185.167,257.75316341
185.182,257.863221696
185.197,257.972658857
185.212,258.081478884
185.227,258.189685898
185.242,258.297283832
185.257,258.404276681
185.272,258.510668413
185.287,258.616462919
185.302,258.72166417
185.31,258.777530276
185.317,258.826276044
185.332,258.930302399
185.347,259.033747115
185.362,259.136613999
185.377,259.238906909
185.392,259.340629649
185.407,259.441785978
185.422,259.542379669
185.437,259.642414523
185.452,259.741894244
185.467,259.840822554
185.482,259.939203172
185.497,260.037039808
185.512,260.134336123
185.527,260.231095801
185.542,260.327322493
185.557,260.423019839
185.572,260.518191447
185.587,260.612840955
185.602,260.706971957
185.617,260.800588036
185.632,260.893692791
185.647,260.986289743
185.662,261.078382464
185.677,261.169974456
185.692,261.261069297
185.707,261.351670447
185.722,261.441781435
185.737,261.531405699
185.752,261.620546752
185.767,261.709208018
185.782,261.797392963
185.797,261.885105
185.812,261.972347539
185.827,262.059123979
185.842,262.145437716
185.857,262.231292116
185.872,262.316690535
185.887,262.401636325
185.902,262.486132787
185.917,262.570183249
185.932,262.653791029
185.947,262.736959367
185.96,262.808685677
185.962,262.819691559
185.977,262.901990862
185.992,262.983860469
186.007,263.065303647
186.022,263.146323557
186.037,263.226923431
186.052,263.307106426
186.06,263.349701296
186.067,263.386875662
186.082,263.466234279
186.097,263.545185449
186.112,263.62373219
186.127,263.701877648
186.142,263.77962487
186.157,263.856976904
186.172,263.933936781
186.187,264.010507489
186.202,264.086692055
186.217,264.162493421
186.232,264.237914569
186.247,264.312958422
186.262,264.387627887
186.277,264.461925838
186.292,264.535855216
186.307,264.60941886
186.322,264.682619552
186.337,264.755460168
186.352,264.827943487
186.367,264.900072283
186.382,264.971849312
186.397,265.043277325
186.412,265.114359011
186.427,265.185097102
186.442,265.255494235
186.457,265.325553082
186.472,265.395276301
186.487,265.464666462
186.502,265.533726187
186.517,265.602458014
186.532,265.670864518
186.547,265.738948225
186.562,265.806711647
186.577,265.874157234
186.592,265.941287508
186.607,266.00810488
186.622,266.074611775
186.637,266.140810584
186.652,266.206703708
186.667,266.272293477
186.682,266.337582278
186.697,266.402572379
186.71,266.458657307
186.712,266.467266096
186.727,266.531665699
186.742,266.595773436
186.757,266.659591564
186.772,266.723122268
186.787,266.786367745
186.802,266.849330175
186.817,266.912011686
186.832,266.97441442
186.847,267.036540511
186.862,267.098391987
186.877,267.159970959
186.892,267.221279463
186.907,267.282319504
186.922,267.343093125
186.937,267.40360229
186.952,267.463848982
186.967,267.523835095
186.982,267.583562619
186.997,267.64303343
187.012,267.702249401
187.027,267.76121243
187.042,267.819924359
187.057,267.878386997
187.072,267.936602169
187.087,267.994571685
187.102,268.052297288
187.117,268.109780723
187.132,268.167023763
187.147,268.224028102
187.162,268.280795458
187.177,268.337327478
187.192,268.393625856
187.207,268.449692227
187.222,268.505528215
187.237,268.561135442
187.252,268.616515495
187.267,268.67166996
187.282,268.726600364
187.297,268.781308277
187.312,268.83579523
187.327,268.890062713
187.342,268.944112228
187.357,268.997945261
187.372,269.051563263
187.387,269.104967682
187.402,269.158159962
187.417,269.211141492
187.432,269.263913706
187.447,269.316477928
187.46,269.361866469
187.462,269.368835588
187.477,269.420988011
187.492,269.472936548
187.507,269.524682531
187.522,269.576227255
187.537,269.627572021
187.552,269.678718107
187.567,269.729666799
187.582,269.780419325
187.597,269.830976956
187.612,269.881340902
187.627,269.931512384
187.642,269.981492626
187.657,270.031282777
187.672,270.080884046
187.687,270.13029756
187.702,270.179524519
187.717,270.22856604
187.732,270.277423261
187.747,270.326097268
187.762,270.374589221
187.777,270.422900156
187.792,270.471031177
187.807,270.518983356
187.822,270.566757748
187.837,270.614355407
187.852,270.661777367
187.867,270.709024646
187.882,270.756098263
187.897,270.802999239
187.912,270.84972855
187.927,270.896287201
187.942,270.942676148
187.957,270.988896348
187.972,271.034948771
187.987,271.080834381
188.002,271.126554065
188.017,271.172108799
188.032,271.217499472
188.047,271.262727014
188.062,271.307792317
188.077,271.352696251
188.092,271.397439717
188.107,271.442023574
188.122,271.48644872
188.137,271.530715965
188.152,271.574826192
188.167,271.618780242
188.182,271.662578915
188.197,271.706223082
188.21,271.743923654
188.212,271.749713512
188.227,271.793051043
188.242,271.836236464
188.257,271.879270584
188.272,271.922154172
188.287,271.964888012
188.302,272.007472878
188.317,272.049909534
188.332,272.092198738
188.347,272.134341241
188.362,272.17633779
188.377,272.218189129
188.392,272.259895988
188.407,272.301459063
188.422,272.34287909
188.437,272.384156804
188.452,272.425292873
188.467,272.466288023
188.482,272.507142945
188.497,272.5478583
188.512,272.588434813
188.527,272.628873136
188.542,272.669173935
188.557,272.709337881
188.572,272.749365626
188.587,272.789257836
188.602,272.829015149
188.617,272.868638205
188.632,272.908127668
188.647,272.947484126
188.66,272.981486
188.662,272.986708264
188.677,273.025800637
188.692,273.064761918
188.707,273.103592696
188.722,273.142293557
