# 78954 TBPB Grantley Adams Observations at 12Z 06 Apr 2019
Frequency [GHz],TB
175.31,283.543231727
175.322,283.53248658
175.337,283.519020284
175.352,283.505515243
175.367,283.491971444
175.382,283.478388874
175.397,283.464767519
175.412,283.45110736
175.427,283.437408382
175.442,283.423670565
175.457,283.409893889
175.472,283.396078334
175.487,283.382223874
175.502,283.368330487
175.517,283.354398145
175.532,283.340426822
175.547,283.326416489
175.562,283.312367115
175.577,283.298278667
175.592,283.284151112
175.607,283.269984415
175.622,283.255778538
175.637,283.241533443
175.652,283.227249088
175.667,283.212925432
175.682,283.198562429
175.697,283.184160034
175.712,283.1697182
175.727,283.155236876
175.742,283.14071601
175.757,283.126155548
175.772,283.111555436
175.787,283.096915614
175.802,283.082236023
175.817,283.067516602
175.832,283.052757285
175.847,283.037958007
175.862,283.0231187
175.877,283.008239291
175.892,282.99331971
175.907,282.978359879
175.922,282.963359722
175.937,282.948319158
175.952,282.933238105
175.967,282.918116478
175.982,282.90295419
175.997,282.887751151
176.012,282.872507268
176.027,282.857222447
176.042,282.841896589
176.057,282.826529594
176.072,282.811121359
176.087,282.795671779
176.102,282.780180744
176.117,282.764648144
176.132,282.749073864
176.147,282.733457787
176.162,282.717799792
176.177,282.702099757
176.192,282.686357555
176.207,282.670573058
176.222,282.654746133
176.237,282.638876644
176.252,282.622964453
176.267,282.607009419
176.282,282.591011395
176.297,282.574970233
176.31,282.561032883
176.312,282.558885783
176.327,282.542757888
176.342,282.52658639
176.357,282.510371127
176.372,282.494111933
176.387,282.477808639
176.402,282.461461072
176.417,282.445069055
176.432,282.428632409
176.447,282.41215095
176.46,282.397830624
176.462,282.395624489
176.477,282.379052835
176.492,282.362435793
176.507,282.345773163
176.522,282.329064741
176.537,282.312310321
176.552,282.29550969
176.567,282.278662633
176.582,282.26176893
176.597,282.244828357
176.612,282.227840685
176.627,282.210805682
176.642,282.19372311
176.657,282.176592728
176.672,282.159414289
176.687,282.142187544
176.702,282.124912236
176.717,282.107588106
176.732,282.09021489
176.747,282.072792317
176.762,282.055320113
176.777,282.037798001
176.792,282.020225694
176.807,282.002602905
176.822,281.984929339
176.837,281.967204698
176.852,281.949428676
176.867,281.931600965
176.882,281.913721248
176.897,281.895789207
176.912,281.877804516
176.927,281.859766843
176.942,281.841675852
176.957,281.8235312
176.972,281.80533254
176.987,281.787079518
177.002,281.768771775
177.017,281.750408946
177.032,281.731990659
177.047,281.713516537
177.062,281.694986198
177.077,281.676399251
177.092,281.657755301
177.107,281.639053947
177.122,281.62029478
177.137,281.601477386
177.152,281.582601344
177.167,281.563666226
177.182,281.544671598
177.197,281.52561702
177.21,281.509054213
177.212,281.506502043
177.227,281.487326214
177.242,281.46808907
177.257,281.448790144
177.272,281.429428959
177.287,281.410005034
177.302,281.390517878
177.31,281.380098702
177.317,281.370966994
177.332,281.351351877
177.347,281.331672015
177.362,281.311926889
177.377,281.29211597
177.392,281.272238725
177.407,281.252294609
177.422,281.232283072
177.437,281.212203555
177.452,281.192055491
177.467,281.171838304
177.482,281.151551411
177.497,281.13119422
177.512,281.11076613
177.527,281.090266533
177.542,281.06969481
177.557,281.049050336
177.572,281.028332474
177.587,281.00754058
177.602,280.986674001
177.617,280.965732074
177.632,280.944714127
177.647,280.923619478
177.66,280.905274873
177.662,280.902447437
177.677,280.881197303
177.692,280.859868366
177.707,280.838459904
177.722,280.81697119
177.737,280.795401481
177.752,280.773750028
177.767,280.752016069
177.782,280.730198834
177.797,280.708297541
177.812,280.686311397
177.827,280.664239599
177.842,280.642081332
177.857,280.619835771
177.872,280.597502081
177.887,280.575079411
177.902,280.552566904
177.917,280.529963689
177.932,280.507268882
177.947,280.484481588
177.96,280.464657089
177.962,280.461600902
177.977,280.438625903
177.992,280.415555662
178.007,280.392389233
178.022,280.369125662
178.037,280.345763978
178.052,280.322303199
178.067,280.298742331
178.082,280.275080365
178.097,280.251316278
178.112,280.227449036
178.127,280.203477589
178.142,280.179400874
178.157,280.155217814
178.172,280.130927317
178.187,280.106528277
178.202,280.082019573
178.217,280.05740007
178.232,280.032668618
178.247,280.007824051
178.262,279.982865187
178.277,279.957790831
178.292,279.932599769
178.307,279.907290774
178.322,279.881862601
178.337,279.856313988
178.352,279.830643658
178.367,279.804850318
178.382,279.778932655
178.397,279.752889341
178.41,279.730215791
178.412,279.72671903
178.427,279.700420357
178.442,279.673991942
178.457,279.647432385
178.472,279.620740266
178.487,279.593914149
178.502,279.566952579
178.517,279.539854081
178.532,279.512617159
178.547,279.4852403
178.562,279.457721971
178.577,279.430060616
178.592,279.402254662
178.607,279.374302514
178.622,279.346202554
178.637,279.317953147
178.652,279.289552632
178.667,279.260999328
178.682,279.232291533
178.697,279.203427522
178.712,279.174405545
178.727,279.145223831
178.742,279.115880586
178.757,279.086373991
178.772,279.056702203
178.787,279.026863356
178.802,278.996855558
178.817,278.966676892
178.832,278.936325417
178.847,278.905799163
178.862,278.875096137
178.877,278.844214319
178.892,278.81315166
178.907,278.781906087
178.922,278.750475498
178.937,278.71885776
178.952,278.687050716
178.967,278.655052178
178.982,278.622859929
178.997,278.590471722
179.012,278.557885281
179.027,278.525098297
179.042,278.492108434
179.057,278.45891332
179.072,278.425510554
179.087,278.391897703
179.102,278.358072298
179.117,278.32403184
179.132,278.289773794
179.147,278.255295593
179.16,278.225234392
179.162,278.220594632
179.177,278.185668273
179.192,278.150513842
179.207,278.115128627
179.222,278.079509881
179.237,278.043654817
179.252,278.007560613
179.267,277.971224407
179.282,277.934643296
179.297,277.897814341
179.312,277.860734558
179.327,277.823400925
179.342,277.785810378
179.357,277.747959811
179.372,277.709846074
179.387,277.671465972
179.402,277.632816271
179.417,277.593893685
179.432,277.554694889
179.447,277.515216507
179.462,277.475455119
179.477,277.435407255
179.492,277.395069398
179.507,277.35443798
179.522,277.313509386
179.537,277.272279948
179.552,277.230745947
179.567,277.188903612
179.582,277.146749118
179.597,277.104278586
179.612,277.061488085
179.627,277.018373625
179.642,276.97493116
179.657,276.931156589
179.672,276.88704575
179.687,276.842594423
179.702,276.797798329
179.717,276.752653126
179.732,276.707154412
179.747,276.66129772
179.762,276.615078522
179.777,276.568492222
179.792,276.521534161
179.807,276.474199611
179.822,276.426483778
179.837,276.378381798
179.852,276.329888736
179.867,276.280999589
179.882,276.231709279
179.897,276.182012656
179.91,276.138609553
179.912,276.131904497
179.927,276.081379501
179.942,276.030432292
179.957,275.979057416
179.972,275.92724934
179.987,275.875002451
180.002,275.822311054
180.017,275.769169374
180.032,275.715571549
180.047,275.661511634
180.062,275.606983597
180.077,275.551981319
180.092,275.496498592
180.107,275.440529118
180.122,275.384066508
180.137,275.32710428
180.152,275.269635857
180.167,275.211654568
180.182,275.153153644
180.197,275.09412622
180.212,275.034565329
180.227,274.974463904
180.242,274.913814777
180.257,274.852610673
180.272,274.790844216
180.287,274.72850792
180.302,274.665594193
180.317,274.602095331
180.332,274.538003522
180.347,274.47331084
180.362,274.408009245
180.377,274.342090582
180.392,274.275546578
180.407,274.208368842
180.422,274.140548865
180.437,274.072078013
180.452,274.002947532
180.467,273.933148542
180.482,273.862672037
180.497,273.791508883
180.512,273.719649819
180.527,273.647085452
180.542,273.573806255
180.557,273.499802571
180.56,273.484914037
180.572,273.425064606
180.587,273.349582429
180.602,273.273345972
180.617,273.196345026
180.632,273.118569243
180.647,273.040008129
180.66,272.971278369
180.662,272.96065105
180.677,272.880487224
180.692,272.799505724
180.707,272.717695472
180.722,272.635045243
180.737,272.55154366
180.752,272.467179193
180.767,272.381940161
180.782,272.295814724
180.797,272.208790889
180.812,272.120856506
180.827,272.031999263
180.842,271.942206692
180.857,271.851466161
180.872,271.75976488
180.887,271.667089892
180.902,271.573428078
180.917,271.478766156
180.932,271.383090674
180.947,271.286388018
180.962,271.188644403
180.977,271.089845878
180.992,270.989978324
181.007,270.889027452
181.022,270.786978801
181.037,270.683817745
181.052,270.579529482
181.067,270.474099044
181.082,270.367511288
181.097,270.259750903
181.112,270.150802405
181.127,270.040650141
181.142,269.929278286
181.157,269.816670843
181.172,269.702811648
181.187,269.587684365
181.202,269.471272491
181.217,269.353559352
181.232,269.23452811
181.247,269.114161757
181.262,268.992443123
181.277,268.86935487
181.292,268.744879502
181.307,268.618999358
181.31,268.593653191
181.322,268.491696619
181.337,268.362953307
181.352,268.232751291
181.367,268.101072282
181.382,267.967897842
181.397,267.833209385
181.412,267.696988176
181.427,267.559215336
181.442,267.419871848
181.457,267.278938555
181.472,267.136396165
181.487,266.992225255
181.502,266.846406276
181.517,266.698919552
181.532,266.549745288
181.547,266.398863575
181.562,266.246254389
181.577,266.0918976
181.592,265.935772976
181.607,265.777860184
181.622,265.6181388
181.637,265.456588309
181.652,265.293188117
181.667,265.127917546
181.682,264.960755849
181.697,264.791682211
181.712,264.620675754
181.727,264.447715545
181.742,264.272780598
181.757,264.095849884
181.772,263.916902335
181.787,263.735916847
181.802,263.552872291
181.817,263.367747514
181.832,263.180521345
181.847,262.991172604
181.862,262.799680102
181.877,262.606022651
181.892,262.410179066
181.907,262.212128169
181.922,262.011848794
181.937,261.809319791
181.952,261.604520028
181.967,261.397428397
181.982,261.188023809
181.997,260.976285202
182.012,260.76219154
182.027,260.545721808
182.042,260.326855016
182.057,260.105570193
182.06,260.061021221
182.072,259.881846385
182.087,259.655662644
182.102,259.426998029
182.117,259.19583159
182.132,258.962142358
182.147,258.725909334
182.162,258.487111471
182.177,258.245727652
182.192,258.001736672
182.207,257.75511721
182.222,257.505847796
182.237,257.25390678
182.252,256.999272291
182.267,256.741922187
182.282,256.48183401
182.297,256.218984917
182.312,255.95335162
182.327,255.684910306
182.342,255.413636544
182.357,255.139505194
182.372,254.862490286
182.387,254.582564896
182.402,254.299700995
182.417,254.013869288
182.432,253.725039021
182.447,253.433177771
182.462,253.138251198
182.477,252.840222767
182.492,252.539053436
182.507,252.234701292
182.522,251.927121141
182.537,251.61626404
182.552,251.302076758
182.567,250.984501165
182.582,250.66347353
182.597,250.338923717
182.612,250.010774263
182.627,249.678939322
182.642,249.343323452
182.657,249.00382022
182.672,248.660310597
182.687,248.312661116
182.702,247.96072175
182.717,247.604323463
182.732,247.243275393
182.747,246.877361609
182.762,246.506337357
182.777,246.129924753
182.792,245.747807795
182.807,245.359626632
182.822,244.964970949
182.837,244.563372363
182.852,244.154295676
182.867,243.737128845
182.882,243.311171507
182.897,242.875621895
182.912,242.429562001
182.927,241.971940869
182.942,241.501555942
182.957,241.017032541
182.972,240.516801695
182.987,239.99907688
183.002,239.461830698
183.017,238.902773287
183.032,238.319335427
183.047,237.708661072
183.062,237.067616714
183.077,236.392828972
183.092,235.680767608
183.107,234.927899681
183.122,234.130952497
183.137,233.287339536
183.152,232.395825209
183.167,231.457530454
183.182,230.47740773
183.197,229.466327092
183.212,228.443876553
183.227,227.441783822
183.242,226.507217185
183.257,225.703350776
183.367,225.872339009
183.382,226.70887464
183.397,227.658416374
183.412,228.661775276
183.427,229.676088093
183.442,230.673140618
183.457,231.635912893
183.472,232.555296752
183.487,233.427490023
183.502,234.252085202
183.517,235.030731532
183.532,235.766230047
183.547,236.461939821
183.562,237.1214007
183.577,237.748102941
183.592,238.345354415
183.607,238.916211254
183.622,239.463448779
183.637,239.989557227
183.652,240.496752095
183.667,240.986992481
183.682,241.462003235
183.697,241.9232983
183.712,242.372203679
183.727,242.809879146
183.742,243.237338234
183.757,243.655466332
183.772,244.065036858
183.787,244.466725591
183.802,244.861123291
183.817,245.248746762
183.832,245.630048509
183.847,246.005425154
183.862,246.375224763
183.877,246.739753195
183.892,247.099279628
183.907,247.454041344
183.922,247.804247881
183.937,248.150084632
183.952,248.49171597
183.967,248.829287959
183.982,249.162930701
183.997,249.492760381
184.012,249.818881037
184.027,250.141386107
184.042,250.460359765
184.057,250.775878089
184.072,251.088010079
184.087,251.396818541
184.102,251.70236086
184.117,252.004689677
184.132,252.303853476
184.147,252.599897101
184.162,252.892862206
184.177,253.18278765
184.192,253.469709848
184.207,253.753663067
184.222,254.034679702
184.237,254.312790504
184.252,254.588024788
184.267,254.860410618
184.282,255.12997496
184.297,255.39674383
184.312,255.660742415
184.327,255.921995181
184.342,256.180525972
184.357,256.436358092
184.372,256.689514383
184.387,256.940017289
184.402,257.187888914
184.417,257.433151073
184.432,257.675825339
184.447,257.915933079
184.462,258.153495487
184.477,258.38853362
184.492,258.621068417
184.507,258.851120727
184.522,259.078711323
184.537,259.303860923
184.552,259.526590199
184.56,259.644396632
184.567,259.746919795
184.582,259.964870331
184.597,260.180462413
184.612,260.393716639
184.627,260.604653604
184.642,260.813293905
184.657,261.019658139
184.672,261.223766908
184.687,261.425640819
184.702,261.625300482
184.717,261.822766511
184.732,262.018059518
184.747,262.211200118
184.762,262.402208918
184.777,262.591106521
184.792,262.777913516
184.807,262.962650479
184.822,263.145337967
184.837,263.325996512
184.852,263.504646622
184.867,263.681308768
184.882,263.856003386
184.897,264.02875087
184.912,264.199571566
184.927,264.368485769
184.942,264.535513716
184.957,264.700675582
184.972,264.863991477
184.987,265.025481439
185.002,265.185165428
185.017,265.343063325
185.032,265.499194925
185.047,265.653579931
185.062,265.806237956
185.077,265.957188509
185.092,266.106451001
185.107,266.254044734
185.122,266.399988899
185.137,266.544302573
185.152,266.687004716
185.167,266.828114167
185.182,266.967649637
185.197,267.105629714
185.212,267.242072852
185.227,267.376997371
185.242,267.510421458
185.257,267.642363157
185.272,267.772840373
185.287,267.901870867
185.302,268.029472255
185.31,268.09694802
185.317,268.155662004
185.332,268.280457432
185.347,268.403875705
185.362,268.525933838
185.377,268.646648689
185.392,268.766036962
185.407,268.884115205
185.422,269.000899806
185.437,269.116406995
185.452,269.230652842
185.467,269.343653258
185.482,269.45542399
185.497,269.565980626
185.512,269.67533859
185.527,269.783513146
185.542,269.890519392
185.557,269.996372265
185.572,270.101086541
185.587,270.20467683
185.602,270.307157581
185.617,270.40854308
185.632,270.508847451
185.647,270.608084656
185.662,270.706268497
185.677,270.803412612
185.692,270.899530481
185.707,270.994635423
185.722,271.088740599
185.737,271.181859011
185.752,271.274003502
185.767,271.36518676
185.782,271.455421316
185.797,271.544719547
185.812,271.633093674
185.827,271.720555767
185.842,271.807117742
185.857,271.892791366
185.872,271.977588253
185.887,272.061519873
185.902,272.144597543
185.917,272.226832437
185.932,272.308235583
185.947,272.388817864
185.96,272.458000159
185.962,272.468590023
185.977,272.547562658
185.992,272.625746229
186.007,272.703151057
186.022,272.779787325
186.037,272.855665081
186.052,272.930794236
186.06,272.970560407
186.067,273.00518457
186.082,273.078845729
186.097,273.15178723
186.112,273.224018459
186.127,273.295548676
186.142,273.366387013
186.157,273.436542478
186.172,273.506023955
186.187,273.574840206
186.202,273.642999871
186.217,273.710511472
186.232,273.777383412
186.247,273.84362398
186.262,273.909241346
186.277,273.97424357
186.292,274.038638595
186.307,274.102434259
186.322,274.165638285
186.337,274.228258291
186.352,274.290301788
186.367,274.351776181
186.382,274.41268877
186.397,274.473046754
186.412,274.53285723
186.427,274.592127196
186.442,274.650863548
186.457,274.709073089
186.472,274.766762524
186.487,274.823938463
186.502,274.880607423
186.517,274.936775828
186.532,274.992450014
186.547,275.047636224
186.562,275.102340614
186.577,275.156569253
186.592,275.210328125
186.607,275.263623128
186.622,275.316460077
186.637,275.368844704
186.652,275.420782661
186.667,275.47227952
186.682,275.523340773
186.697,275.573971835
186.71,275.617508242
186.712,275.624178046
186.727,275.673964668
186.742,275.723336891
186.757,275.772299829
186.772,275.820858527
186.787,275.869017957
186.802,275.91678302
186.817,275.964158551
186.832,276.011149314
186.847,276.057760007
186.862,276.103995264
186.877,276.14985965
186.892,276.195357669
186.907,276.240493762
186.922,276.285272305
186.937,276.329697616
186.952,276.37377395
186.967,276.417505504
186.982,276.460896417
186.997,276.503950769
187.012,276.546672584
187.027,276.58906583
187.042,276.631134419
187.057,276.67288221
187.072,276.714313008
187.087,276.755430565
187.102,276.796238581
187.117,276.836740707
187.132,276.87694054
187.147,276.916841631
187.162,276.95644748
187.177,276.995761539
187.192,277.034787215
187.207,277.073527865
187.222,277.111986802
187.237,277.150167293
187.252,277.188072562
187.267,277.225705787
187.282,277.263070103
187.297,277.300168605
187.312,277.337004343
187.327,277.373580326
187.342,277.409899525
187.357,277.445964867
187.372,277.481779242
187.387,277.517345501
187.402,277.552666456
187.417,277.587744881
187.432,277.622583514
187.447,277.657185055
187.46,277.686983337
187.462,277.691552169
187.477,277.725687485
187.492,277.759593596
187.507,277.793273062
187.522,277.826728408
187.537,277.859962126
187.552,277.892976675
187.567,277.925774481
187.582,277.958357938
187.597,277.990729409
187.612,278.022891225
187.627,278.054845688
187.642,278.086595068
187.657,278.118141605
187.672,278.149487511
187.687,278.180634969
187.702,278.211586132
187.717,278.242343127
187.732,278.272908052
187.747,278.303282978
187.762,278.333469949
187.777,278.363470983
187.792,278.39328807
187.807,278.422923177
187.822,278.452378244
187.837,278.481655186
187.852,278.510755893
187.867,278.539682233
187.882,278.568436047
187.897,278.597019154
187.912,278.625433349
187.927,278.653680404
187.942,278.681762071
187.957,278.709680074
187.972,278.737436121
187.987,278.765031895
188.002,278.792469057
188.017,278.819749249
188.032,278.846874092
188.047,278.873845184
188.062,278.900664106
188.077,278.927332417
188.092,278.953851656
188.107,278.980223344
188.122,279.006448983
188.137,279.032530054
188.152,279.058468021
188.167,279.084264329
188.182,279.109920407
188.197,279.135437662
188.21,279.1574414
188.212,279.160817486
188.227,279.186061253
188.242,279.211170321
188.257,279.23614603
188.272,279.260989702
188.287,279.285702644
188.302,279.310286148
188.317,279.334741487
188.332,279.35906992
188.347,279.38327269
188.362,279.407351024
188.377,279.431306135
188.392,279.455139221
188.407,279.478851463
188.422,279.502444029
188.437,279.525918073
188.452,279.549274733
188.467,279.572515135
188.482,279.595640391
188.497,279.618651596
188.512,279.641549836
188.527,279.664336181
188.542,279.687011688
188.557,279.709577402
188.572,279.732034353
188.587,279.754383562
188.602,279.776626035
188.617,279.798762764
188.632,279.820794733
188.647,279.842722911
188.66,279.861644117
188.662,279.864548255
188.677,279.886271713
188.692,279.907894218
188.707,279.929416694
188.722,279.950840052
188.737,279.972165194
