# 48698 WSSS Singapore Observations at 12Z 19 Jun 2019
Frequency [GHz],TB
175.31,271.241967143
175.322,271.217943767
175.337,271.187852254
175.352,271.157691347
175.367,271.127460867
175.382,271.097160653
175.397,271.066790516
175.412,271.036350283
175.427,271.005839777
175.442,270.975258811
175.457,270.944607207
175.472,270.913884802
175.487,270.88309139
175.502,270.852226801
175.517,270.821290851
175.532,270.790283365
175.547,270.759204145
175.562,270.728053015
175.577,270.696829794
175.592,270.66553429
175.607,270.634166317
175.622,270.602725697
175.637,270.571212226
175.652,270.539625725
175.667,270.507966006
175.682,270.476232878
175.697,270.444426155
175.712,270.412545639
175.727,270.380591137
175.742,270.348562467
175.757,270.316459426
175.772,270.284281827
175.787,270.252029468
175.802,270.219702159
175.817,270.187299706
175.832,270.154821901
175.847,270.122268553
175.862,270.089639465
175.877,270.056934439
175.892,270.02415328
175.907,269.991295774
175.922,269.958361724
175.937,269.925350934
175.952,269.892263193
175.967,269.859098301
175.982,269.825856048
175.997,269.792536241
176.012,269.75913866
176.027,269.725663106
176.042,269.69210937
176.057,269.658477235
176.072,269.624766507
176.087,269.590976958
176.102,269.557108385
176.117,269.523160582
176.132,269.489133317
176.147,269.455026394
176.162,269.420839589
176.177,269.386572692
176.192,269.352225473
176.207,269.317797726
176.222,269.283289231
176.237,269.248699762
176.252,269.214029102
176.267,269.179277035
176.282,269.144443325
176.297,269.10952776
176.31,269.079201217
176.312,269.07453011
176.327,269.039450145
176.342,269.004287648
176.357,268.969042381
176.372,268.933714117
176.387,268.898302634
176.402,268.862807691
176.417,268.827229061
176.432,268.79156651
176.447,268.755819802
176.46,268.724771065
176.462,268.719988702
176.477,268.68407297
176.492,268.648072372
176.507,268.611986666
176.522,268.575815614
176.537,268.539558982
176.552,268.503216508
176.567,268.466787954
176.582,268.430273097
176.597,268.39367166
176.612,268.356983409
176.627,268.320208098
176.642,268.283345469
176.657,268.246395274
176.672,268.209357263
176.687,268.172231176
176.702,268.135016758
176.717,268.097713754
176.732,268.060321903
176.747,268.022840948
176.762,267.98527063
176.777,267.947610669
176.792,267.909860821
176.807,267.872020811
176.822,267.83409037
176.837,267.796069231
176.852,267.75795713
176.867,267.719753785
176.882,267.681458921
176.897,267.643072272
176.912,267.604593556
176.927,267.566022494
176.942,267.527358804
176.957,267.488602205
176.972,267.449752415
176.987,267.410809146
177.002,267.371772115
177.017,267.332641029
177.032,267.293415593
177.047,267.254095518
177.062,267.214680507
177.077,267.175170266
177.092,267.135564499
177.107,267.095862898
177.122,267.056065169
177.137,267.016170994
177.152,266.976180076
177.167,266.936092104
177.182,266.895906772
177.197,266.855623755
177.21,266.820632559
177.212,266.815242749
177.227,266.77476343
177.242,266.734185484
177.257,266.693508582
177.272,266.652732404
177.287,266.611856616
177.302,266.570880904
177.31,266.548986213
177.317,266.529804929
177.332,266.48862835
177.347,266.447350834
177.362,266.405972046
177.377,266.364491646
177.392,266.32290929
177.407,266.281224625
177.422,266.239437304
177.437,266.197546976
177.452,266.15555329
177.467,266.113455886
177.482,266.071254398
177.497,266.028948471
177.512,265.986537732
177.527,265.944021822
177.542,265.901400359
177.557,265.858672971
177.572,265.815839286
177.587,265.772898913
177.602,265.729851471
177.617,265.686696577
177.632,265.643433836
177.647,265.600062859
177.66,265.562386814
177.662,265.556583239
177.677,265.512994585
177.692,265.469296486
177.707,265.425488539
177.722,265.381570326
177.737,265.337541441
177.752,265.293401453
177.767,265.249149956
177.782,265.204786507
177.797,265.160310694
177.812,265.115722065
177.827,265.071020188
177.842,265.026204632
177.857,264.981274938
177.872,264.936230664
177.887,264.891071345
177.902,264.845796536
177.917,264.800405771
177.932,264.754898571
177.947,264.709274477
177.96,264.669638676
177.962,264.66353301
177.977,264.617673688
177.992,264.571696033
178.007,264.52559954
178.022,264.479383722
178.037,264.433048083
178.052,264.386592114
178.067,264.340015309
178.082,264.293317145
178.097,264.246497114
178.112,264.199554685
178.127,264.152489318
178.142,264.105300492
178.157,264.057987672
178.172,264.010550284
178.187,263.962987798
178.202,263.915299641
178.217,263.867485265
178.232,263.819544092
178.247,263.771475544
178.262,263.723279045
178.277,263.674953999
178.292,263.62649982
178.307,263.577915904
178.322,263.529201643
178.337,263.480356426
178.352,263.43137963
178.367,263.382270628
178.382,263.333028789
178.397,263.283653472
178.41,263.240753059
178.412,263.234144028
178.427,263.184499803
178.442,263.134720139
178.457,263.084804359
178.472,263.034751789
178.487,262.984561756
178.502,262.934233553
178.517,262.88376649
178.532,262.833159853
178.547,262.782412926
178.562,262.731525004
178.577,262.680495329
178.592,262.629323177
178.607,262.5780078
178.622,262.526548437
178.637,262.474944318
178.652,262.42319468
178.667,262.371298732
178.682,262.31925568
178.697,262.267064727
178.712,262.214725069
178.727,262.162235874
178.742,262.109596318
178.757,262.056805564
178.772,262.003862758
178.787,261.950767044
178.802,261.897517554
178.817,261.844113405
178.832,261.790553711
178.847,261.736837575
178.862,261.682964077
178.877,261.628932308
178.892,261.574741326
178.907,261.520390191
178.922,261.465877951
178.937,261.411203634
178.952,261.35636627
178.967,261.30136487
178.982,261.246198429
178.997,261.190865933
179.012,261.135366367
179.027,261.079698682
179.042,261.023861837
179.057,260.967854774
179.072,260.911676414
179.087,260.855325662
179.102,260.798801434
179.117,260.742102607
179.132,260.685228056
179.147,260.628176645
179.16,260.578588127
179.162,260.570947209
179.177,260.513538593
179.192,260.455949618
179.207,260.39817908
179.222,260.340225768
179.237,260.282088471
179.252,260.223765938
179.267,260.165256929
179.282,260.10656016
179.297,260.047674364
179.312,259.988598234
179.327,259.929330457
179.342,259.869869705
179.357,259.810214638
179.372,259.750363896
179.387,259.690316093
179.402,259.630069846
179.417,259.569623746
179.432,259.508976363
179.447,259.448126258
179.462,259.387071974
179.477,259.325812033
179.492,259.264344942
179.507,259.202669196
179.522,259.140783263
179.537,259.078685613
179.552,259.016374665
179.567,258.953848856
179.582,258.891106572
179.597,258.828146201
179.612,258.764966122
179.627,258.701564666
179.642,258.637940174
179.657,258.574090956
179.672,258.510015303
179.687,258.445711482
179.702,258.381177752
179.717,258.316412351
179.732,258.251413492
179.747,258.186179364
179.762,258.120708158
179.777,258.054998021
179.792,257.989047095
179.807,257.9228535
179.822,257.856415331
179.837,257.789730673
179.852,257.722797569
179.867,257.655614076
179.882,257.5881782
179.897,257.520487944
179.91,257.461615726
179.912,257.452541278
179.927,257.384336171
179.942,257.315870549
179.957,257.24714233
179.972,257.178149414
179.987,257.108889674
180.002,257.039360962
180.017,256.969561117
180.032,256.899487942
180.047,256.829139243
180.062,256.758512778
180.077,256.6876063
180.092,256.616417544
180.107,256.544944218
180.122,256.47318401
180.137,256.401134584
180.152,256.328793588
180.167,256.256158646
180.182,256.18322737
180.197,256.109997334
180.212,256.036466112
180.227,255.962631245
180.242,255.888490249
180.257,255.814040636
180.272,255.739279878
180.287,255.664205448
180.302,255.588814781
180.317,255.513105296
180.332,255.437074395
180.347,255.360719462
180.362,255.284037854
180.377,255.207026917
180.392,255.129683963
180.407,255.052006317
180.422,254.973991235
180.437,254.89563599
180.452,254.816937834
180.467,254.737893977
180.482,254.658501636
180.497,254.578757997
180.512,254.498660222
180.527,254.418205468
180.542,254.337390857
180.557,254.256213518
180.56,254.239934261
180.572,254.174670533
180.587,254.092758985
180.602,254.010475926
180.617,253.927818398
180.632,253.844783434
180.647,253.761368037
180.66,253.688764631
180.662,253.677569195
180.677,253.593383875
180.692,253.508809037
180.707,253.423841617
180.722,253.338478545
180.737,253.252716713
180.752,253.166553023
180.767,253.079984331
180.782,252.993007503
180.797,252.905619375
180.812,252.817816778
180.827,252.729596518
180.842,252.640955364
180.857,252.551890124
180.872,252.462397539
180.887,252.372474358
180.902,252.282117306
180.917,252.191323102
180.932,252.100088436
180.947,252.00840999
180.962,251.916284436
180.977,251.823708409
180.992,251.730678565
181.007,251.6371915
181.022,251.543243832
181.037,251.448832132
181.052,251.353952989
181.067,251.258602935
181.082,251.162778518
181.097,251.066476257
181.112,250.969692651
181.127,250.872424198
181.142,250.774667351
181.157,250.676418573
181.172,250.57767429
181.187,250.478430925
181.202,250.378684874
181.217,250.278432509
181.232,250.177670193
181.247,250.076394264
181.262,249.974601053
181.277,249.872286856
181.292,249.769447956
181.307,249.666080614
181.31,249.645343395
181.322,249.562181061
181.337,249.457745525
181.352,249.352770202
181.367,249.24725126
181.382,249.141184866
181.397,249.034567132
181.412,248.927394191
181.427,248.819662106
181.442,248.711366946
181.457,248.602504755
181.472,248.493071535
181.487,248.383063288
181.502,248.272475979
181.517,248.161305553
181.532,248.049547923
181.547,247.937199001
181.562,247.824254643
181.577,247.710710713
181.592,247.596563034
181.607,247.481807414
181.622,247.366439644
181.637,247.250455475
181.652,247.133850679
181.667,247.016620967
181.682,246.898762056
181.697,246.780269652
181.712,246.661139431
181.727,246.541367082
181.742,246.420948258
181.757,246.299878627
181.772,246.178153852
181.787,246.055769587
181.802,245.932721497
181.817,245.80900526
181.832,245.684616554
181.847,245.559551093
181.862,245.433804598
181.877,245.307372823
181.892,245.180251572
181.907,245.052436663
181.922,244.923924007
181.937,244.794709525
181.952,244.664789244
181.967,244.534159259
181.982,244.402815733
181.997,244.27075497
182.012,244.137973339
182.027,244.004467379
182.042,243.870233737
182.057,243.735269226
182.06,243.708188357
182.072,243.599570848
182.087,243.463135763
182.102,243.325961378
182.117,243.188045291
182.132,243.049385393
182.147,242.909979816
182.162,242.769827023
182.177,242.628925785
182.192,242.487275245
182.207,242.344874924
182.222,242.201724779
182.237,242.057825216
182.252,241.913177143
182.267,241.767781999
182.282,241.621641815
182.297,241.474759241
182.312,241.327137602
182.327,241.178780958
182.342,241.029694164
182.357,240.879882902
182.372,240.729353764
182.387,240.578114343
182.402,240.426173261
182.417,240.273540267
182.432,240.120226333
182.447,239.966243719
182.462,239.811606068
182.477,239.656328513
182.492,239.500427782
182.507,239.343922302
182.522,239.186832304
182.537,239.029179979
182.552,238.87098957
182.567,238.712287531
182.582,238.553102659
182.597,238.393466261
182.612,238.233412295
182.627,238.072977531
182.642,237.912201744
182.657,237.751127866
182.672,237.589802187
182.687,237.428274528
182.702,237.266598433
182.717,237.104831369
182.732,236.943034928
182.747,236.781274987
182.762,236.619621927
182.777,236.458150795
182.792,236.296941461
182.807,236.136078789
182.822,235.975652753
182.837,235.815758524
182.852,235.656496527
182.867,235.49797246
182.882,235.340297187
182.897,235.183586635
182.912,235.027961535
182.927,234.873547046
182.942,234.720472243
182.957,234.568869412
182.972,234.418873096
182.987,234.270618907
183.002,234.124241989
183.017,233.979875067
183.032,233.837646083
183.047,233.697675218
183.062,233.560071408
183.077,233.424928119
183.092,233.292318624
183.107,233.162290775
183.122,233.034861985
183.137,232.910015381
183.152,232.787699618
183.167,232.667836953
183.182,232.550348464
183.197,232.435213163
183.212,232.322590536
183.227,232.213054978
183.242,232.108006309
183.257,232.010295973
183.367,232.022280089
183.382,232.119170512
183.397,232.222526816
183.412,232.329932613
183.427,232.440246117
183.442,232.553027147
183.457,232.66817728
183.472,232.785739435
183.487,232.905795067
183.502,233.028415811
183.517,233.153643719
183.532,233.281485901
183.547,233.411915993
183.562,233.54487837
183.577,233.680293356
183.592,233.818062327
183.607,233.95807232
183.622,234.100200065
183.637,234.244315364
183.652,234.390283877
183.667,234.537969394
183.682,234.687235682
183.697,234.837947908
183.712,234.989973796
183.727,235.143184481
183.742,235.297455208
183.757,235.45266576
183.772,235.608700814
183.787,235.765450187
183.802,235.922808927
183.817,236.080677357
183.832,236.238961103
183.847,236.397570956
183.862,236.556422837
183.877,236.715437636
183.892,236.874541056
183.907,237.033663451
183.922,237.192739642
183.937,237.351708729
183.952,237.510513888
183.967,237.669102208
183.982,237.827424445
183.997,237.985434891
184.012,238.14309115
184.027,238.300353957
184.042,238.457187032
184.057,238.613556871
184.072,238.769432602
184.087,238.924785842
184.102,239.079590525
184.117,239.233822754
184.132,239.387460714
184.147,239.540484477
184.162,239.692875933
184.177,239.844618649
184.192,239.99569776
184.207,240.146099877
184.222,240.295812991
184.237,240.444826364
184.252,240.593130461
184.267,240.740716873
184.282,240.88757821
184.297,241.033708065
184.312,241.179100933
184.327,241.323752128
184.342,241.467657771
184.357,241.610814688
184.372,241.753220378
184.387,241.894872963
184.402,242.035771147
184.417,242.175914164
184.432,242.315301729
184.447,242.453934036
184.462,242.591811682
184.477,242.72893566
184.492,242.865307321
184.507,243.000928323
184.522,243.135800653
184.537,243.269926562
184.552,243.403308546
184.56,243.474142358
184.567,243.535949348
184.582,243.667851892
184.597,243.799019332
184.612,243.92945496
184.627,244.059162233
184.642,244.188144763
184.657,244.316406275
184.672,244.443950612
184.687,244.570781707
184.702,244.696903592
184.717,244.822320379
184.732,244.947036245
184.747,245.07105542
184.762,245.194382198
184.777,245.31702091
184.792,245.43897591
184.807,245.560251605
184.822,245.680852409
184.837,245.800782758
184.852,245.920047099
184.867,246.038649893
184.882,246.156595599
184.897,246.27388868
184.912,246.390533583
184.927,246.506534768
184.942,246.621896675
184.957,246.736623722
184.972,246.850720343
184.987,246.964190918
185.002,247.077039842
185.017,247.18927146
185.032,247.300890126
185.047,247.411900143
185.062,247.522305813
185.077,247.632111403
185.092,247.741321157
185.107,247.849939293
185.122,247.957970006
185.137,248.065417458
185.152,248.172285792
185.167,248.278579119
185.182,248.384301521
185.197,248.48945706
185.212,248.594049762
185.227,248.698083635
185.242,248.801562655
185.257,248.904490769
185.272,249.006871902
185.287,249.10870995
185.302,249.210008791
185.31,249.263815679
185.317,249.310772253
185.332,249.411004158
185.347,249.510708322
185.362,249.609888479
185.377,249.708548407
185.392,249.806691804
185.407,249.90432237
185.422,250.001443779
185.437,250.098059677
185.452,250.194173702
185.467,250.289789441
185.482,250.384910481
185.497,250.479540378
185.512,250.573682682
185.527,250.667340891
185.542,250.760518508
185.557,250.853219014
185.572,250.945445856
185.587,251.037202461
185.602,251.128492251
185.617,251.219318623
185.632,251.309684935
185.647,251.399594558
185.662,251.48905082
185.677,251.578057034
185.692,251.666616508
185.707,251.754732513
185.722,251.842408309
185.737,251.929647132
185.752,252.016452219
185.767,252.102826763
185.782,252.188773963
185.797,252.274296973
185.812,252.359398959
185.827,252.444083041
185.842,252.528352341
185.857,252.612209948
185.872,252.695658953
185.887,252.778702407
185.902,252.861343365
185.917,252.943584839
185.932,253.025429841
185.947,253.106881364
185.96,253.177156701
185.962,253.187942378
185.977,253.268615841
185.992,253.348904682
186.007,253.428811823
186.022,253.50834016
186.037,253.587492589
186.052,253.66627195
186.06,253.708136068
186.067,253.744681114
186.082,253.822722891
186.097,253.900400098
186.112,253.977715526
186.127,254.054671947
186.142,254.131272112
186.157,254.207518762
186.172,254.283414609
186.187,254.358962359
186.202,254.434164683
186.217,254.509024253
186.232,254.583543703
186.247,254.657725657
186.262,254.731572726
186.277,254.805087491
186.292,254.878272526
186.307,254.951130367
186.322,255.02366355
186.337,255.095874589
186.352,255.16776597
186.367,255.239340163
186.382,255.310599623
186.397,255.381546787
186.412,255.452184068
186.427,255.522513846
186.442,255.592538515
186.457,255.662260429
186.472,255.731681917
186.487,255.800805303
186.502,255.869632877
186.517,255.938166925
186.532,256.006409708
186.547,256.074363461
186.562,256.142030399
186.577,256.209412741
186.592,256.276512653
186.607,256.34333231
186.622,256.409873853
186.637,256.476139396
186.652,256.542131052
186.667,256.607850915
186.682,256.673301043
186.697,256.738483488
186.71,256.79475998
186.712,256.803400272
186.727,256.868053422
186.742,256.932444915
186.757,256.996576724
186.772,257.060450814
186.787,257.124069107
186.802,257.187433525
186.817,257.250545976
186.832,257.313408323
186.847,257.376022442
186.862,257.438390173
186.877,257.500513332
186.892,257.562393737
186.907,257.624033173
186.922,257.685433406
186.937,257.746596194
186.952,257.807523276
186.967,257.868216367
186.982,257.928677167
186.997,257.988907358
187.012,258.048908603
187.027,258.108682557
187.042,258.168230849
187.057,258.227555097
187.072,258.286656895
187.087,258.345537826
187.102,258.404199448
187.117,258.46264332
187.132,258.520870973
187.147,258.578883914
187.162,258.63668365
187.177,258.694271658
187.192,258.751649413
187.207,258.808818369
187.222,258.865779957
187.237,258.922535594
187.252,258.9790867
187.267,259.035434652
187.282,259.091580835
187.297,259.147526608
187.312,259.203273315
187.327,259.258822286
187.342,259.314174843
187.357,259.369332297
187.372,259.424295916
187.387,259.479066987
187.402,259.533646779
187.417,259.588036524
187.432,259.642237463
187.447,259.696250813
187.46,259.742911586
187.462,259.75007779
187.477,259.803719577
187.492,259.857177358
187.507,259.910452296
187.522,259.963545556
187.537,260.016458274
187.552,260.06919158
187.567,260.121746586
187.582,260.174124408
187.597,260.22632613
187.612,260.278352835
187.627,260.330205602
187.642,260.381885468
187.657,260.433393496
187.672,260.484730717
187.687,260.535898148
187.702,260.586896801
187.717,260.637727683
187.732,260.688391787
187.747,260.738890078
187.762,260.78922354
187.777,260.83939312
187.792,260.88939977
187.807,260.93924443
187.822,260.988928019
187.837,261.038451461
187.852,261.087815664
187.867,261.137021521
187.882,261.186069926
187.897,261.234961747
187.912,261.283697863
187.927,261.332279128
187.942,261.380706391
187.957,261.428980501
187.972,261.477102281
187.987,261.525072559
188.002,261.572892148
188.017,261.620561856
188.032,261.668082483
188.047,261.715454811
188.062,261.762679632
188.077,261.809757706
188.092,261.856689805
188.107,261.903476683
188.122,261.950119094
188.137,261.996617771
188.152,262.042973455
188.167,262.089186865
188.182,262.135258725
188.197,262.181189743
188.21,262.220883246
188.212,262.226980624
188.227,262.272632066
188.242,262.318144752
188.257,262.363519376
188.272,262.40875659
188.287,262.453857096
188.302,262.498821539
188.317,262.543650564
188.332,262.588344836
188.347,262.632904992
188.362,262.677331672
188.377,262.721625496
188.392,262.7657871
188.407,262.809817095
188.422,262.853716093
188.437,262.897484695
188.452,262.941123509
188.467,262.984633126
188.482,263.028014132
188.497,263.071267113
188.512,263.11439265
188.527,263.157391301
188.542,263.200263648
188.557,263.243010242
188.572,263.285631644
188.587,263.328128395
188.602,263.370501051
188.617,263.412750151
188.632,263.454876227
188.647,263.49687981
188.66,263.533184239
188.662,263.538761425
188.677,263.580521596
188.692,263.622160841
188.707,263.663679662
188.722,263.705078574
