# 01004 ENAS Ny-Alesund Ii Observations at 12Z 21 Feb 2020
Frequency [GHz],TB
175.31,198.451636889
175.322,198.521985234
175.337,198.610172592
175.352,198.698640576
175.367,198.787389931
175.382,198.876421408
175.397,198.965735756
175.412,199.055333711
175.427,199.145216016
175.442,199.235383413
175.457,199.325836629
175.472,199.416576405
175.487,199.507603464
175.502,199.598918532
175.517,199.690522336
175.532,199.782415592
175.547,199.874599016
175.562,199.967073325
175.577,200.059839221
175.592,200.152897411
175.607,200.246248599
175.622,200.339893486
175.637,200.433832758
175.652,200.528067102
175.667,200.622597215
175.682,200.717423768
175.697,200.812547442
175.712,200.907968905
175.727,201.003688824
175.742,201.099707867
175.757,201.196026682
175.772,201.292645926
175.787,201.389566246
175.802,201.486788281
175.817,201.584312667
175.832,201.682140035
175.847,201.780271007
175.862,201.878706206
175.877,201.977446238
175.892,202.076491718
175.907,202.175843235
175.922,202.275501393
175.937,202.37546677
175.952,202.475739951
175.967,202.576321506
175.982,202.677212003
175.997,202.778411999
176.012,202.879922046
176.027,202.981742685
176.042,203.083874456
176.057,203.186317888
176.072,203.289073493
176.087,203.39214179
176.102,203.495523284
176.117,203.599218465
176.132,203.70322782
176.147,203.807551825
176.162,203.912190949
176.177,204.017145648
176.192,204.12241638
176.207,204.228003576
176.222,204.333907667
176.237,204.440129073
176.252,204.546668207
176.267,204.653525463
176.282,204.760701231
176.297,204.86819589
176.31,204.961616156
176.312,204.976009803
176.327,205.084143329
176.342,205.192596808
176.357,205.301370576
176.372,205.410464949
176.387,205.519880235
176.402,205.629616731
176.417,205.739674723
176.432,205.850054473
176.447,205.960756248
176.46,206.056958452
176.462,206.071780286
176.477,206.183126813
176.492,206.294796055
176.507,206.406788213
176.522,206.519103469
176.537,206.631742
176.552,206.744703966
176.567,206.857989517
176.582,206.971598767
176.597,207.085531842
176.612,207.199788841
176.627,207.314369835
176.642,207.4292749
176.657,207.544504072
176.672,207.660057397
176.687,207.775934883
176.702,207.892136528
176.717,208.00866231
176.732,208.125512195
176.747,208.242686124
176.762,208.360184023
176.777,208.478005794
176.792,208.596151332
176.807,208.714620496
176.822,208.833413139
176.837,208.952529086
176.852,209.071968145
176.867,209.191730104
176.882,209.311814727
176.897,209.432221758
176.912,209.552950918
176.927,209.674001911
176.942,209.795374415
176.957,209.91706808
176.972,210.039082545
176.987,210.161417421
177.002,210.284072278
177.017,210.407046696
177.032,210.5303402
177.047,210.653952306
177.062,210.777882501
177.077,210.902130248
177.092,211.026694975
177.107,211.151576102
177.122,211.276773006
177.137,211.402285039
177.152,211.528111538
177.167,211.654251796
177.182,211.780705089
177.197,211.907470662
177.21,212.01758615
177.212,212.034547726
177.227,212.161935472
177.242,212.289633049
177.257,212.417639587
177.272,212.545954179
177.287,212.674575893
177.302,212.80350376
177.31,212.872390127
177.317,212.932736779
177.332,213.062273918
177.347,213.192114118
177.362,213.322256275
177.377,213.452699265
177.392,213.583441923
177.407,213.714483048
177.422,213.845821407
177.437,213.977455728
177.452,214.10938471
177.467,214.241607013
177.482,214.374121259
177.497,214.506926032
177.512,214.640019882
177.527,214.773401316
177.542,214.907068808
177.557,215.041020789
177.572,215.175255655
177.587,215.309771758
177.602,215.444567411
177.617,215.579640885
177.632,215.71499041
177.647,215.850614179
177.66,215.968375181
177.662,215.986510341
177.677,216.12267699
177.692,216.259112198
177.707,216.395813973
177.722,216.532780295
177.737,216.670009088
177.752,216.807498236
177.767,216.945245576
177.782,217.083248904
177.797,217.221505957
177.812,217.360014436
177.827,217.49877199
177.842,217.637776218
177.857,217.777024675
177.872,217.916514863
177.887,218.056244234
177.902,218.196210197
177.917,218.336410097
177.932,218.476841239
177.947,218.617500875
177.96,218.739588549
177.962,218.758386194
177.977,218.899494348
177.992,219.040822422
178.007,219.182367458
178.022,219.324126436
178.037,219.466096285
178.052,219.608273877
178.067,219.750656026
178.082,219.893239497
178.097,220.036020989
178.112,220.178997155
178.127,220.322164573
178.142,220.465519777
178.157,220.60905924
178.172,220.752779374
178.187,220.896676526
178.202,221.040746994
178.217,221.184987
178.232,221.32939272
178.247,221.473960259
178.262,221.618685659
178.277,221.763564906
178.292,221.908593918
178.307,222.05376855
178.322,222.199084595
178.337,222.344537777
178.352,222.490123756
178.367,222.635838135
178.382,222.781676437
178.397,222.92763413
178.41,223.054223813
178.412,223.07370661
178.427,223.219889206
178.442,223.366177182
178.457,223.512565728
178.472,223.659049979
178.487,223.805624981
178.502,223.952285731
178.517,224.099027143
178.532,224.245844067
178.547,224.39273128
178.562,224.539683491
178.577,224.686695337
178.592,224.833761382
178.607,224.980876126
178.622,225.128033983
178.637,225.275229311
178.652,225.422456385
178.667,225.569709412
178.682,225.716982521
178.697,225.864269774
178.712,226.011565159
178.727,226.158862586
178.742,226.306155896
178.757,226.453438853
178.772,226.60070515
178.787,226.747948403
178.802,226.895162156
178.817,227.042339877
178.832,227.189474961
178.847,227.336560726
178.862,227.48359042
178.877,227.630557213
178.892,227.777454199
178.907,227.924274405
178.922,228.071010772
178.937,228.217656177
178.952,228.364203417
178.967,228.510645216
178.982,228.656974225
178.997,228.803183021
179.012,228.949264101
179.027,229.095209902
179.042,229.241012772
179.057,229.386664997
179.072,229.532158786
179.087,229.677486278
179.102,229.822639533
179.117,229.967610551
179.132,230.112391247
179.147,230.256973475
179.16,230.382111182
179.162,230.401349013
179.177,230.545509573
179.192,230.689446797
179.207,230.833152255
179.222,230.976617448
179.237,231.119833813
179.252,231.262792722
179.267,231.405485468
179.282,231.547903297
179.297,231.690037374
179.312,231.831878808
179.327,231.973418644
179.342,232.11464786
179.357,232.255557377
179.372,232.396138055
179.387,232.536380691
179.402,232.676276028
179.417,232.815814747
179.432,232.954987475
179.447,233.093784784
179.462,233.23219719
179.477,233.370215157
179.492,233.507829099
179.507,233.645029376
179.522,233.7818063
179.537,233.918150138
179.552,234.05405111
179.567,234.189499387
179.582,234.324485101
179.597,234.458998344
179.612,234.593029165
179.627,234.726567572
179.642,234.859603542
179.657,234.992127011
179.672,235.12412789
179.687,235.255596052
179.702,235.38652134
179.717,235.516893579
179.732,235.646702556
179.747,235.775938041
179.762,235.904589785
179.777,236.032647514
179.792,236.160100939
179.807,236.28693976
179.822,236.413153661
179.837,236.538732314
179.852,236.663665385
179.867,236.787942537
179.882,236.911553425
179.897,237.034487706
179.91,237.140475459
179.912,237.156735042
179.927,237.278285092
179.942,237.399127528
179.957,237.519252033
179.972,237.638648297
179.987,237.757306031
180.002,237.875214958
180.017,237.992364828
180.032,238.108745412
180.047,238.224346504
180.062,238.339157935
180.077,238.453169567
180.092,238.566371292
180.107,238.678753046
180.122,238.790304808
180.137,238.901016597
180.152,239.010878482
180.167,239.119880589
180.182,239.228013089
180.197,239.33526622
180.212,239.441630274
180.227,239.547095613
180.242,239.651652663
180.257,239.755291925
180.272,239.858003971
180.287,239.959779452
180.302,240.060609104
180.317,240.160483743
180.332,240.259394275
180.347,240.3573317
180.362,240.454287112
180.377,240.550251702
180.392,240.645216766
180.407,240.739173704
180.422,240.83211403
180.437,240.924029362
180.452,241.014911445
180.467,241.104752136
180.482,241.193543417
180.497,241.2812774
180.512,241.367946326
180.527,241.453542568
180.542,241.538058641
180.557,241.621487194
180.56,241.638041766
180.572,241.703821025
180.587,241.78505308
180.602,241.865176454
180.617,241.944184397
180.632,242.022070317
180.647,242.098827782
180.66,242.164433276
180.662,242.174450527
180.677,242.248932449
180.692,242.322267622
180.707,242.394450289
180.722,242.465474872
180.737,242.535335972
180.752,242.604028373
180.767,242.671547045
180.782,242.737887147
180.797,242.803044028
180.812,242.867013233
180.827,242.929790501
180.842,242.991371771
180.857,243.05175319
180.872,243.1109311
180.887,243.168902055
180.902,243.22566282
180.917,243.281210365
180.932,243.33554188
180.947,243.388654767
180.962,243.440546646
180.977,243.491215359
180.992,243.540658965
181.007,243.588875748
181.022,243.635864219
181.037,243.68162311
181.052,243.726151386
181.067,243.769448238
181.082,243.811513086
181.097,243.852345584
181.112,243.891945616
181.127,243.930313301
181.142,243.96744899
181.157,244.003353271
181.172,244.038026966
181.187,244.071471132
181.202,244.103687063
181.217,244.13467629
181.232,244.164440579
181.247,244.192981935
181.262,244.220302599
181.277,244.246405046
181.292,244.271291988
181.307,244.294966376
181.31,244.299556023
181.322,244.317431392
181.337,244.338690456
181.352,244.358747219
181.367,244.377605567
181.382,244.395269618
181.397,244.411743721
181.412,244.427032454
181.427,244.441140625
181.442,244.45407327
181.457,244.465835649
181.472,244.476433248
181.487,244.485871773
181.502,244.494157155
181.517,244.501295541
181.532,244.507293296
181.547,244.512157001
181.562,244.515893446
181.577,244.518509637
181.592,244.520012785
181.607,244.520410308
181.622,244.519709825
181.637,244.517919158
181.652,244.515046325
181.667,244.511099541
181.682,244.506087211
181.697,244.500017929
181.712,244.492900477
181.727,244.484743818
181.742,244.475557093
181.757,244.465349621
181.772,244.454130892
181.787,244.441910566
181.802,244.428698464
181.817,244.414504572
181.832,244.399339031
181.847,244.383212136
181.862,244.366134329
181.877,244.348116195
181.892,244.32916846
181.907,244.309301985
181.922,244.28852776
181.937,244.2668569
181.952,244.244300636
181.967,244.220870319
181.982,244.196577403
181.997,244.171433445
182.012,244.145450099
182.027,244.118639106
182.042,244.091012292
182.057,244.062581555
182.06,244.056799989
182.072,244.033358864
182.087,244.003356243
182.102,243.97258577
182.117,243.941059566
182.132,243.90878978
182.147,243.875788589
182.162,243.842068179
182.177,243.807640735
182.192,243.772518433
182.207,243.736713423
182.222,243.700237819
182.237,243.663103678
182.252,243.62532299
182.267,243.586907658
182.282,243.54786948
182.297,243.50822013
182.312,243.467971135
182.327,243.427133852
182.342,243.385719443
182.357,243.343738847
182.372,243.301202752
182.387,243.25812156
182.402,243.214505354
182.417,243.170363855
182.432,243.125706386
182.447,243.08054182
182.462,243.03487853
182.477,242.988724338
182.492,242.942086445
182.507,242.89497137
182.522,242.847384873
182.537,242.799331869
182.552,242.750816342
182.567,242.701841236
182.582,242.652408348
182.597,242.602518197
182.612,242.552169885
182.627,242.50136094
182.642,242.450087136
182.657,242.398342298
182.672,242.346118077
182.687,242.293403696
182.702,242.240185667
182.717,242.186447468
182.732,242.132169169
182.747,242.077327019
182.762,242.021892959
182.777,241.965834072
182.792,241.909111947
182.807,241.851681941
182.822,241.79349232
182.837,241.734483266
182.852,241.674585705
182.867,241.613719924
182.882,241.551793946
182.897,241.488701581
182.912,241.424320104
182.927,241.358507442
182.942,241.291098776
182.957,241.22190237
182.972,241.150694438
182.987,241.077212765
183.002,241.001148698
183.017,240.922137006
183.032,240.8397429
183.047,240.753445212
183.062,240.662614353
183.077,240.566482987
183.092,240.46410644
183.107,240.354308296
183.122,240.235604146
183.137,240.10609226
183.152,239.963292629
183.167,239.803902578
183.182,239.623412012
183.197,239.415471525
183.212,239.170802495
183.227,238.875211236
183.242,238.505765266
183.257,238.023181782
183.367,238.14812507
183.382,238.594700252
183.397,238.94035061
183.412,239.21916783
183.427,239.451339614
183.442,239.64954366
183.457,239.822170907
183.472,239.975021896
183.487,240.112251117
183.502,240.236921658
183.517,240.35134674
183.532,240.457308771
183.547,240.5562048
183.562,240.649146018
183.577,240.737027569
183.592,240.820578627
183.607,240.900399003
183.622,240.976986365
183.637,241.050756785
183.652,241.122060453
183.667,241.191193854
183.682,241.258409298
183.697,241.323922467
183.712,241.387918444
183.727,241.450556577
183.742,241.511974423
183.757,241.572290995
183.772,241.631609427
183.787,241.690019196
183.802,241.74759798
183.817,241.804413217
183.832,241.860523429
183.847,241.915979338
183.862,241.970824833
183.877,242.025097789
183.892,242.078830774
183.907,242.132051668
183.922,242.184784192
183.937,242.237048375
183.952,242.288860956
183.967,242.340235745
183.982,242.391183933
183.997,242.44171437
184.012,242.49183381
184.027,242.541547125
184.042,242.590857499
184.057,242.6397666
184.072,242.688274734
184.087,242.736380978
184.102,242.784083307
184.117,242.831378702
184.132,242.87826325
184.147,242.924732231
184.162,242.970780203
184.177,243.016401069
184.192,243.061588148
184.207,243.106334232
184.222,243.150631641
184.237,243.194472272
184.252,243.237847645
184.267,243.280748941
184.282,243.323167045
184.297,243.365092573
184.312,243.40651591
184.327,243.447427234
184.342,243.487816544
184.357,243.527673685
184.372,243.566988369
184.387,243.605750195
184.402,243.643948669
184.417,243.681573224
184.432,243.718613229
184.447,243.755058011
184.462,243.790896865
184.477,243.826119069
184.492,243.860713895
184.507,243.894670618
184.522,243.927978531
184.537,243.960626951
184.552,243.992605228
184.56,244.009382632
184.567,244.023902757
184.582,244.054508982
184.597,244.084413404
184.612,244.113605592
184.627,244.142075183
184.642,244.169811895
184.657,244.196805527
184.672,244.223045969
184.687,244.248523204
184.702,244.273227317
184.717,244.297148494
184.732,244.320277032
184.747,244.342603339
184.762,244.364117942
184.777,244.384811489
184.792,244.40467475
184.807,244.423698628
184.822,244.441874153
184.837,244.459192494
184.852,244.475644956
184.867,244.491222986
184.882,244.505918176
184.897,244.519722263
184.912,244.532627137
184.927,244.544624838
184.942,244.555707562
184.957,244.565867663
184.972,244.575097653
184.987,244.583390208
185.002,244.590738168
185.017,244.597134539
185.032,244.602572495
185.047,244.607045382
185.062,244.610546717
185.077,244.613070192
185.092,244.614609675
185.107,244.61515921
185.122,244.614713021
185.137,244.613265515
185.152,244.610811277
185.167,244.607345079
185.182,244.602861875
185.197,244.597356809
185.212,244.590825208
185.227,244.583262589
185.242,244.574664659
185.257,244.565027314
185.272,244.554346643
185.287,244.542618926
185.302,244.529840634
185.31,244.522594817
185.317,244.516008433
185.332,244.501119183
185.347,244.485169938
185.362,244.468157945
185.377,244.450080649
185.392,244.430935689
185.407,244.410720899
185.422,244.389434308
185.437,244.367074141
185.452,244.34363882
185.467,244.31912696
185.482,244.293537372
185.497,244.266869064
185.512,244.239121234
185.527,244.210293277
185.542,244.180384781
185.557,244.149395525
185.572,244.117325484
185.587,244.084174819
185.602,244.049943885
185.617,244.014633226
185.632,243.978243572
185.647,243.940775847
185.662,243.902231152
185.677,243.862610779
185.692,243.821916203
185.707,243.780149082
185.722,243.737311251
185.737,243.69340473
185.752,243.648431711
185.767,243.602394567
185.782,243.555295844
185.797,243.507138261
185.812,243.457924705
185.827,243.407658238
185.842,243.356342084
185.857,243.303979633
185.872,243.250574442
185.887,243.196130224
185.902,243.140650854
185.917,243.084140363
185.932,243.026602934
185.947,242.968042908
185.96,242.916467181
185.962,242.90846477
185.977,242.847873156
185.992,242.786272846
186.007,242.723668762
186.022,242.660065967
186.037,242.595469662
186.052,242.529885184
186.06,242.494504624
186.067,242.463317998
186.082,242.395773705
186.097,242.32725803
186.112,242.257776824
186.127,242.18733606
186.142,242.115941827
186.157,242.043600336
186.172,241.970317909
186.187,241.896100979
186.202,241.82095609
186.217,241.744889887
186.232,241.667909124
186.247,241.590020652
186.262,241.511231417
186.277,241.431548464
186.292,241.350978929
186.307,241.269530033
186.322,241.187209089
186.337,241.104023489
186.352,241.019980713
186.367,240.935088306
186.382,240.8493539
186.397,240.762785196
186.412,240.675389963
186.427,240.587176039
186.442,240.498151325
186.457,240.408323784
186.472,240.31770144
186.487,240.226292367
186.502,240.134104701
186.517,240.041146625
186.532,239.947426366
186.547,239.852952207
186.562,239.757732465
186.577,239.661775502
186.592,239.565089717
186.607,239.467683546
186.622,239.369565455
186.637,239.270743947
186.652,239.171227544
186.667,239.071024804
186.682,238.970144302
186.697,238.868594637
186.71,238.780050308
186.712,238.766384426
186.727,238.663522304
186.742,238.560016917
186.757,238.455876931
186.772,238.351111014
186.787,238.245727845
186.802,238.139736111
186.817,238.0331445
186.832,237.925961703
186.847,237.818196412
186.862,237.709857314
186.877,237.600953096
186.892,237.491492435
186.907,237.381484001
186.922,237.270936458
186.937,237.159858456
186.952,237.048258628
186.967,236.936145601
186.982,236.823527977
186.997,236.710414342
187.012,236.596813269
187.027,236.482733299
187.042,236.368182958
187.057,236.253170742
187.072,236.137705126
187.087,236.021794555
187.102,235.905447447
187.117,235.788672186
187.132,235.67147713
187.147,235.553870599
187.162,235.435860886
187.177,235.31745624
187.192,235.198664881
187.207,235.079494987
187.222,234.959954702
187.237,234.840052124
187.252,234.719795317
187.267,234.599192297
187.282,234.478251042
187.297,234.356979483
187.312,234.235385507
187.327,234.113476959
187.342,233.991261634
187.357,233.868747278
187.372,233.745941595
187.387,233.622852234
187.402,233.499486799
187.417,233.375852838
187.432,233.251957857
187.447,233.127809302
187.46,233.020014494
187.462,233.003414572
187.477,232.878781008
187.492,232.753915902
187.507,232.628826495
187.522,232.503519963
187.537,232.378003436
187.552,232.252283985
187.567,232.126368629
187.582,232.000264325
187.597,231.873977976
187.612,231.747516427
187.627,231.620886469
187.642,231.494094832
187.657,231.367148185
187.672,231.240053149
187.687,231.112816274
187.702,230.985444059
187.717,230.857942942
187.732,230.730319298
187.747,230.602579452
187.762,230.474729659
187.777,230.346776124
187.792,230.218724979
187.807,230.090582312
187.822,229.962354139
187.837,229.83404642
187.852,229.705665055
187.867,229.577215885
187.882,229.448704686
187.897,229.320137182
187.912,229.191519026
187.927,229.062855824
187.942,228.93415311
187.957,228.805416363
187.972,228.676651005
187.987,228.547862388
188.002,228.419055818
188.017,228.290236531
188.032,228.161409708
188.047,228.03258047
188.062,227.903753876
188.077,227.774934929
188.092,227.646128574
188.107,227.517339693
188.122,227.388573111
188.137,227.259833595
188.152,227.131125859
188.167,227.00245455
188.182,226.873824262
188.197,226.745239531
188.21,226.633839746
188.212,226.616704838
188.227,226.488224602
188.242,226.359803191
188.257,226.231444909
188.272,226.103154016
188.287,225.974934702
188.302,225.846791111
188.317,225.718727328
188.332,225.590747386
188.347,225.462855257
188.362,225.335054867
188.377,225.207350083
188.392,225.079744713
188.407,224.952242529
188.422,224.824847231
188.437,224.697562475
188.452,224.570391864
188.467,224.443338948
188.482,224.316407227
188.497,224.18960015
188.512,224.062921114
188.527,223.936373463
188.542,223.809960491
188.557,223.683685449
188.572,223.557551533
188.587,223.43156189
188.602,223.305719616
188.617,223.180027765
188.632,223.054489341
188.647,222.9291073
188.66,222.820571605
188.662,222.803884545
188.677,222.678823938
188.692,222.5539283
188.707,222.429200397
188.722,222.304642946
188.737,222.180258638
