# 48698 WSSS Singapore Observations at 12Z 10 Jan 2019
Frequency [GHz],TB
175.31,277.045322528
175.322,277.025698141
175.337,277.001109146
175.352,276.976454914
175.367,276.951735193
175.382,276.926949731
175.397,276.902098282
175.412,276.877180585
175.427,276.852196388
175.442,276.827145431
175.457,276.802027457
175.472,276.776842206
175.487,276.751589414
175.502,276.726268812
175.517,276.700880141
175.532,276.675423126
175.547,276.649897499
175.562,276.624302988
175.577,276.598639318
175.592,276.572906215
175.607,276.547103398
175.622,276.521230585
175.637,276.495287501
175.652,276.469273856
175.667,276.443189368
175.682,276.417033745
175.697,276.390806699
175.712,276.36450794
175.727,276.338137169
175.742,276.311694094
175.757,276.285178416
175.772,276.258589832
175.787,276.231928042
175.802,276.205192741
175.817,276.178383625
175.832,276.151500378
175.847,276.124542694
175.862,276.09751026
175.877,276.070402759
175.892,276.043219875
175.907,276.015961285
175.922,275.98862667
175.937,275.961215703
175.952,275.933728062
175.967,275.90616341
175.982,275.878521425
175.997,275.850801766
176.012,275.823004102
176.027,275.795128092
176.042,275.767173396
176.057,275.739139671
176.072,275.711026573
176.087,275.682833751
176.102,275.654560857
176.117,275.626207537
176.132,275.597773436
176.147,275.569258197
176.162,275.54066146
176.177,275.511982862
176.192,275.483222036
176.207,275.454378618
176.222,275.425452233
176.237,275.39644251
176.252,275.367349073
176.267,275.338171546
176.282,275.308909543
176.297,275.279562686
176.31,275.254059803
176.312,275.250130583
176.327,275.220612852
176.342,275.191009096
176.357,275.161318922
176.372,275.131541933
176.387,275.101677728
176.402,275.071725905
176.417,275.041686058
176.432,275.011557779
176.447,274.981340658
176.46,274.955080298
176.462,274.951034276
176.477,274.920638222
176.492,274.89015207
176.507,274.859575401
176.522,274.828907789
176.537,274.798148803
176.552,274.767298013
176.567,274.736354983
176.582,274.705319273
176.597,274.674190447
176.612,274.642968056
176.627,274.611651654
176.642,274.580240791
176.657,274.548735015
176.672,274.517133864
176.687,274.485436885
176.702,274.453643611
176.717,274.421753575
176.732,274.389766308
176.747,274.357681337
176.762,274.325498185
176.777,274.293216374
176.792,274.260835421
176.807,274.228354837
176.822,274.195774134
176.837,274.163092818
176.852,274.130310393
176.867,274.097426359
176.882,274.064440211
176.897,274.031351441
176.912,273.99815954
176.927,273.964863992
176.942,273.931464281
176.957,273.897959883
176.972,273.864350274
176.987,273.830634924
177.002,273.796813301
177.017,273.762884867
177.032,273.728849085
177.047,273.694705406
177.062,273.660453285
177.077,273.626092169
177.092,273.591621503
177.107,273.557040728
177.122,273.522349277
177.137,273.487546586
177.152,273.452632083
177.167,273.417605191
177.182,273.382465331
177.197,273.347211917
177.21,273.316566655
177.212,273.311844365
177.227,273.276362082
177.242,273.240764467
177.257,273.205050925
177.272,273.169220849
177.287,273.13327363
177.302,273.097208655
177.31,273.07792564
177.317,273.061025306
177.332,273.02472296
177.347,272.988300992
177.362,272.95175877
177.377,272.915095659
177.392,272.878311018
177.407,272.841404204
177.422,272.804374568
177.437,272.767221456
177.452,272.729944209
177.467,272.692542162
177.482,272.655014649
177.497,272.617360998
177.512,272.579580533
177.527,272.541672569
177.542,272.503636418
177.557,272.465471392
177.572,272.427176791
177.587,272.388751913
177.602,272.350196054
177.617,272.311508497
177.632,272.272688531
177.647,272.233735426
177.66,272.199867818
177.662,272.194648463
177.677,272.155426903
177.692,272.11607001
177.707,272.076577039
177.722,272.036947246
177.737,271.997179872
177.752,271.95727416
177.767,271.917229345
177.782,271.877044653
177.797,271.836719313
177.812,271.79625254
177.827,271.755643549
177.842,271.714891544
177.857,271.673995728
177.872,271.632955296
177.887,271.591769437
177.902,271.550437335
177.917,271.508958167
177.932,271.467331106
177.947,271.425555317
177.96,271.389228678
177.962,271.383629957
177.977,271.341554184
177.992,271.299327142
178.007,271.256947973
178.022,271.214415811
178.037,271.171729784
178.052,271.128889016
178.067,271.08589262
178.082,271.042739705
178.097,270.999429375
178.112,270.955960724
178.127,270.912332842
178.142,270.868544811
178.157,270.824595705
178.172,270.780484596
178.187,270.736210543
178.202,270.6917726
178.217,270.647169819
178.232,270.602401235
178.247,270.557465887
178.262,270.512362796
178.277,270.467090984
178.292,270.421649462
178.307,270.376037233
178.322,270.330253296
178.337,270.284296639
178.352,270.238166244
178.367,270.191861084
178.382,270.145380124
178.397,270.098722324
178.41,270.058141709
178.412,270.051886634
178.427,270.004871998
178.442,269.957677347
178.457,269.91030161
178.472,269.862743704
178.487,269.81500254
178.502,269.767077016
178.517,269.71896603
178.532,269.670668463
178.547,269.622183192
178.562,269.573509083
178.577,269.524644997
178.592,269.475589784
178.607,269.426342281
178.622,269.376901324
178.637,269.327265734
178.652,269.277434323
178.667,269.227405897
178.682,269.177179251
178.697,269.12675317
178.712,269.076126431
178.727,269.025297799
178.742,268.97426603
178.757,268.923029874
178.772,268.871588064
178.787,268.819939328
178.802,268.768082382
178.817,268.716015935
178.832,268.663738681
178.847,268.611249305
178.862,268.558546482
178.877,268.505628877
178.892,268.452495144
178.907,268.399143924
178.922,268.34557385
178.937,268.291783541
178.952,268.237771606
178.967,268.183536644
178.982,268.129077241
178.997,268.07439197
179.012,268.019479395
179.027,267.964338066
179.042,267.908966521
179.057,267.853363288
179.072,267.79752688
179.087,267.7414558
179.102,267.685148536
179.117,267.628603564
179.132,267.571819348
179.147,267.514794338
179.16,267.465176679
179.162,267.457526971
179.177,267.40001567
179.192,267.342258846
179.207,267.284254895
179.222,267.226002198
179.237,267.167499127
179.252,267.108744033
179.267,267.049735255
179.282,266.990471122
179.297,266.930949939
179.312,266.871170007
179.327,266.811129602
179.342,266.75082699
179.357,266.69026042
179.372,266.629428128
179.387,266.568328327
179.402,266.506959222
179.417,266.445318995
179.432,266.383405817
179.447,266.321217837
179.462,266.258753191
179.477,266.196009995
179.492,266.13298635
179.507,266.069680335
179.522,266.006090016
179.537,265.942213437
179.552,265.878048626
179.567,265.813593589
179.582,265.748846317
179.597,265.683804777
179.612,265.618466923
179.627,265.552830678
179.642,265.486893959
179.657,265.420654652
179.672,265.354110625
179.687,265.287259725
179.702,265.220099779
179.717,265.152628592
179.732,265.084843944
179.747,265.016743595
179.762,264.948325283
179.777,264.879586721
179.792,264.8105256
179.807,264.741139586
179.822,264.671426321
179.837,264.601383423
179.852,264.531008487
179.867,264.460299078
179.882,264.38925274
179.897,264.317866988
179.91,264.255722847
179.912,264.24613931
179.927,264.174067171
179.942,264.101648004
179.957,264.028879219
179.972,263.955758192
179.987,263.882282276
180.002,263.808448791
180.017,263.734255031
180.032,263.659698254
180.047,263.584775694
180.062,263.509484551
180.077,263.433821994
180.092,263.357785159
180.107,263.28137115
180.122,263.204577039
180.137,263.127399863
180.152,263.049836625
180.167,262.971884296
180.182,262.893539807
180.197,262.814800058
180.212,262.735661909
180.227,262.656122184
180.242,262.576177672
180.257,262.49582512
180.272,262.415061239
180.287,262.333882698
180.302,262.25228613
180.317,262.170268123
180.332,262.087825227
180.347,262.004953948
180.362,261.92165075
180.377,261.837912054
180.392,261.753734237
180.407,261.66911363
180.422,261.58404652
180.437,261.498529148
180.452,261.412557707
180.467,261.326128345
180.482,261.239237156
180.497,261.151880192
180.512,261.06405345
180.527,260.975752881
180.542,260.886974377
180.557,260.797713788
180.56,260.779803451
180.572,260.707966903
180.587,260.61772946
180.602,260.526997143
180.617,260.435765581
180.632,260.344030344
180.647,260.251786949
180.66,260.171428119
180.662,260.159030852
180.677,260.065757451
180.692,259.971962085
180.707,259.877640033
180.722,259.782786511
180.737,259.687396676
180.752,259.591465617
180.767,259.494988365
180.782,259.397959882
180.797,259.300375067
180.812,259.202228749
180.827,259.103515695
180.842,259.004230598
180.857,258.904368087
180.872,258.803922716
180.887,258.702888972
180.902,258.601261269
180.917,258.499033949
180.932,258.396201277
180.947,258.292757451
180.962,258.188696584
180.977,258.084012721
180.992,257.978699827
181.007,257.87275179
181.022,257.766162418
181.037,257.658925439
181.052,257.551034506
181.067,257.442483185
181.082,257.333264964
181.097,257.223373247
181.112,257.112801356
181.127,257.001542528
181.142,256.889589918
181.157,256.776936593
181.172,256.663575535
181.187,256.549499642
181.202,256.434701723
181.217,256.319174502
181.232,256.202910613
181.247,256.085902603
181.262,255.968142931
181.277,255.849623967
181.292,255.730337994
181.307,255.610277204
181.31,255.586171374
181.322,255.4894337
181.337,255.367799496
181.352,255.24536652
181.367,255.122126606
181.382,254.998071504
181.397,254.873192875
181.412,254.747482289
181.427,254.620931232
181.442,254.493531104
181.457,254.365273216
181.472,254.236148796
181.487,254.106148989
181.502,253.975264857
181.517,253.843487378
181.532,253.710807456
181.547,253.577215911
181.562,253.442703492
181.577,253.307260871
181.592,253.170878648
181.607,253.033547357
181.622,252.895257462
181.637,252.755999367
181.652,252.615763415
181.667,252.474539893
181.682,252.332319036
181.697,252.189091028
181.712,252.044846016
181.727,251.899574103
181.742,251.753265363
181.757,251.60590984
181.772,251.457497559
181.787,251.308018533
181.802,251.157462766
181.817,251.005820265
181.832,250.853081047
181.847,250.699235146
181.862,250.544272631
181.877,250.388183603
181.892,250.230958222
181.907,250.072586706
181.922,249.913059351
181.937,249.752366545
181.952,249.59049878
181.967,249.42744667
181.982,249.26320097
181.997,249.09775259
182.012,248.931092622
182.027,248.763212353
182.042,248.594103295
182.057,248.423757204
182.06,248.389538836
182.072,248.252166114
182.087,248.079322353
182.102,247.905218588
182.117,247.729847843
182.132,247.553203543
182.147,247.375279549
182.162,247.196070193
182.177,247.015570326
182.192,246.833775359
182.207,246.650681313
182.222,246.466284872
182.237,246.280583433
182.252,246.093575167
182.267,245.905259083
182.282,245.715635093
182.297,245.524704081
182.312,245.332467979
182.327,245.138929849
182.342,244.944093965
182.357,244.747965905
182.372,244.550552645
182.387,244.351862659
182.402,244.15190603
182.417,243.95069456
182.432,243.748241886
182.447,243.544563611
182.462,243.339677436
182.477,243.133603291
182.492,242.926363492
182.507,242.71798288
182.522,242.508488992
182.537,242.297912214
182.552,242.08628596
182.567,241.873646846
182.582,241.66003487
182.597,241.445493604
182.612,241.230070374
182.627,241.013816458
182.642,240.796787278
182.657,240.579042588
182.672,240.360646662
182.687,240.141668468
182.702,239.922181847
182.717,239.702265647
182.732,239.48200387
182.747,239.26148576
182.762,239.040805861
182.777,238.820064035
182.792,238.599365399
182.807,238.378820183
182.822,238.158543491
182.837,237.938654918
182.852,237.719278004
182.867,237.500539473
182.882,237.282568204
182.897,237.065493863
182.912,236.849445102
182.927,236.634547208
182.942,236.420919054
182.957,236.208669142
182.972,235.997890474
182.987,235.788653909
183.002,235.580999512
183.017,235.374925241
183.032,235.170372082
183.047,234.967204359
183.062,234.765183425
183.077,234.563932161
183.092,234.362886536
183.107,234.161228688
183.122,233.957793232
183.137,233.750934278
183.152,233.538334072
183.167,233.316724123
183.182,233.081475216
183.197,232.825994491
183.212,232.540857814
183.227,232.212662387
183.242,231.82296825
183.257,231.349568863
183.367,231.464056824
183.382,231.909850083
183.397,232.27762511
183.412,232.589120496
183.427,232.861447083
183.442,233.106876356
183.457,233.334011639
183.472,233.548873804
183.487,233.755695807
183.502,233.957469829
183.517,234.156318828
183.532,234.353749654
183.547,234.550827267
183.562,234.748296195
183.577,234.946666425
183.592,235.146274938
183.607,235.347330417
183.622,235.549946091
183.637,235.754164151
183.652,235.959974054
183.667,236.167326385
183.682,236.376143404
183.697,236.586327132
183.712,236.797765567
183.727,237.010337482
183.742,237.223916117
183.757,237.438372045
183.772,237.653575349
183.787,237.869397316
183.802,238.085711701
183.817,238.302395678
183.832,238.519330544
183.847,238.736402212
183.862,238.953501554
183.877,239.170524616
183.892,239.387372732
183.907,239.603952559
183.922,239.820176056
183.937,240.035960412
183.952,240.251227936
183.967,240.46590592
183.982,240.679926487
183.997,240.893226415
184.012,241.105746956
184.027,241.317433652
184.042,241.528236139
184.057,241.738107957
184.072,241.947006359
184.087,242.154892119
184.102,242.361729351
184.117,242.567485329
184.132,242.772130306
184.147,242.975637352
184.162,243.177982181
184.177,243.379143007
184.192,243.579100383
184.207,243.777837063
184.222,243.975337864
184.237,244.171589534
184.252,244.36658063
184.267,244.5603014
184.282,244.752743672
184.297,244.943900747
184.312,245.133767301
184.327,245.322339289
184.342,245.50961386
184.357,245.69558927
184.372,245.880264803
184.387,246.063640701
184.402,246.245718088
184.417,246.426498913
184.432,246.60598588
184.447,246.784182396
184.462,246.961092516
184.477,247.136720891
184.492,247.311072721
184.507,247.484153714
184.522,247.655970038
184.537,247.826528289
184.552,247.995835449
184.56,248.085623565
184.567,248.163898858
184.582,248.330726176
184.597,248.496325356
184.612,248.66070462
184.627,248.823872428
184.642,248.985837456
184.657,249.146608572
184.672,249.306194818
184.687,249.46460539
184.702,249.621849615
184.717,249.777936942
184.732,249.932876915
184.747,250.086679173
184.762,250.239353422
184.777,250.39090943
184.792,250.541357016
184.807,250.690706031
184.822,250.838966358
184.837,250.986147894
184.852,251.132260546
184.867,251.277314221
184.882,251.421318815
184.897,251.564284215
184.912,251.706220282
184.927,251.84713685
184.942,251.987043721
184.957,252.125950659
184.972,252.263867381
184.987,252.40080356
185.002,252.536768815
185.017,252.671772707
185.032,252.805824741
185.047,252.938934357
185.062,253.07111093
185.077,253.202363768
185.092,253.332702106
185.107,253.462135107
185.122,253.590671859
185.137,253.718321371
185.152,253.845092578
185.167,253.970994329
185.182,254.096035397
185.197,254.220224469
185.212,254.343570151
185.227,254.466080961
185.242,254.587765338
185.257,254.708631627
185.272,254.828688095
185.287,254.947942916
185.302,255.06640418
185.31,255.129261811
185.317,255.18407989
185.332,255.300977961
185.347,255.417106219
185.362,255.532472405
185.377,255.647084174
185.392,255.760949087
185.407,255.874074626
185.422,255.986468182
185.437,256.09813706
185.452,256.209088482
185.467,256.31932958
185.482,256.428867404
185.497,256.537708919
185.512,256.645861004
185.527,256.753330457
185.542,256.860123991
185.557,256.966248241
185.572,257.071709753
185.587,257.176515
185.602,257.28067037
185.617,257.384182172
185.632,257.487056639
185.647,257.589299923
185.662,257.6909181
185.677,257.79191717
185.692,257.892303056
185.707,257.992081608
185.722,258.091258602
185.737,258.189839738
185.752,258.287830648
185.767,258.385236888
185.782,258.482063948
185.797,258.578317244
185.812,258.674002125
185.827,258.769123872
185.842,258.863687701
185.857,258.957698755
185.872,259.051162118
185.887,259.144082806
185.902,259.236465772
185.917,259.328315907
185.932,259.419638037
185.947,259.510436929
185.96,259.5887097
185.962,259.600717289
185.977,259.690483764
185.992,259.779740938
186.007,259.868493345
186.022,259.956745453
186.037,260.044501679
186.052,260.131766384
186.06,260.17810807
186.067,260.21854387
186.082,260.30483839
186.097,260.390654141
186.112,260.475995268
186.127,260.560865863
186.142,260.645269972
186.157,260.729211583
186.172,260.81269464
186.187,260.895723038
186.202,260.97830062
186.217,261.060431186
186.232,261.142118486
186.247,261.223366228
186.262,261.30417807
186.277,261.38455763
186.292,261.464508477
186.307,261.544034143
186.322,261.623138111
186.337,261.701823827
186.352,261.780094694
186.367,261.857954072
186.382,261.935405285
186.397,262.012451615
186.412,262.089096306
186.427,262.165342563
186.442,262.241193555
186.457,262.316652411
186.472,262.391722227
186.487,262.46640606
186.502,262.540706934
186.517,262.614627837
186.532,262.688171721
186.547,262.761341508
186.562,262.834140084
186.577,262.906570303
186.592,262.978634987
186.607,263.050336924
186.622,263.121678875
186.637,263.192663567
186.652,263.263293696
186.667,263.333571932
186.682,263.403500912
186.697,263.473083245
186.71,263.533109531
186.712,263.542321512
186.727,263.611218266
186.742,263.679776031
186.757,263.747997306
186.772,263.815884559
186.787,263.883440237
186.802,263.950666759
186.817,264.017566516
186.832,264.084141875
186.847,264.15039518
186.862,264.216328749
186.877,264.281944876
186.892,264.34724583
186.907,264.412233858
186.922,264.476911184
186.937,264.541280008
186.952,264.605342511
186.967,264.669100847
186.982,264.73255715
186.997,264.795713534
187.012,264.858572091
187.027,264.921134893
187.042,264.983403989
187.057,265.045381408
187.072,265.107069164
187.087,265.168469245
187.102,265.229583623
187.117,265.290414249
187.132,265.350963058
187.147,265.411231961
187.162,265.471222859
187.177,265.530937629
187.192,265.590378128
187.207,265.649546201
187.222,265.708443673
187.237,265.767072353
187.252,265.82543403
187.267,265.883530482
187.282,265.941363463
187.297,265.998934719
187.312,266.056245974
187.327,266.113298937
187.342,266.170095304
187.357,266.226636754
187.372,266.28292495
187.387,266.338961542
187.402,266.394748164
187.417,266.450286433
187.432,266.505577958
187.447,266.560624327
187.46,266.608134096
187.462,266.615427118
187.477,266.669987892
187.492,266.724308201
187.507,266.778389579
187.522,266.832233547
187.537,266.885841613
187.552,266.939215278
187.567,266.99235602
187.582,267.045265311
187.597,267.097944609
187.612,267.150395359
187.627,267.202618992
187.642,267.254616931
187.657,267.306390583
187.672,267.357941347
187.687,267.409270604
187.702,267.460379732
187.717,267.51127009
187.732,267.56194303
187.747,267.612399891
187.762,267.662642001
187.777,267.712670677
187.792,267.762487227
187.807,267.812092946
187.822,267.861489119
187.837,267.91067702
187.852,267.959657915
187.867,268.008433058
187.882,268.057003692
187.897,268.105371051
187.912,268.153536359
187.927,268.20150083
187.942,268.249265669
187.957,268.29683207
187.972,268.34420122
187.987,268.391374294
188.002,268.438352458
188.017,268.485136869
188.032,268.531728677
188.047,268.578129019
188.062,268.624339028
188.077,268.670359822
188.092,268.716192518
188.107,268.761838216
188.122,268.807298012
188.137,268.852572995
188.152,268.897664242
188.167,268.942572823
188.182,268.9872998
188.197,269.031846226
188.21,269.070307893
188.212,269.076213149
188.227,269.120401604
188.242,269.164412623
188.257,269.208247225
188.272,269.251906426
188.287,269.295391233
188.302,269.338702641
188.317,269.381841645
188.332,269.424809229
188.347,269.467606364
188.362,269.510234025
188.377,269.55269317
188.392,269.594984754
188.407,269.637109725
188.422,269.679069023
188.437,269.72086358
188.452,269.762494323
188.467,269.80396217
188.482,269.845268036
188.497,269.886412826
188.512,269.927397437
188.527,269.968222763
188.542,270.00888969
188.557,270.049399096
188.572,270.089751855
188.587,270.129948832
188.602,270.169990888
188.617,270.209878878
188.632,270.249613647
188.647,270.289196037
188.66,270.323378163
188.662,270.328626884
188.677,270.367907016
188.692,270.407037258
188.707,270.446018426
188.722,270.484851332
188.737,270.52353678
188.752,270.56207557
