# 78954 TBPB Grantley Adams Observations at 12Z 10 Aug 2019
Frequency [GHz],TB
175.31,282.434745562
175.322,282.421437336
175.337,282.404765756
175.352,282.388053783
175.367,282.371301353
175.382,282.354508399
175.397,282.337674854
175.412,282.320800648
175.427,282.303885713
175.442,282.286929978
175.457,282.26993337
175.472,282.252895817
175.487,282.235817243
175.502,282.218697575
175.517,282.201536735
175.532,282.184334645
175.547,282.167091226
175.562,282.149806397
175.577,282.132480078
175.592,282.115112185
175.607,282.097702634
175.622,282.08025134
175.637,282.062758215
175.652,282.045223172
175.667,282.02764612
175.682,282.01002697
175.697,281.992365629
175.712,281.974662003
175.727,281.956915996
175.742,281.939127513
175.757,281.921296455
175.772,281.903422723
175.787,281.885506216
175.802,281.867546831
175.817,281.849544463
175.832,281.831499008
175.847,281.813410359
175.862,281.795278406
175.877,281.777103039
175.892,281.758884147
175.907,281.740621614
175.922,281.722315327
175.937,281.703965168
175.952,281.685571018
175.967,281.667132757
175.982,281.648650262
175.997,281.630123411
176.012,281.611552077
176.027,281.592936132
176.042,281.574275448
176.057,281.555569893
176.072,281.536819334
176.087,281.518023635
176.102,281.499182662
176.117,281.480296274
176.132,281.461364331
176.147,281.442386689
176.162,281.423363206
176.177,281.404293733
176.192,281.385178123
176.207,281.366016223
176.222,281.346807883
176.237,281.327552946
176.252,281.308251255
176.267,281.288902652
176.282,281.269506974
176.297,281.250064058
176.31,281.233175193
176.312,281.230573739
176.327,281.211035848
176.342,281.191450215
176.357,281.171816667
176.372,281.152135029
176.387,281.132405124
176.402,281.112626772
176.417,281.092799791
176.432,281.072923997
176.447,281.052999201
176.46,281.035691263
176.462,281.033025216
176.477,281.013001848
176.492,280.992928904
176.507,280.972806185
176.522,280.952633493
176.537,280.932410625
176.552,280.912137376
176.567,280.891813538
176.582,280.8714389
176.597,280.85101325
176.612,280.830536372
176.627,280.810008047
176.642,280.789428053
176.657,280.768796166
176.672,280.748112157
176.687,280.727375798
176.702,280.706586855
176.717,280.685745091
176.732,280.664850267
176.747,280.64390214
176.762,280.622900466
176.777,280.601844994
176.792,280.580735474
176.807,280.559571651
176.822,280.538353265
176.837,280.517080056
176.852,280.495751757
176.867,280.474368102
176.882,280.452928818
176.897,280.431433629
176.912,280.409882258
176.927,280.388274422
176.942,280.366609835
176.957,280.344888207
176.972,280.323109247
176.987,280.301272655
177.002,280.279378133
177.017,280.257425376
177.032,280.235414076
177.047,280.21334392
177.062,280.191214593
177.077,280.169025774
177.092,280.14677714
177.107,280.124468363
177.122,280.102099111
177.137,280.079669046
177.152,280.057177829
177.167,280.034625115
177.182,280.012010555
177.197,279.989333795
177.21,279.969630013
177.212,279.966594476
177.227,279.943792238
177.242,279.920926712
177.257,279.897997527
177.272,279.875004307
177.287,279.851946671
177.302,279.828824234
177.31,279.816465635
177.317,279.805636604
177.332,279.782383386
177.347,279.75906418
177.362,279.73567858
177.377,279.712226177
177.392,279.688706554
177.407,279.66511929
177.422,279.64146396
177.437,279.617740132
177.452,279.593947369
177.467,279.570085229
177.482,279.546153264
177.497,279.522151021
177.512,279.49807804
177.527,279.473933857
177.542,279.449718
177.557,279.425429993
177.572,279.401069354
177.587,279.376635593
177.602,279.352128217
177.617,279.327546722
177.632,279.302890603
177.647,279.278159346
177.66,279.256664409
177.662,279.253352429
177.677,279.228469327
177.692,279.203509506
177.707,279.178472425
177.722,279.153357538
177.737,279.12816429
177.752,279.102892121
177.767,279.077540462
177.782,279.052108738
177.797,279.026596366
177.812,279.001002758
177.827,278.975327314
177.842,278.94956943
177.857,278.923728493
177.872,278.897803883
177.887,278.871794971
177.902,278.845701121
177.917,278.819521688
177.932,278.793256018
177.947,278.766903452
177.96,278.743993753
177.962,278.740463319
177.977,278.71393494
177.992,278.68731763
178.007,278.660610692
178.022,278.633813421
178.037,278.606925104
178.052,278.579945018
178.067,278.55287243
178.082,278.525706599
178.097,278.498446773
178.112,278.471092192
178.127,278.443642084
178.142,278.416095669
178.157,278.388452155
178.172,278.360710741
178.187,278.332870617
178.202,278.304930958
178.217,278.276890934
178.232,278.248749699
178.247,278.220506399
178.262,278.192160167
178.277,278.163710128
178.292,278.135155392
178.307,278.106495058
178.322,278.077728214
178.337,278.048853936
178.352,278.019871289
178.367,277.990779322
178.382,277.961577075
178.397,277.932263573
178.41,277.906767785
178.412,277.902837831
178.427,277.873298849
178.442,277.843645613
178.457,277.813877097
178.472,277.783992261
178.487,277.75399005
178.502,277.723869399
178.517,277.693629223
178.532,277.663268427
178.547,277.632785899
178.562,277.602180514
178.577,277.571451131
178.592,277.540596593
178.607,277.509615729
178.622,277.478507351
178.637,277.447270255
178.652,277.415903223
178.667,277.384405018
178.682,277.352774388
178.697,277.321010063
178.712,277.289110757
178.727,277.257075165
178.742,277.224901967
178.757,277.192589822
178.772,277.160137373
178.787,277.127543244
178.802,277.09480604
178.817,277.061924348
178.832,277.028896734
178.847,276.995721747
178.862,276.962397914
178.877,276.928923743
178.892,276.895297721
178.907,276.861518316
178.922,276.827583972
178.937,276.793493115
178.952,276.759244147
178.967,276.72483545
178.982,276.690265382
178.997,276.655532279
179.012,276.620634456
179.027,276.585570202
179.042,276.550337783
179.057,276.514935444
179.072,276.479361402
179.087,276.443613852
179.102,276.407690962
179.117,276.371590876
179.132,276.335311713
179.147,276.298851565
179.16,276.267104878
179.162,276.262208497
179.177,276.225380548
179.192,276.18836573
179.207,276.151162027
179.222,276.113767395
179.237,276.076179762
179.252,276.038397026
179.267,276.000417059
179.282,275.962237699
179.297,275.923856756
179.312,275.885272011
179.327,275.846481212
179.342,275.807482075
179.357,275.768272286
179.372,275.728849499
179.387,275.689211333
179.402,275.649355375
179.417,275.609279179
179.432,275.568980264
179.447,275.528456114
179.462,275.487704178
179.477,275.446721871
179.492,275.405506568
179.507,275.364055611
179.522,275.322366302
179.537,275.280435909
179.552,275.238261657
179.567,275.195840735
179.582,275.153170292
179.597,275.110247437
179.612,275.067069238
179.627,275.023632723
179.642,274.979934877
179.657,274.935972644
179.672,274.891742923
179.687,274.847242573
179.702,274.802468406
179.717,274.757417189
179.732,274.712085647
179.747,274.666470455
179.762,274.620568244
179.777,274.574375598
179.792,274.52788905
179.807,274.481105089
179.822,274.43402015
179.837,274.386630622
179.852,274.338932841
179.867,274.290923093
179.882,274.242597612
179.897,274.193952578
179.91,274.151532073
179.912,274.144984118
179.927,274.095688306
179.942,274.04606116
179.957,273.996098644
179.972,273.945796663
179.987,273.895151067
180.002,273.844157647
180.017,273.792812136
180.032,273.741110208
180.047,273.689047476
180.062,273.636619492
180.077,273.583821746
180.092,273.530649666
180.107,273.477098618
180.122,273.4231639
180.137,273.368840749
180.152,273.314124334
180.167,273.259009757
180.182,273.203492054
180.197,273.147566191
180.212,273.091227066
180.227,273.034469506
180.242,272.977288267
180.257,272.919678036
180.272,272.861633422
180.287,272.803148965
180.302,272.744219129
180.317,272.684838301
180.332,272.625000795
180.347,272.564700846
180.362,272.50393261
180.377,272.442690167
180.392,272.380967514
180.407,272.31875857
180.422,272.256057171
180.437,272.192857071
180.452,272.12915194
180.467,272.064935364
180.482,272.000200845
180.497,271.934941797
180.512,271.869151549
180.527,271.802823342
180.542,271.735950326
180.557,271.668525565
180.56,271.654973787
180.572,271.600542031
180.587,271.531992603
180.602,271.462870072
180.617,271.393167133
180.632,271.322876388
180.647,271.251990346
180.66,271.190068385
180.662,271.180501419
180.677,271.108401925
180.692,271.035684082
180.707,270.962340015
180.722,270.888361747
180.737,270.813741206
180.752,270.738470216
180.767,270.662540505
180.782,270.585943699
180.797,270.508671323
180.812,270.430714799
180.827,270.352065449
180.842,270.272714491
180.857,270.192653041
180.872,270.11187211
180.887,270.030362607
180.902,269.948115337
180.917,269.865121
180.932,269.781370193
180.947,269.696853408
180.962,269.611561032
180.977,269.525483349
180.992,269.438610538
181.007,269.350932675
181.022,269.262439733
181.037,269.173121579
181.052,269.08296798
181.067,268.991968599
181.082,268.900112999
181.097,268.807390641
181.112,268.713790887
181.127,268.619303
181.142,268.523916145
181.157,268.427619389
181.172,268.330401707
181.187,268.232251979
181.202,268.133158991
181.217,268.033111442
181.232,267.932097941
181.247,267.830107011
181.262,267.727127093
181.277,267.623146544
181.292,267.518153646
181.307,267.412136602
181.31,267.390809252
181.322,267.305083544
181.337,267.196982536
181.352,267.087821574
181.367,266.977588594
181.382,266.866271473
181.397,266.753858035
181.412,266.640336054
181.427,266.525693261
181.442,266.409917347
181.457,266.292995968
181.472,266.174916754
181.487,266.05566731
181.502,265.935235226
181.517,265.813608081
181.532,265.690773454
181.547,265.566718926
181.562,265.44143209
181.577,265.31490056
181.592,265.187111976
181.607,265.058054016
181.622,264.927714403
181.637,264.796080916
181.652,264.663141396
181.667,264.528883761
181.682,264.393296013
181.697,264.256366251
181.712,264.118082678
181.727,263.978433618
181.742,263.837407526
181.757,263.694993
181.772,263.55117879
181.787,263.405953819
181.802,263.25930719
181.817,263.111228201
181.832,262.96170636
181.847,262.8107314
181.862,262.65829329
181.877,262.504382255
181.892,262.348988784
181.907,262.192103651
181.922,262.03371793
181.937,261.873823005
181.952,261.712410591
181.967,261.549472744
181.982,261.385001882
181.997,261.218990792
182.012,261.051432654
182.027,260.882321045
182.042,260.71164996
182.057,260.539413823
182.06,260.504778329
182.072,260.365607495
182.087,260.190226291
182.102,260.013265986
182.117,259.834722826
182.132,259.654593533
182.147,259.472875311
182.162,259.289565852
182.177,259.104663333
182.192,258.918166415
182.207,258.730074243
182.222,258.540386432
182.237,258.349103057
182.252,258.15622464
182.267,257.961752126
182.282,257.765686855
182.297,257.568030533
182.312,257.368785191
182.327,257.167953134
182.342,256.96553689
182.357,256.761539142
182.372,256.555962649
182.387,256.348810157
182.402,256.140084296
182.417,255.929787458
182.432,255.717921663
182.447,255.504488397
182.462,255.289488434
182.477,255.072921628
182.492,254.854786679
182.507,254.63508086
182.522,254.413799717
182.537,254.190936712
182.552,253.966482831
182.567,253.740426126
182.582,253.5127512
182.597,253.283438616
182.612,253.052464221
182.627,252.81979838
182.642,252.585405091
182.657,252.349240981
182.672,252.111254146
182.687,251.871382832
182.702,251.629553903
182.717,251.385681093
182.732,251.139662982
182.747,250.891380662
182.762,250.640695031
182.777,250.38744367
182.792,250.131437201
182.807,249.87245506
182.822,249.610240566
182.837,249.344495159
182.852,249.074871652
182.867,248.800966313
182.882,248.522309558
182.897,248.238354968
182.912,247.948466325
182.927,247.651902246
182.942,247.347797967
182.957,247.035143658
182.972,246.712758606
182.987,246.379260394
183.002,246.0330281
183.017,245.67215831
183.032,245.294412611
183.047,244.897155052
183.062,244.477278051
183.077,244.031115417
183.092,243.554341921
183.107,243.041860617
183.122,242.48768298
183.137,241.884814782
183.152,241.225176037
183.167,240.499613228
183.182,239.698119085
183.197,238.810483146
183.212,237.827799027
183.227,236.745631459
183.242,235.57033606
183.257,234.331196001
183.367,234.625334488
183.382,235.84671871
183.397,236.993811629
183.412,238.044797369
183.427,238.996919442
183.442,239.85617252
183.457,240.631989341
183.472,241.334606864
183.487,241.973835735
183.502,242.558549969
183.517,243.096535675
183.532,243.594510109
183.547,244.058214099
183.562,244.492529223
183.577,244.901596392
183.592,245.28892545
183.607,245.657492009
183.622,246.009820871
183.637,246.348056918
183.652,246.674024831
183.667,246.989279204
183.682,247.295146504
183.697,247.592760186
183.712,247.883090101
183.727,248.166967147
183.742,248.445103975
183.757,248.718112401
183.772,248.986518096
183.787,249.25077299
183.802,249.511265778
183.817,249.768330846
183.832,250.022255849
183.847,250.273288184
183.862,250.521640516
183.877,250.767495513
183.892,251.011009902
183.907,251.252317968
183.922,251.491534554
183.937,251.728757664
183.952,251.964070706
183.967,252.197544437
183.982,252.429238648
183.997,252.659203637
184.012,252.887481476
184.027,253.114107132
184.042,253.33910943
184.057,253.562511905
184.072,253.784333545
184.087,254.004589435
184.102,254.223291329
184.117,254.440448148
184.132,254.656066416
184.147,254.870150646
184.162,255.082703672
184.177,255.29372695
184.192,255.503220813
184.207,255.711184699
184.222,255.917617352
184.237,256.122516992
184.252,256.325881471
184.267,256.527708403
184.282,256.727995282
184.297,256.92673958
184.312,257.123938835
184.327,257.319590724
184.342,257.513693129
184.357,257.706244189
184.372,257.897242348
184.387,258.086686394
184.402,258.274575486
184.417,258.460909187
184.432,258.645687479
184.447,258.828910778
184.462,259.010579953
184.477,259.190696324
184.492,259.369261677
184.507,259.546278255
184.522,259.721748769
184.537,259.895676383
184.552,260.06806472
184.56,260.159377159
184.567,260.238917847
184.582,260.408240273
184.597,260.576036936
184.612,260.742313194
184.627,260.907074814
184.642,261.070327959
184.657,261.232079176
184.672,261.392335382
184.687,261.551103852
184.702,261.708392203
184.717,261.864208381
184.732,262.018560647
184.747,262.171457562
184.762,262.322907972
184.777,262.472920994
184.792,262.621506003
184.807,262.768672618
184.822,262.914430684
184.837,263.058790263
184.852,263.20176162
184.867,263.343355204
184.882,263.483581645
184.897,263.622451731
184.912,263.759976402
184.927,263.896166736
184.942,264.031033939
184.957,264.164589329
184.972,264.296844331
184.987,264.427810462
185.002,264.557499322
185.017,264.685922583
185.032,264.813091982
185.047,264.939019311
185.062,265.063716404
185.077,265.187195134
185.092,265.309467403
185.107,265.430545131
185.122,265.550440253
185.137,265.66916471
185.152,265.786730439
185.167,265.903149374
185.182,266.018433431
185.197,266.132594507
185.212,266.245644474
185.227,266.357595173
185.242,266.468458408
185.257,266.578245943
185.272,266.686969495
185.287,266.794640731
185.302,266.901271266
185.31,266.957719346
185.317,267.006872655
185.332,267.111456392
185.347,267.215033905
185.362,267.317616556
185.377,267.419215634
185.392,267.519842354
185.407,267.619507854
185.422,267.718223195
185.437,267.815999354
185.452,267.912847225
185.467,268.00877762
185.482,268.103801258
185.497,268.197928773
185.512,268.291170709
185.527,268.383537517
185.542,268.475039554
185.557,268.565687085
185.572,268.65549028
185.587,268.744459211
185.602,268.832603856
185.617,268.919934095
185.632,269.006459708
185.647,269.092190379
185.662,269.177135693
185.677,269.261305135
185.692,269.344708091
185.707,269.427353849
185.722,269.509251595
185.737,269.590410417
185.752,269.670839304
185.767,269.750547144
185.782,269.829542728
185.797,269.907834745
185.812,269.985431789
185.827,270.062342352
185.842,270.13857483
185.857,270.214137522
185.872,270.289038627
185.887,270.36328625
185.902,270.4368884
185.917,270.509852987
185.932,270.582187829
185.947,270.653900649
185.96,270.715554511
185.962,270.724999075
185.977,270.795490643
185.992,270.865382796
186.007,270.934682885
186.022,271.00339817
186.037,271.071535821
186.052,271.139102917
186.06,271.174907826
186.067,271.20610645
186.082,271.272553322
186.097,271.33845035
186.112,271.403804262
186.127,271.468621702
186.142,271.532909229
186.157,271.596673315
186.172,271.659920354
186.187,271.722656653
186.202,271.78488844
186.217,271.84662186
186.232,271.907862981
186.247,271.96861779
186.262,272.028892195
186.277,272.08869203
186.292,272.148023049
186.307,272.206890932
186.322,272.265301284
186.337,272.323259635
186.352,272.380771444
186.367,272.437842097
186.382,272.494476908
186.397,272.550681119
186.412,272.606459906
186.427,272.661818373
186.442,272.716761557
186.457,272.771294427
186.472,272.825421888
186.487,272.879148776
186.502,272.932479865
186.517,272.985419863
186.532,273.037973415
186.547,273.090145105
186.562,273.141939455
186.577,273.193360926
186.592,273.244413916
186.607,273.29510277
186.622,273.345431767
186.637,273.395405135
186.652,273.445027041
186.667,273.494301596
186.682,273.543232856
186.697,273.591824823
186.71,273.633666463
186.712,273.640081444
186.727,273.688006612
186.742,273.735604169
186.757,273.782877903
186.772,273.829831551
186.787,273.876468802
186.802,273.922793291
186.817,273.968808608
186.832,274.01451829
186.847,274.059925829
186.862,274.105034668
186.877,274.149848206
186.892,274.194369792
186.907,274.238602733
186.922,274.282550289
186.937,274.326215677
186.952,274.36960207
186.967,274.412712598
186.982,274.455550348
186.997,274.498118367
187.012,274.540419658
187.027,274.582457186
187.042,274.624233874
187.057,274.665752607
187.072,274.707016229
187.087,274.748027546
187.102,274.788789328
187.117,274.829304307
187.132,274.869575175
187.147,274.90960459
187.162,274.949395176
187.177,274.988949518
187.192,275.028270169
187.207,275.067359644
187.222,275.106220429
187.237,275.144854972
187.252,275.183265691
187.267,275.22145497
187.282,275.259425161
187.297,275.297178585
187.312,275.334717531
187.327,275.372044259
187.342,275.409160997
187.357,275.446069943
187.372,275.482773267
187.387,275.519273108
187.402,275.555571578
187.417,275.591670761
187.432,275.627572711
187.447,275.663279457
187.46,275.694068953
187.462,275.698793
187.477,275.734115314
187.492,275.769248346
187.507,275.804194019
187.522,275.83895423
187.537,275.873530849
187.552,275.907925723
187.567,275.942140674
187.582,275.976177499
187.597,276.010037974
187.612,276.043723848
187.627,276.077236848
187.642,276.11057868
187.657,276.143751025
187.672,276.176755544
187.687,276.209593875
187.702,276.242267633
187.717,276.274778416
187.732,276.307127796
187.747,276.339317328
187.762,276.371348546
187.777,276.403222962
187.792,276.43494207
187.807,276.466507345
187.822,276.497920241
187.837,276.529182195
187.852,276.560294624
187.867,276.591258926
187.882,276.622076482
187.897,276.652748656
187.912,276.683276793
187.927,276.713662219
187.942,276.743906247
187.957,276.77401017
187.972,276.803975265
187.987,276.833802792
188.002,276.863493997
188.017,276.893050108
188.032,276.922472337
188.047,276.951761883
188.062,276.980919927
188.077,277.009947635
188.092,277.038846161
188.107,277.067616641
188.122,277.096260198
188.137,277.124777942
188.152,277.153170966
188.167,277.181440352
188.182,277.209587167
188.197,277.237612464
188.21,277.261803565
188.212,277.265517284
188.227,277.293302654
188.242,277.320969589
188.257,277.34851909
188.272,277.375952146
188.287,277.403269735
188.302,277.430472821
188.317,277.457562356
188.332,277.484539281
188.347,277.511404525
188.362,277.538159006
188.377,277.564803629
188.392,277.59133929
188.407,277.617766873
188.422,277.64408725
188.437,277.670301284
188.452,277.696409826
188.467,277.722413718
188.482,277.74831379
188.497,277.774110862
188.512,277.799805747
188.527,277.825399244
188.542,277.850892145
188.557,277.87628523
188.572,277.901579273
188.587,277.926775035
188.602,277.95187327
188.617,277.976874722
188.632,278.001780128
188.647,278.026590212
188.66,278.048015736
188.662,278.051305693
188.677,278.07592728
188.692,278.100455674
188.707,278.124891567
188.722,278.149235643
188.737,278.173488579
