# 48698 WSSS Singapore Observations at 12Z 10 Aug 2019
Frequency [GHz],TB
175.31,278.646441229
175.322,278.626498447
175.337,278.601503955
175.352,278.576435801
175.367,278.551293704
175.382,278.52607732
175.397,278.50078629
175.412,278.475420354
175.427,278.449979144
175.442,278.424462346
175.457,278.398869594
175.472,278.373200595
175.487,278.347454993
175.502,278.321632452
175.517,278.295732621
175.532,278.269755164
175.547,278.243699725
175.562,278.217565971
175.577,278.191353532
175.592,278.165062055
175.607,278.138691194
175.622,278.112240584
175.637,278.085709854
175.652,278.059098649
175.667,278.032406592
175.682,278.005633325
175.697,277.97877846
175.712,277.951841657
175.727,277.924822494
175.742,277.897720629
175.757,277.87053564
175.772,277.843267162
175.787,277.815914809
175.802,277.788478189
175.817,277.760956907
175.832,277.733350578
175.847,277.705658767
175.862,277.677881107
175.877,277.65001716
175.892,277.622066569
175.907,277.594028868
175.922,277.565903676
175.937,277.537690558
175.952,277.509389117
175.967,277.480998914
175.982,277.452519541
175.997,277.423950542
176.012,277.395291513
176.027,277.366541986
176.042,277.337701566
176.057,277.308769782
176.072,277.279746203
176.087,277.250630381
176.102,277.221421862
176.117,277.192120195
176.132,277.162724945
176.147,277.133235605
176.162,277.103651757
176.177,277.073972932
176.192,277.044198658
176.207,277.014328442
176.222,276.984361817
176.237,276.954298319
176.252,276.924137473
176.267,276.893878749
176.282,276.863521716
176.297,276.833065862
176.31,276.806590437
176.312,276.802510677
176.327,276.771855651
176.342,276.741100327
176.357,276.710244192
176.372,276.679286691
176.387,276.648227363
176.402,276.617065679
176.417,276.58580111
176.432,276.554433131
176.447,276.522961231
176.46,276.495601105
176.462,276.491384865
176.477,276.459703497
176.492,276.42791663
176.507,276.396023667
176.522,276.364024106
176.537,276.331917386
176.552,276.299702943
176.567,276.267380229
176.582,276.234948676
176.597,276.202407768
176.612,276.169756879
176.627,276.13699547
176.642,276.104122941
176.657,276.071138769
176.672,276.038042302
176.687,276.004833004
176.702,275.971510256
176.717,275.938073485
176.732,275.904522091
176.747,275.870855452
176.762,275.837072952
176.777,275.803174025
176.792,275.769158054
176.807,275.735024367
176.822,275.700772392
176.837,275.666401501
176.852,275.63191101
176.867,275.597300359
176.882,275.562568855
176.897,275.527715872
176.912,275.492740763
176.927,275.457642884
176.942,275.422421569
176.957,275.387076134
176.972,275.35160596
176.987,275.316010345
177.002,275.280288642
177.017,275.244440123
177.032,275.20846416
177.047,275.172360037
177.062,275.136127062
177.077,275.099764545
177.092,275.063271773
177.107,275.026648064
177.122,274.989892679
177.137,274.953004915
177.152,274.915984073
177.167,274.87882939
177.182,274.84154018
177.197,274.80411566
177.21,274.771571073
177.212,274.766555111
177.227,274.728857805
177.242,274.691022979
177.257,274.653049877
177.272,274.614937741
177.287,274.57668581
177.302,274.538293314
177.31,274.517759581
177.317,274.499759473
177.332,274.461083544
177.347,274.42226468
177.362,274.383302144
177.377,274.34419512
177.392,274.304942806
177.407,274.265544416
177.422,274.225999104
177.437,274.186306101
177.452,274.146464565
177.467,274.106473643
177.482,274.066332547
177.497,274.02604042
177.512,273.985596422
177.527,273.944999714
177.542,273.904249433
177.557,273.863344713
177.572,273.82228471
177.587,273.781068518
177.602,273.739695322
177.617,273.69816417
177.632,273.656474235
177.647,273.614624604
177.66,273.578225035
177.662,273.572614349
177.677,273.530442611
177.692,273.488108455
177.707,273.445610967
177.722,273.402949232
177.737,273.360122312
177.752,273.317129304
177.767,273.273969211
177.782,273.230641124
177.797,273.187144114
177.812,273.14347717
177.827,273.099639357
177.842,273.055629715
177.857,273.01144722
177.872,272.967090953
177.887,272.922559874
177.902,272.877853017
177.917,272.832969359
177.932,272.787907904
177.947,272.742667632
177.96,272.70331396
177.962,272.697247525
177.977,272.651646553
177.992,272.605863676
178.007,272.559897843
178.022,272.513748026
178.037,272.46741318
178.052,272.4208922
178.067,272.374184039
178.082,272.327287641
178.097,272.280201903
178.112,272.23292572
178.127,272.185458036
178.142,272.137797705
178.157,272.089943635
178.172,272.041894703
178.187,271.9936498
178.202,271.945207778
178.217,271.89656749
178.232,271.847727791
178.247,271.798687543
178.262,271.749445578
178.277,271.700000713
178.292,271.650351768
178.307,271.600497592
178.322,271.550436946
178.337,271.500168641
178.352,271.449691507
178.367,271.399004271
178.382,271.348105735
178.397,271.296994685
178.41,271.252525547
178.412,271.245669848
178.427,271.194129973
178.442,271.142373846
178.457,271.090400148
178.472,271.038207661
178.487,270.985795064
178.502,270.933161052
178.517,270.880304388
178.532,270.827223723
178.547,270.773917724
178.562,270.7203851
178.577,270.666624516
178.592,270.612634596
178.607,270.558414048
178.622,270.503961442
178.637,270.449275467
178.652,270.394354712
178.667,270.339197801
178.682,270.283803344
178.697,270.22816993
178.712,270.172296125
178.727,270.116180536
178.742,270.059821711
178.757,270.003218175
178.772,269.946368546
178.787,269.88927132
178.802,269.831925012
178.817,269.774328159
178.832,269.716479257
178.847,269.658376807
178.862,269.600019289
178.877,269.541405204
178.892,269.48253298
178.907,269.42340109
178.922,269.364007984
178.937,269.304352092
178.952,269.24443185
178.967,269.184245621
178.982,269.12379187
178.997,269.063068947
179.012,269.002075249
179.027,268.940809129
179.042,268.879268955
179.057,268.817453063
179.072,268.755359792
179.087,268.692987474
179.102,268.63033438
179.117,268.567398858
179.132,268.50417917
179.147,268.440673578
179.16,268.385402789
179.162,268.376880365
179.177,268.312797752
179.192,268.248424016
179.207,268.183757322
179.222,268.118795954
179.237,268.053538048
179.252,267.987981812
179.267,267.922125444
179.282,267.855967066
179.297,267.789504819
179.312,267.72273685
179.327,267.655661269
179.342,267.588276203
179.357,267.52057972
179.372,267.452569898
179.387,267.384244793
179.402,267.31560247
179.417,267.24664093
179.432,267.177358245
179.447,267.107752342
179.462,267.037821282
179.477,266.967562994
179.492,266.896975437
179.507,266.826056576
179.522,266.754804278
179.537,266.683216544
179.552,266.61129118
179.567,266.539026107
179.582,266.466419186
179.597,266.393468234
179.612,266.32017111
179.627,266.246525603
179.642,266.172529505
179.657,266.098180584
179.672,266.023476598
179.687,265.948415308
179.702,265.872994446
179.717,265.797211647
179.732,265.721064659
179.747,265.644551105
179.762,265.567668631
179.777,265.490414939
179.792,265.412787515
179.807,265.334784017
179.822,265.256402004
179.837,265.177639015
179.852,265.098492583
179.867,265.018960206
179.882,264.939039345
179.897,264.858727491
179.91,264.788805633
179.912,264.778022083
179.927,264.696920509
179.942,264.615420198
179.957,264.533518507
179.972,264.451212782
179.987,264.368500349
180.002,264.285378534
180.017,264.201844563
180.032,264.117895741
180.047,264.033529269
180.062,263.948742364
180.077,263.863532176
180.092,263.777895888
180.107,263.691830618
180.122,263.605333484
180.137,263.518401511
180.152,263.43103176
180.167,263.343221284
180.182,263.254967033
180.197,263.166265958
180.212,263.07711503
180.227,262.987511132
180.242,262.897451111
180.257,262.806931826
180.272,262.715950079
180.287,262.62450266
180.302,262.532586274
180.317,262.440197675
180.332,262.347333516
180.347,262.253990469
180.362,262.160165084
180.377,262.065853994
180.392,261.971053692
180.407,261.875760693
180.422,261.779971476
180.437,261.68368244
180.452,261.586889974
180.467,261.48959044
180.482,261.391780146
180.497,261.293455341
180.512,261.194612246
180.527,261.095247071
180.542,260.995355921
180.557,260.89493489
180.56,260.874786757
180.572,260.79398005
180.587,260.69248739
180.602,260.590452877
180.617,260.487872385
180.632,260.384741832
180.647,260.281056986
180.66,260.190745129
180.662,260.1768136
180.677,260.072007371
180.692,259.966634004
180.707,259.860689067
180.722,259.754168085
180.737,259.647066581
180.752,259.539379977
180.767,259.431103632
180.782,259.322232861
180.797,259.21276292
180.812,259.102689002
180.827,258.99200623
180.842,258.880709656
180.857,258.768794271
180.872,258.656255025
180.887,258.543086757
180.902,258.429284253
180.917,258.31484224
180.932,258.199755331
180.947,258.084018116
180.962,257.96762508
180.977,257.850570632
180.992,257.732849125
181.007,257.614454764
181.022,257.49538177
181.037,257.375624174
181.052,257.255176017
181.067,257.134031192
181.082,257.012183528
181.097,256.889626775
181.112,256.766354554
181.127,256.642360392
181.142,256.517637794
181.157,256.392180079
181.172,256.26598051
181.187,256.139032247
181.202,256.011328368
181.217,255.882861832
181.232,255.753625475
181.247,255.623612057
181.262,255.492814216
181.277,255.361224538
181.292,255.228835413
181.307,255.095639182
181.31,255.068902403
181.322,254.961628076
181.337,254.826794185
181.352,254.691129559
181.367,254.554626047
181.382,254.417275472
181.397,254.279069507
181.412,254.139999728
181.427,254.000057599
181.442,253.859234498
181.457,253.717521671
181.472,253.574910283
181.487,253.431391407
181.502,253.286956005
181.517,253.141594945
181.532,252.995299004
181.547,252.848058915
181.562,252.699865254
181.577,252.550708572
181.592,252.400579341
181.607,252.249467981
181.622,252.097364795
181.637,251.944260131
181.652,251.79014421
181.667,251.635007282
181.682,251.478839551
181.697,251.321631149
181.712,251.163372319
181.727,251.004053233
181.742,250.843664148
181.757,250.682195298
181.772,250.519637029
181.787,250.355979733
181.802,250.191213903
181.817,250.025330144
181.832,249.858319198
181.847,249.69017194
181.862,249.520879479
181.877,249.350433018
181.892,249.178824158
181.907,249.006044587
181.922,248.832086422
181.937,248.656942
181.952,248.480604101
181.967,248.303065826
181.982,248.124320762
181.997,247.944362897
182.012,247.763186812
182.027,247.580787578
182.042,247.397160913
182.057,247.212303151
182.06,247.175183607
182.072,247.026211327
182.087,246.838883249
182.102,246.650317524
182.117,246.460513587
182.132,246.269471835
182.147,246.077193632
182.162,245.883681379
182.177,245.688938619
182.192,245.492970028
182.207,245.295781576
182.222,245.097380498
182.237,244.897775481
182.252,244.696976674
182.267,244.494995755
182.282,244.291846035
182.297,244.087542584
182.312,243.882102191
182.327,243.675543598
182.342,243.467887513
182.357,243.259156681
182.372,243.049376009
182.387,242.83857267
182.402,242.626776163
182.417,242.414018408
182.432,242.2003339
182.447,241.985759752
182.462,241.770335795
182.477,241.5541047
182.492,241.33711208
182.507,241.119406591
182.522,240.901040016
182.537,240.682067362
182.552,240.462547025
182.567,240.242540861
182.582,240.022114245
182.597,239.801336239
182.612,239.580279689
182.627,239.359021305
182.642,239.137641769
182.657,238.916225878
182.672,238.694862593
182.687,238.473645189
182.702,238.252671274
182.717,238.032042951
182.732,237.81186687
182.747,237.592254265
182.762,237.373321007
182.777,237.155187717
182.792,236.937979615
182.807,236.721826604
182.822,236.506863182
182.837,236.293228211
182.852,236.081064829
182.867,235.870520054
182.882,235.661744376
182.897,235.454891212
182.912,235.250116148
182.927,235.047575826
182.942,234.847426727
182.957,234.649823381
182.972,234.454916111
182.987,234.262848107
183.002,234.073751613
183.017,233.887743025
183.032,233.704916345
183.047,233.525334744
183.062,233.349019488
183.077,233.175935121
183.092,233.00597008
183.107,232.838910704
183.122,232.674406787
183.137,232.511925833
183.152,232.350692951
183.167,232.189613791
183.182,232.027181006
183.197,231.861374962
183.212,231.689599222
183.227,231.508772793
183.242,231.31591411
183.257,231.110071057
183.367,231.148248165
183.382,231.347074421
183.397,231.532779988
183.412,231.707142144
183.427,231.873271743
183.442,232.034151526
183.457,232.19222914
183.472,232.349384129
183.487,232.507008222
183.502,232.66610519
183.517,232.827380636
183.532,232.991314554
183.547,233.158217592
183.562,233.328273564
183.577,233.501571588
183.592,233.678130246
183.607,233.857915564
183.622,234.040854938
183.637,234.226847355
183.652,234.415771375
183.667,234.607491129
183.682,234.801861036
183.697,234.99872925
183.712,235.197940503
183.727,235.399338117
183.742,235.602765725
183.757,235.808068423
183.772,236.015093779
183.787,236.223692486
183.802,236.433718898
183.817,236.645031528
183.832,236.857493076
183.847,237.070970911
183.862,237.285336956
183.877,237.50046782
183.892,237.716244893
183.907,237.93255421
183.922,238.149286483
183.937,238.366337029
183.952,238.583605682
183.967,238.800996712
183.982,239.018418734
183.997,239.235784635
184.012,239.453011389
184.027,239.670020109
184.042,239.886735707
184.057,240.103087001
184.072,240.319006524
184.087,240.53443038
184.102,240.749298172
184.117,240.963552885
184.132,241.177140834
184.147,241.390011443
184.162,241.602117251
184.177,241.813413765
184.192,242.023859303
184.207,242.233415052
184.222,242.442044781
184.237,242.649714822
184.252,242.856394032
184.267,243.062053601
184.282,243.266667013
184.297,243.470209971
184.312,243.672660213
184.327,243.873997555
184.342,244.074203655
184.357,244.273262087
184.372,244.471158119
184.387,244.667878729
184.402,244.863412466
184.417,245.057749371
184.432,245.250880953
184.447,245.442800071
184.462,245.633500879
184.477,245.822978707
184.492,246.011230113
184.507,246.198252676
184.522,246.384045033
184.537,246.56860677
184.552,246.751938383
184.56,246.849212663
184.567,246.934041175
184.582,247.114917308
184.597,247.294569606
184.612,247.473001682
184.627,247.650217665
184.642,247.826222362
184.657,248.001021095
184.672,248.174619712
184.687,248.347024519
184.702,248.518242225
184.717,248.688279966
184.732,248.85714522
184.747,249.024845796
184.762,249.191389759
184.777,249.356785505
184.792,249.521041592
184.807,249.684166841
184.822,249.846170207
184.837,250.007060852
184.852,250.166848071
184.867,250.325541241
184.882,250.483149848
184.897,250.639683501
184.912,250.79515183
184.927,250.949564502
184.942,251.102931271
184.957,251.255261853
184.972,251.406565996
184.987,251.55685344
185.002,251.706133934
185.017,251.85441715
185.032,252.001712757
185.047,252.1480304
185.062,252.293379614
185.077,252.437769913
185.092,252.581210781
185.107,252.723711551
185.122,252.865281538
185.137,253.005929964
185.152,253.145665974
185.167,253.284498585
185.182,253.422436772
185.197,253.559489418
185.212,253.695665248
185.227,253.83097296
185.242,253.965421088
185.257,254.099018109
185.272,254.231772398
185.287,254.363692167
185.302,254.494785636
185.31,254.564367044
185.317,254.625060782
185.332,254.754525567
185.347,254.88318783
185.362,255.011055308
185.377,255.138135619
185.392,255.264436237
185.407,255.389964663
185.422,255.514728151
185.437,255.638733905
185.452,255.76198906
185.467,255.884500589
185.482,256.006275427
185.497,256.127320391
185.512,256.247642147
185.527,256.367247334
185.542,256.486142505
185.557,256.604334027
185.572,256.721828272
185.587,256.838631486
185.602,256.954749794
185.617,257.070189285
185.632,257.184955941
185.647,257.299055651
185.662,257.412494249
185.677,257.525277426
185.692,257.63741087
185.707,257.748900144
185.722,257.859750704
185.737,257.96996804
185.752,258.079557427
185.767,258.18852418
185.782,258.296873468
185.797,258.404610454
185.812,258.511740161
185.827,258.618267594
185.842,258.724197694
185.857,258.829535304
185.872,258.934285228
185.887,259.038452189
185.902,259.142040861
185.917,259.245055877
185.932,259.347501761
185.947,259.449383037
185.96,259.537226854
185.962,259.550704128
185.977,259.651469423
185.992,259.751683248
186.007,259.851349885
186.022,259.950473561
186.037,260.049058422
186.052,260.14710862
186.06,260.19918486
186.067,260.244628223
186.082,260.341621269
186.097,260.438091702
186.112,260.534043479
186.127,260.629480475
186.142,260.724406533
186.157,260.818825473
186.172,260.912741011
186.187,261.006156867
186.202,261.099076762
186.217,261.191504249
186.232,261.283442973
186.247,261.374896472
186.262,261.465868237
186.277,261.556361764
186.292,261.646380491
186.307,261.735927818
186.322,261.825007109
186.337,261.913621684
186.352,262.001774847
186.367,262.089469858
186.382,262.176709954
186.397,262.263498314
186.412,262.349838111
186.427,262.435732458
186.442,262.521184493
186.457,262.60619723
186.472,262.690773766
186.487,262.774917075
186.502,262.858630121
186.517,262.941915904
186.532,263.024777311
186.547,263.107217244
186.562,263.189238569
186.577,263.270844128
186.592,263.352036727
186.607,263.432819158
186.622,263.513194175
186.637,263.593164522
186.652,263.672732894
186.667,263.751902006
186.682,263.830674498
186.697,263.909052992
186.71,263.976664352
186.712,263.987040113
186.727,264.064638461
186.742,264.141850605
186.757,264.218679051
186.772,264.295126364
186.787,264.371195015
186.802,264.446887493
186.817,264.522206248
186.832,264.597153706
186.847,264.671732307
186.862,264.745944414
186.877,264.819792399
186.892,264.893278621
186.907,264.966405434
186.922,265.039175102
186.937,265.111589953
186.952,265.18365225
186.967,265.255364254
186.982,265.326728201
186.997,265.397746283
187.012,265.468420717
187.027,265.538753677
187.042,265.60874733
187.057,265.678403834
187.072,265.747725283
187.087,265.816713816
187.102,265.885371527
187.117,265.953700459
187.132,266.021702708
187.147,266.089380293
187.162,266.156735266
187.177,266.223769613
187.192,266.29048533
187.207,266.356884421
187.222,266.422968839
187.237,266.488740516
187.252,266.554201404
187.267,266.619353387
187.282,266.684198421
187.297,266.748738364
187.312,266.812975084
187.327,266.876910465
187.342,266.940546321
187.357,267.003884518
187.372,267.066926854
187.387,267.12967512
187.402,267.192131148
187.417,267.254296667
187.432,267.31617347
187.447,267.377763276
187.46,267.430910338
187.462,267.439067867
187.477,267.500088927
187.492,267.560828197
187.507,267.621287364
187.522,267.681468093
187.537,267.741372078
187.552,267.801000984
187.567,267.860356466
187.582,267.919440128
187.597,267.978253626
187.612,268.036798565
187.627,268.09507652
187.642,268.153089123
187.657,268.210837939
187.672,268.268324516
187.687,268.325550418
187.702,268.382517208
187.717,268.439226395
187.732,268.495679513
187.747,268.551878075
187.762,268.607823576
187.777,268.663517493
187.792,268.718961344
187.807,268.774156555
187.822,268.829104608
187.837,268.883806946
187.852,268.938265004
187.867,268.992480222
187.882,269.046454
187.897,269.100187762
187.912,269.1536829
187.927,269.20694079
187.942,269.259962834
187.957,269.312750377
187.972,269.365304808
187.987,269.417627451
188.002,269.469719672
188.017,269.521582762
188.032,269.573218068
188.047,269.624626928
188.062,269.675810585
188.077,269.726770417
188.092,269.777507635
188.107,269.828023564
188.122,269.878319428
188.137,269.928396549
188.152,269.978256122
188.167,270.027899438
188.182,270.077327687
188.197,270.126542122
188.21,270.169022596
188.212,270.175543956
188.227,270.224334384
188.242,270.272914643
188.257,270.321285893
188.272,270.369449341
188.287,270.417406154
188.302,270.465157504
188.317,270.512704565
188.332,270.56004847
188.347,270.607190373
188.362,270.65413141
188.377,270.700872744
188.392,270.747415439
188.407,270.793760654
188.422,270.8399095
188.437,270.885863068
188.452,270.931622456
188.467,270.977188728
188.482,271.022562985
188.497,271.067746314
188.512,271.112739755
188.527,271.157544368
188.542,271.202161219
188.557,271.246591347
188.572,271.290835776
188.587,271.334895568
188.602,271.37877171
188.617,271.422465244
188.632,271.465977179
188.647,271.509308514
188.66,271.546717003
188.662,271.552460238
188.677,271.595433359
188.692,271.638228841
188.707,271.680847682
188.722,271.723290849
188.737,271.765559305
