# 01004 ENAS Ny-Alesund Ii Observations at 12Z 22 Oct 2019
Frequency [GHz],TB
175.31,218.964816826
175.322,219.037289794
175.337,219.128069869
175.352,219.219059737
175.367,219.310259322
175.382,219.401668538
175.397,219.493287292
175.412,219.585115484
175.427,219.677152998
175.442,219.76939971
175.457,219.861855486
175.472,219.954520182
175.487,220.047393644
175.502,220.140475706
175.517,220.233766189
175.532,220.327264907
175.547,220.420971662
175.562,220.514886244
175.577,220.609008431
175.592,220.703337989
175.607,220.797874676
175.622,220.892618232
175.637,220.987568392
175.652,221.082724872
175.667,221.17808738
175.682,221.27365561
175.697,221.369429241
175.712,221.465407945
175.727,221.561591375
175.742,221.657979173
175.757,221.754570971
175.772,221.851366381
175.787,221.948365008
175.802,222.045566435
175.817,222.14297024
175.832,222.240575982
175.847,222.338383203
175.862,222.436391436
175.877,222.534600195
175.892,222.633008983
175.907,222.731617285
175.922,222.830424568
175.937,222.929430294
175.952,223.028633894
175.967,223.128034792
175.982,223.227632403
175.997,223.327426109
176.012,223.427415288
176.027,223.5275993
176.042,223.627977481
176.057,223.728549158
176.072,223.829313637
176.087,223.930270206
176.102,224.03141814
176.117,224.132756687
176.132,224.234285088
176.147,224.336002557
176.162,224.437908293
176.177,224.540001477
176.192,224.642281269
176.207,224.744746812
176.222,224.847397229
176.237,224.950231623
176.252,225.053249079
176.267,225.156448656
176.282,225.2598294
176.297,225.363390335
176.31,225.453288129
176.312,225.46713046
176.327,225.57104876
176.342,225.675144195
176.357,225.779415701
176.372,225.883862194
176.387,225.988482577
176.402,226.093275715
176.417,226.198240464
176.432,226.303375653
176.447,226.408680087
176.46,226.50007989
176.462,226.514152548
176.477,226.6197918
176.492,226.725596572
176.507,226.831565585
176.522,226.937697525
176.537,227.043991055
176.552,227.150444818
176.567,227.257057428
176.582,227.363827478
176.597,227.470753531
176.612,227.57783413
176.627,227.685067791
176.642,227.792452999
176.657,227.89998822
176.672,228.007671886
176.687,228.115502416
176.702,228.223478184
176.717,228.33159755
176.732,228.439858843
176.747,228.548260362
176.762,228.656800382
176.777,228.765477147
176.792,228.874288874
176.807,228.983233749
176.822,229.092309934
176.837,229.201515557
176.852,229.310848719
176.867,229.420307491
176.882,229.529889913
176.897,229.639593998
176.912,229.749417723
176.927,229.859359039
176.942,229.969415866
176.957,230.07958609
176.972,230.189867565
176.987,230.300258118
177.002,230.41075554
177.017,230.521357594
177.032,230.632062002
177.047,230.742866463
177.062,230.853768636
177.077,230.964766151
177.092,231.075856602
177.107,231.187037552
177.122,231.298306524
177.137,231.409661015
177.152,231.521098484
177.167,231.632616348
177.182,231.744212002
177.197,231.855882798
177.21,231.95272286
177.212,231.967626051
177.227,232.079439045
177.242,232.191319027
177.257,232.303263205
177.272,232.415268751
177.287,232.527332804
177.302,232.639452463
177.31,232.69927134
177.317,232.751624791
177.332,232.863846812
177.347,232.976115512
177.362,233.088427842
177.377,233.200780714
177.392,233.313171001
177.407,233.425595535
177.422,233.538051116
177.437,233.650534497
177.452,233.763042396
177.467,233.875571495
177.482,233.988118428
177.497,234.100679795
177.512,234.213252158
177.527,234.325832033
177.542,234.438415899
177.557,234.551000194
177.572,234.663581316
177.587,234.77615562
177.602,234.888719424
177.617,235.001268998
177.632,235.113800578
177.647,235.226310353
177.66,235.323798214
177.662,235.338794475
177.677,235.451249048
177.692,235.563670142
177.707,235.676053778
177.722,235.788395938
177.737,235.900692562
177.752,236.012939548
177.767,236.125132745
177.782,236.237267968
177.797,236.349340986
177.812,236.461347526
177.827,236.573283266
177.842,236.685143851
177.857,236.796924876
177.872,236.908621894
177.887,237.020230418
177.902,237.131745915
177.917,237.243163807
177.932,237.354479478
177.947,237.465688263
177.96,237.561979119
177.962,237.576785461
177.977,237.68776632
177.992,237.798626048
178.007,237.909359809
178.022,238.019962727
178.037,238.13042988
178.052,238.240756303
178.067,238.350936989
178.082,238.460966886
178.097,238.570840904
178.112,238.680553903
178.127,238.790100709
178.142,238.899476097
178.157,239.008674805
178.172,239.117691526
178.187,239.226520914
178.202,239.335157579
178.217,239.443596089
178.232,239.551830973
178.247,239.659856714
178.262,239.76766776
178.277,239.875258513
178.292,239.982623336
178.307,240.089756556
178.322,240.196652453
178.337,240.303305271
178.352,240.409709217
178.367,240.515858452
178.382,240.621747106
178.397,240.727369268
178.41,240.818688313
178.412,240.832718987
178.427,240.937790274
178.442,241.042577107
178.457,241.147073426
178.472,241.251273134
178.487,241.355170097
178.502,241.458758148
178.517,241.562031083
178.532,241.664982666
178.547,241.767606627
178.562,241.869896663
178.577,241.971846437
178.592,242.073449579
178.607,242.174699693
178.622,242.275590348
178.637,242.376115084
178.652,242.476267412
178.667,242.576040812
178.682,242.67542874
178.697,242.774424624
178.712,242.873021864
178.727,242.971213835
178.742,243.068993889
178.757,243.16635535
178.772,243.263291524
178.787,243.359795692
178.802,243.455861112
178.817,243.551481024
178.832,243.64664865
178.847,243.74135719
178.862,243.835599831
178.877,243.929369736
178.892,244.022660061
178.907,244.115463945
178.922,244.207774508
178.937,244.299584865
178.952,244.390888116
178.967,244.481677354
178.982,244.571945663
178.997,244.661686113
179.012,244.750891777
179.027,244.839555717
179.042,244.927670992
179.057,245.015230658
179.072,245.102227775
179.087,245.188655396
179.102,245.274506579
179.117,245.359774382
179.132,245.444451872
179.147,245.528532117
179.16,245.600913209
179.162,245.612008197
179.177,245.694873194
179.192,245.777120207
179.207,245.858742339
179.222,245.939732714
179.237,246.020084464
179.252,246.099790741
179.267,246.178844714
179.282,246.257239573
179.297,246.334968523
179.312,246.412024797
179.327,246.488401652
179.342,246.564092371
179.357,246.639090262
179.372,246.713388666
179.387,246.786980952
179.402,246.859860525
179.417,246.932020822
179.432,247.003455318
179.447,247.074157524
179.462,247.144120998
179.477,247.21333933
179.492,247.281806161
179.507,247.349515174
179.522,247.416460105
179.537,247.482634731
179.552,247.548032886
179.567,247.612648456
179.582,247.676475381
179.597,247.73950766
179.612,247.801739348
179.627,247.863164563
179.642,247.923777486
179.657,247.98357236
179.672,248.042543496
179.687,248.100685276
179.702,248.157992149
179.717,248.214458636
179.732,248.270079333
179.747,248.324848916
179.762,248.378762134
179.777,248.431813816
179.792,248.483998877
179.807,248.535312313
179.822,248.585749205
179.837,248.635304722
179.852,248.683974124
179.867,248.73175276
179.882,248.778636074
179.897,248.824619604
179.91,248.863740792
179.912,248.869698981
179.927,248.913869942
179.942,248.957128317
179.957,248.999470042
179.972,249.040891154
179.987,249.081387798
180.002,249.120956224
180.017,249.159592788
180.032,249.197293963
180.047,249.234056327
180.062,249.269876574
180.077,249.304751511
180.092,249.338678065
180.107,249.371653274
180.122,249.403674302
180.137,249.434738427
180.152,249.464843054
180.167,249.493985707
180.182,249.522164033
180.197,249.549375809
180.212,249.575618934
180.227,249.600891434
180.242,249.625191465
180.257,249.648517314
180.272,249.670867393
180.287,249.69224025
180.302,249.712634561
180.317,249.732049136
180.332,249.750482918
180.347,249.767934985
180.362,249.784404547
180.377,249.799890949
180.392,249.814393672
180.407,249.827912333
180.422,249.840446682
180.437,249.851996608
180.452,249.862562134
180.467,249.872143423
180.482,249.880740767
180.497,249.888354602
180.512,249.894985495
180.527,249.900634151
180.542,249.905301409
180.557,249.908988246
180.56,249.909608058
180.572,249.91169577
180.587,249.913425225
180.602,249.914177992
180.617,249.913955579
180.632,249.912759631
180.647,249.910591923
180.66,249.907928668
180.662,249.907454362
180.677,249.903348985
180.692,249.898277955
180.707,249.892243566
180.722,249.88524824
180.737,249.877294521
180.752,249.868385079
180.767,249.858522709
180.782,249.847710325
180.797,249.835950963
180.812,249.823247778
180.827,249.80960404
180.842,249.79502314
180.857,249.779508578
180.872,249.763063969
180.887,249.745693038
180.902,249.727399619
180.917,249.708187654
180.932,249.688061189
180.947,249.667024375
180.962,249.645081463
180.977,249.622236804
180.992,249.598494849
181.007,249.573860139
181.022,249.548337315
181.037,249.521931104
181.052,249.494646327
181.067,249.466487889
181.082,249.437460783
181.097,249.407570084
181.112,249.376820949
181.127,249.345218613
181.142,249.31276839
181.157,249.279475669
181.172,249.245345912
181.187,249.210384654
181.202,249.174597496
181.217,249.137990111
181.232,249.100568236
181.247,249.062337673
181.262,249.023304286
181.277,248.983474002
181.292,248.942852805
181.307,248.901446739
181.31,248.893071877
181.322,248.859261904
181.337,248.816304458
181.352,248.77258061
181.367,248.728096625
181.382,248.682858821
181.397,248.636873566
181.412,248.59014728
181.427,248.542686433
181.442,248.494497548
181.457,248.445587195
181.472,248.395961996
181.487,248.345628622
181.502,248.294593795
181.517,248.242864287
181.532,248.190446924
181.547,248.13734858
181.562,248.083576186
181.577,248.029136725
181.592,247.974037239
181.607,247.918284824
181.622,247.861886637
181.637,247.804849897
181.652,247.747181886
181.667,247.688889953
181.682,247.629981514
181.697,247.57046406
181.712,247.510345156
181.727,247.449632444
181.742,247.388333653
181.757,247.326456595
181.772,247.264009173
181.787,247.200999388
181.802,247.13743534
181.817,247.073325233
181.832,247.008677384
181.847,246.943500224
181.862,246.877802308
181.877,246.811592318
181.892,246.744879071
181.907,246.677671524
181.922,246.609978782
181.937,246.541810105
181.952,246.473174915
181.967,246.404082804
181.982,246.334543538
181.997,246.26456707
182.012,246.194163544
182.027,246.123343306
182.042,246.052116907
182.057,245.980495117
182.06,245.966124275
182.072,245.908488929
182.087,245.83610957
182.102,245.763368505
182.117,245.69027745
182.132,245.616848374
182.147,245.543093513
182.162,245.469025371
182.177,245.394656732
182.192,245.320000662
182.207,245.24507052
182.222,245.169879958
182.237,245.094442929
182.252,245.018773692
182.267,244.94288681
182.282,244.866797156
182.297,244.790519915
182.312,244.714070576
182.327,244.637464937
182.342,244.560719098
182.357,244.483849454
182.372,244.406872688
182.387,244.329805758
182.402,244.252665886
182.417,244.175470539
182.432,244.098237407
182.447,244.020984381
182.462,243.943729524
182.477,243.866491033
182.492,243.789287204
182.507,243.712136384
182.522,243.635056916
182.537,243.558067083
182.552,243.481185031
182.567,243.404428698
182.582,243.327815716
182.597,243.251363312
182.612,243.175088189
182.627,243.099006389
182.642,243.023133148
182.657,242.947482715
182.672,242.872068159
182.687,242.796901145
182.702,242.721991674
182.717,242.647347793
182.732,242.572975257
182.747,242.498877146
182.762,242.425053419
182.777,242.351500401
182.792,242.278210191
182.807,242.205169974
182.822,242.132361208
182.837,242.059758686
182.852,241.987329419
182.867,241.915031316
182.882,241.84281162
182.897,241.770605023
182.912,241.698331405
182.927,241.625893092
182.942,241.553171502
182.957,241.480023031
182.972,241.40627395
182.987,241.331714038
183.002,241.25608856
183.017,241.17908807
183.032,241.100335326
183.047,241.01936832
183.062,240.935618014
183.077,240.848378771
183.092,240.756768543
183.107,240.659674464
183.122,240.555677236
183.137,240.44294409
183.152,240.319074068
183.167,240.180869171
183.182,240.023986956
183.197,239.842397702
183.212,239.627508459
183.227,239.366699427
183.242,239.040797918
183.257,238.619709065
183.367,238.722432953
183.382,239.112257322
183.397,239.415926859
183.412,239.660212007
183.427,239.862293698
183.442,240.03358136
183.457,240.181906604
183.472,240.312803493
183.487,240.430281648
183.502,240.537309403
183.517,240.6361254
183.532,240.728445243
183.547,240.815602076
183.562,240.898644366
183.577,240.978405321
183.592,241.055553059
183.607,241.130627463
183.622,241.204067652
183.637,241.276232733
183.652,241.347417667
183.667,241.417865537
183.682,241.487777125
183.697,241.557318478
183.712,241.626626914
183.727,241.695815851
183.742,241.764978711
183.757,241.834192102
183.772,241.903518427
183.787,241.973008046
183.802,242.042701063
183.817,242.112628835
183.832,242.182815228
183.847,242.25327769
183.862,242.324028154
183.877,242.395073816
183.892,242.4664178
183.907,242.538059727
183.922,242.609996214
183.937,242.682221297
183.952,242.75472681
183.967,242.827502707
183.982,242.900537342
183.997,242.973817728
184.012,243.047329743
184.027,243.121058331
184.042,243.194987666
184.057,243.2691013
184.072,243.343382293
184.087,243.417813333
184.102,243.492376829
184.117,243.567055004
184.132,243.641829972
184.147,243.716683808
184.162,243.791598603
184.177,243.866556521
184.192,243.941539839
184.207,244.016530991
184.222,244.091512599
184.237,244.166467501
184.252,244.241378775
184.267,244.316229763
184.282,244.391004085
184.297,244.46568565
184.312,244.540258673
184.327,244.614707682
184.342,244.689017517
184.357,244.763173348
184.372,244.837160661
184.387,244.910965275
184.402,244.984573328
184.417,245.057971285
184.432,245.13114593
184.447,245.204084364
184.462,245.276774001
184.477,245.34920256
184.492,245.421358063
184.507,245.493228828
184.522,245.564803458
184.537,245.636070838
184.552,245.707020127
184.56,245.744726023
184.567,245.777640751
184.582,245.847922393
184.597,245.917854983
184.612,245.987428698
184.627,246.056633946
184.642,246.125461362
184.657,246.193901797
184.672,246.261946313
184.687,246.329586175
184.702,246.396812839
184.717,246.46361795
184.732,246.529993331
184.747,246.595930976
184.762,246.661423043
184.777,246.726461848
184.792,246.791039857
184.807,246.855149679
184.822,246.918784063
184.837,246.981935886
184.852,247.044598151
184.867,247.106763983
184.882,247.168426617
184.897,247.229579401
184.912,247.290215783
184.927,247.350329311
184.942,247.40991363
184.957,247.468962472
184.972,247.527469655
184.987,247.58542908
185.002,247.642834727
185.017,247.699680649
185.032,247.755960973
185.047,247.811669893
185.062,247.866801671
185.077,247.921350628
185.092,247.975311153
185.107,248.028677687
185.122,248.081444732
185.137,248.133606843
185.152,248.185158631
185.167,248.236094757
185.182,248.286409932
185.197,248.336098918
185.212,248.385156527
185.227,248.433577617
185.242,248.481357093
185.257,248.528489909
185.272,248.574971065
185.287,248.620795604
185.302,248.665958621
185.31,248.689773392
185.317,248.710455251
185.332,248.754280682
185.347,248.797430142
185.362,248.839898911
185.377,248.881682314
185.392,248.922775726
185.407,248.963174568
185.422,249.002874314
185.437,249.041870484
185.452,249.080158653
185.467,249.117734446
185.482,249.154593542
185.497,249.190731673
185.512,249.226144627
185.527,249.260828249
185.542,249.294778441
185.557,249.327991164
185.572,249.360462439
185.587,249.39218835
185.602,249.423165041
185.617,249.453388723
185.632,249.482855671
185.647,249.511562227
185.662,249.539504802
185.677,249.566679878
185.692,249.593084005
185.707,249.618713809
185.722,249.643565987
185.737,249.667637315
185.752,249.690924642
185.767,249.713424897
185.782,249.735135089
185.797,249.756052308
185.812,249.776173726
185.827,249.795496596
185.842,249.81401826
185.857,249.831736144
185.872,249.84864776
185.887,249.86475071
185.902,249.880042687
185.917,249.894521471
185.932,249.908184937
185.947,249.921031051
185.96,249.931501702
185.962,249.933057874
185.977,249.944263561
185.992,249.954646363
186.007,249.964204626
186.022,249.972936796
186.037,249.980841417
186.052,249.987917128
186.06,249.991351471
186.067,249.994162672
186.082,249.99957689
186.097,250.004158725
186.112,250.007907218
186.127,250.010821516
186.142,250.012900867
186.157,250.014144618
186.172,250.014552226
186.187,250.014123243
186.202,250.012857331
186.217,250.010754252
186.232,250.007813873
186.247,250.004036164
186.262,249.9994212
186.277,249.993969159
186.292,249.987680323
186.307,249.980555077
186.322,249.97259391
186.337,249.963797415
186.352,249.954166286
186.367,249.943701323
186.382,249.932403424
186.397,249.920273591
186.412,249.907312928
186.427,249.893522639
186.442,249.878904031
186.457,249.863458506
186.472,249.84718757
186.487,249.830092823
186.502,249.812175968
186.517,249.793438802
186.532,249.773883218
186.547,249.753511207
186.562,249.732324852
186.577,249.710326333
186.592,249.687517918
186.607,249.663901974
186.622,249.639480952
186.637,249.614257397
186.652,249.588233943
186.667,249.56141331
186.682,249.533798307
186.697,249.505391827
186.71,249.480134961
186.712,249.476196848
186.727,249.446216432
186.742,249.415453723
186.757,249.383911946
186.772,249.351594405
186.787,249.318504484
186.802,249.284645642
186.817,249.250021416
186.832,249.21463542
186.847,249.178491334
186.862,249.141592917
186.877,249.103943997
186.892,249.06554847
186.907,249.0264103
186.922,248.986533518
186.937,248.945922223
186.952,248.904580572
186.967,248.86251279
186.982,248.819723158
186.997,248.776216023
187.012,248.731995785
187.027,248.687066901
187.042,248.641433886
187.057,248.595101307
187.072,248.548073784
187.087,248.50035599
187.102,248.451952643
187.117,248.402868514
187.132,248.353108417
187.147,248.302677213
187.162,248.251579809
187.177,248.199821151
187.192,248.147406228
187.207,248.094340068
187.222,248.040627738
187.237,247.986274342
187.252,247.931285017
187.267,247.875664938
187.282,247.819419311
187.297,247.762553373
187.312,247.70507239
187.327,247.646981659
187.342,247.588286506
187.357,247.528992276
187.372,247.469104346
187.387,247.408628114
187.402,247.347568999
187.417,247.285932441
187.432,247.223723901
187.447,247.160948857
187.46,247.10608983
187.462,247.097612807
187.477,247.033721262
187.492,246.969279745
187.507,246.904293798
187.522,246.838768977
187.537,246.772710839
187.552,246.70612496
187.567,246.639016923
187.582,246.571392315
187.597,246.503256736
187.612,246.434615784
187.627,246.365475069
187.642,246.295840198
187.657,246.225716785
187.672,246.155110443
187.687,246.084026784
187.702,246.012471423
187.717,245.940449969
187.732,245.867968033
187.747,245.795031219
187.762,245.721645127
187.777,245.647815355
187.792,245.573547485
187.807,245.498847105
187.822,245.423719787
187.837,245.348171093
187.852,245.27220658
187.867,245.195831792
187.882,245.119052262
187.897,245.04187351
187.912,244.964301043
187.927,244.886340357
187.942,244.80799693
187.957,244.729276227
187.972,244.650183698
187.987,244.570724772
188.002,244.490904869
188.017,244.410729384
188.032,244.330203695
188.047,244.249333163
188.062,244.168123127
188.077,244.086578908
188.092,244.004705805
188.107,243.922509095
188.122,243.839994035
188.137,243.757165858
188.152,243.674029772
188.167,243.590590967
188.182,243.506854605
188.197,243.422825822
188.21,243.349768299
188.212,243.338509737
188.227,243.253911434
188.242,243.169035977
188.257,243.083888402
188.272,242.998473718
188.287,242.91279691
188.302,242.826862932
188.317,242.740676712
188.332,242.654243151
188.347,242.567567121
188.362,242.480653462
188.377,242.393506991
188.392,242.306132489
188.407,242.218534715
188.422,242.130718392
188.437,242.042688216
188.452,241.954448852
188.467,241.866004932
188.482,241.777361061
188.497,241.688521812
188.512,241.599491723
188.527,241.510275307
188.542,241.420877041
188.557,241.33130137
188.572,241.241552709
188.587,241.15163544
188.602,241.061553913
188.617,240.971312447
188.632,240.880915324
188.647,240.790366798
188.66,240.711772202
188.662,240.699671088
188.677,240.608832381
188.692,240.517854831
188.707,240.42674256
188.722,240.335499653
