# 01004 ENAS Ny-Alesund Ii Observations at 12Z 15 Aug 2020
Frequency [GHz],TB
175.31,267.071062332
175.322,267.068681523
175.337,267.065532862
175.352,267.062191861
175.367,267.058658022
175.382,267.054930805
175.397,267.05100971
175.412,267.046894242
175.427,267.042583873
175.442,267.038078133
175.457,267.033376508
175.472,267.028478518
175.487,267.023383697
175.502,267.018091541
175.517,267.0126016
175.532,267.006913391
175.547,267.001026467
175.562,266.994940361
175.577,266.988654623
175.592,266.982168812
175.607,266.975482487
175.622,266.968595218
175.637,266.961506561
175.652,266.954216115
175.667,266.946723435
175.682,266.939028148
175.697,266.931129811
175.712,266.923028036
175.727,266.914722428
175.742,266.906212606
175.757,266.897498183
175.772,266.888578785
175.787,266.879454029
175.802,266.870123569
175.817,266.860587038
175.832,266.850844079
175.847,266.840894357
175.862,266.830737526
175.877,266.820373259
175.892,266.809801234
175.907,266.799021107
175.922,266.788032591
175.937,266.77683537
175.952,266.765429137
175.967,266.753813606
175.982,266.741988493
175.997,266.729953504
176.012,266.717708376
176.027,266.705252842
176.042,266.692586639
176.057,266.679709515
176.072,266.666621219
176.087,266.65332152
176.102,266.639810171
176.117,266.626086959
176.132,266.612151664
176.147,266.598004071
176.162,266.583643964
176.177,266.569071161
176.192,266.554285474
176.207,266.539286698
176.222,266.524074668
176.237,266.508649227
176.252,266.493010194
176.267,266.477157422
176.282,266.461090751
176.297,266.444810052
176.31,266.430526881
176.312,266.428315187
176.327,266.411606036
176.342,266.394682464
176.357,266.377544359
176.372,266.360191632
176.387,266.34262417
176.402,266.324841895
176.417,266.306844701
176.432,266.28863253
176.447,266.270205309
176.46,266.254061037
176.462,266.251562966
176.477,266.23270545
176.492,266.21363271
176.507,266.194344708
176.522,266.17484141
176.537,266.155122789
176.552,266.135188824
176.567,266.115039489
176.582,266.094674787
176.597,266.07409472
176.612,266.053299293
176.627,266.032288524
176.642,266.011062428
176.657,265.989621033
176.672,265.967964379
176.687,265.946092501
176.702,265.924005444
176.717,265.901703272
176.732,265.879186032
176.747,265.856453806
176.762,265.833506656
176.777,265.810344666
176.792,265.786967937
176.807,265.76337654
176.822,265.739570582
176.837,265.71555017
176.852,265.691315423
176.867,265.666866436
176.882,265.642203361
176.897,265.617326304
176.912,265.592235406
176.927,265.566930821
176.942,265.541412685
176.957,265.515681142
176.972,265.48973637
176.987,265.463578513
177.002,265.437207744
177.017,265.410624244
177.032,265.383828188
177.047,265.356819751
177.062,265.329599136
177.077,265.302166528
177.092,265.274522123
177.107,265.246666131
177.122,265.218598749
177.137,265.190320206
177.152,265.161830701
177.167,265.133130461
177.182,265.104219711
177.197,265.075098669
177.21,265.049690519
177.212,265.045767581
177.227,265.016226678
177.242,264.986476197
177.257,264.956516376
177.272,264.926347469
177.287,264.895969724
177.302,264.865383384
177.31,264.848985471
177.317,264.83458872
177.332,264.803585968
177.347,264.77237541
177.362,264.740957288
177.377,264.709331879
177.392,264.677499449
177.407,264.645460263
177.422,264.613214596
177.437,264.580762724
177.452,264.548104902
177.467,264.515241428
177.482,264.48217256
177.497,264.448898588
177.512,264.415419788
177.527,264.381736431
177.542,264.347848814
177.557,264.313757195
177.572,264.279461873
177.587,264.24496312
177.602,264.2102612
177.617,264.175356417
177.632,264.140249044
177.647,264.104939346
177.66,264.074174182
177.662,264.069427623
177.677,264.033714133
177.692,263.997799157
177.707,263.961682963
177.722,263.925365839
177.737,263.888848042
177.752,263.852129838
177.767,263.815211498
177.782,263.778093289
177.797,263.74077547
177.812,263.703258307
177.827,263.665542037
177.842,263.627626929
177.857,263.589513216
177.872,263.551201172
177.887,263.512691003
177.902,263.473982978
177.917,263.435077318
177.932,263.395974251
177.947,263.356673998
177.96,263.32245447
177.962,263.317176798
177.977,263.27748286
177.992,263.237592382
178.007,263.197505581
178.022,263.15722265
178.037,263.116743802
178.052,263.07606921
178.067,263.035199057
178.082,262.99413353
178.097,262.952872786
178.112,262.911417006
178.127,262.869766335
178.142,262.827920925
178.157,262.785880926
178.172,262.743646479
178.187,262.701217695
178.202,262.658594706
178.217,262.61577764
178.232,262.572766583
178.247,262.529561643
178.262,262.486162904
178.277,262.442570451
178.292,262.398784358
178.307,262.354804698
178.322,262.310631504
178.337,262.26626484
178.352,262.221704739
178.367,262.176951226
178.382,262.132004321
178.397,262.08686404
178.41,262.047586047
178.412,262.04153038
178.427,261.996003329
178.442,261.950282851
178.457,261.904368956
178.472,261.858261555
178.487,261.811960627
178.502,261.7654661
178.517,261.718777905
178.532,261.671895959
178.547,261.624820172
178.562,261.577550433
178.577,261.530086631
178.592,261.48242864
178.607,261.434576317
178.622,261.386529519
178.637,261.338288077
178.652,261.28985183
178.667,261.241220589
178.682,261.192394157
178.697,261.143372331
178.712,261.094154897
178.727,261.044741621
178.742,260.995132261
178.757,260.945326568
178.772,260.895324277
178.787,260.8451251
178.802,260.794728757
178.817,260.744134948
178.832,260.693343367
178.847,260.642353678
178.862,260.591165545
178.877,260.53977862
178.892,260.48819255
178.907,260.436406962
178.922,260.384421464
178.937,260.332235658
178.952,260.279849149
178.967,260.227261519
178.982,260.17447232
178.997,260.121481122
179.012,260.068287463
179.027,260.014890881
179.042,259.961290898
179.057,259.907487028
179.072,259.853478761
179.087,259.799265599
179.102,259.744847002
179.117,259.690222459
179.132,259.635391392
179.147,259.580353278
179.16,259.532485642
179.162,259.525107523
179.177,259.469653574
179.192,259.413990829
179.207,259.358118692
179.222,259.302036559
179.237,259.245743802
179.252,259.189239805
179.267,259.132523911
179.282,259.075595495
179.297,259.018453878
179.312,258.961098412
179.327,258.90352841
179.342,258.845743196
179.357,258.787742063
179.372,258.729524319
179.387,258.67108926
179.402,258.612436148
179.417,258.553564278
179.432,258.494472901
179.447,258.435161286
179.462,258.375628676
179.477,258.315874326
179.492,258.255897464
179.507,258.195697332
179.522,258.135273148
179.537,258.074624138
179.552,258.013749511
179.567,257.952648485
179.582,257.891320246
179.597,257.829764007
179.612,257.767978965
179.627,257.7059643
179.642,257.643719198
179.657,257.581242864
179.672,257.518534452
179.687,257.455593153
179.702,257.392418132
179.717,257.329008576
179.732,257.265363639
179.747,257.201482509
179.762,257.137364331
179.777,257.073008294
179.792,257.00841355
179.807,256.943579269
179.822,256.878504617
179.837,256.813188758
179.852,256.747630873
179.867,256.681830121
179.882,256.615785668
179.897,256.549496702
179.91,256.491847833
179.912,256.482962383
179.927,256.416181901
179.942,256.349154425
179.957,256.281879153
179.972,256.214355274
179.987,256.146581982
180.002,256.078558473
180.017,256.010283943
180.032,255.941757606
180.047,255.872978686
180.062,255.803946403
180.077,255.734659977
180.092,255.66511865
180.107,255.59532167
180.122,255.525268283
180.137,255.454957754
180.152,255.384389342
180.167,255.313562344
180.182,255.242476028
180.197,255.171129715
180.212,255.099522692
180.227,255.02765429
180.242,254.955523844
180.257,254.883130678
180.272,254.810474178
180.287,254.737553686
180.302,254.664368593
180.317,254.590918293
180.332,254.517202193
180.347,254.443219702
180.362,254.368970284
180.377,254.294453357
180.392,254.219668397
180.407,254.144614906
180.422,254.069292351
180.437,253.993700263
180.452,253.917838165
180.467,253.841705604
180.482,253.765302146
180.497,253.68862736
180.512,253.611680858
180.527,253.534462252
180.542,253.456971174
180.557,253.379207285
180.56,253.363621733
180.572,253.30117024
180.587,253.222859744
180.602,253.1442755
180.617,253.065417243
180.632,252.986284715
180.647,252.906877692
180.66,252.837836069
180.662,252.827195959
180.677,252.74723932
180.692,252.667007609
180.707,252.58650068
180.722,252.505718407
180.737,252.424660669
180.752,252.343327388
180.767,252.26171849
180.782,252.179833933
180.797,252.097673698
180.812,252.015237781
180.827,251.932526197
180.842,251.849538983
180.857,251.766276203
180.872,251.682737939
180.887,251.598924305
180.902,251.514835403
180.917,251.430471406
180.932,251.345832467
180.947,251.260918782
180.962,251.17573056
180.977,251.090268036
180.992,251.004531448
181.007,250.9185211
181.022,250.832237261
181.037,250.745680265
181.052,250.65885045
181.067,250.571748161
181.082,250.48437379
181.097,250.396727734
181.112,250.308810426
181.127,250.2206223
181.142,250.132163822
181.157,250.043435472
181.172,249.954437771
181.187,249.865171244
181.202,249.775636432
181.217,249.685833912
181.232,249.595764269
181.247,249.50542814
181.262,249.414826127
181.277,249.323958925
181.292,249.232827192
181.307,249.141431637
181.31,249.123120938
181.322,249.049773003
181.337,248.957852028
181.352,248.865669495
181.367,248.773226209
181.382,248.680523004
181.397,248.58756073
181.412,248.494340274
181.427,248.40086256
181.442,248.30712851
181.457,248.213139125
181.472,248.118895409
181.487,248.024398405
181.502,247.929649193
181.517,247.83464889
181.532,247.739398663
181.547,247.64389972
181.562,247.548153297
181.577,247.452160699
181.592,247.355923263
181.607,247.259442393
181.622,247.162719549
181.637,247.065756236
181.652,246.96855405
181.667,246.871114626
181.682,246.773439684
181.697,246.675531025
181.712,246.57739052
181.727,246.479020139
181.742,246.380421923
181.757,246.281598024
181.772,246.182550706
181.787,246.083282334
181.802,245.983795377
181.817,245.884092447
181.832,245.784176283
181.847,245.684049734
181.862,245.583715839
181.877,245.48317777
181.892,245.382438874
181.907,245.281502658
181.922,245.180372821
181.937,245.079053256
181.952,244.977548074
181.967,244.87586158
181.982,244.773998328
181.997,244.6719631
182.012,244.569760933
182.027,244.467397153
182.042,244.364877339
182.057,244.262207378
182.06,244.241655912
182.072,244.159393472
182.087,244.056442131
182.102,243.953360236
182.117,243.850154988
182.132,243.746833999
182.147,243.64340524
182.162,243.5398771
182.177,243.436258403
182.192,243.332558399
182.207,243.228786821
182.222,243.124953856
182.237,243.021070207
182.252,242.917147085
182.267,242.81319622
182.282,242.709229913
182.297,242.605261028
182.312,242.501303021
182.327,242.397369934
182.342,242.293476428
182.357,242.189637836
182.372,242.085870074
182.387,241.982189758
182.402,241.878614184
182.417,241.775161279
182.432,241.671849707
182.447,241.568698784
182.462,241.465728529
182.477,241.362959644
182.492,241.26041351
182.507,241.158112179
182.522,241.056078347
182.537,240.954335349
182.552,240.852907102
182.567,240.751818087
182.582,240.651093337
182.597,240.550758309
182.612,240.450838848
182.627,240.351361169
182.642,240.252351686
182.657,240.153836945
182.672,240.055843484
182.687,239.958397744
182.702,239.861525834
182.717,239.765253423
182.732,239.669605486
182.747,239.574606076
182.762,239.480278065
182.777,239.386642857
182.792,239.293720023
182.807,239.201526933
182.822,239.11007832
182.837,239.019385785
182.852,238.929457259
182.867,238.840296369
182.882,238.751901757
182.897,238.664266264
182.912,238.57737604
182.927,238.491209498
182.942,238.405736168
182.957,238.320915333
182.972,238.236694423
182.987,238.153007229
183.002,238.069771749
183.017,237.986887606
183.032,237.904233035
183.047,237.821661192
183.062,237.738995763
183.077,237.656025736
183.092,237.572499243
183.107,237.48811679
183.122,237.402524484
183.137,237.315309361
183.152,237.226001023
183.167,237.134088773
183.182,237.039071494
183.197,236.94057169
183.212,236.838563522
183.227,236.733780893
183.242,236.628354696
183.257,236.526615384
183.367,236.54154996
183.382,236.642144039
183.397,236.745088968
183.412,236.846683259
183.427,236.945219149
183.442,237.040203599
183.457,237.131779969
183.472,237.220371745
183.487,237.306489059
183.502,237.390634702
183.517,237.473264785
183.532,237.554776713
183.547,237.635509707
183.562,237.715750301
183.577,237.795739176
183.592,237.87567787
183.607,237.955734591
183.622,238.036049365
183.637,238.116738113
183.652,238.197896221
183.667,238.279601384
183.682,238.361916108
183.697,238.444889744
183.712,238.528560221
183.727,238.61295561
183.742,238.698095371
183.757,238.783991524
183.772,238.870649636
183.787,238.958069698
183.802,239.046246862
183.817,239.135172166
183.832,239.224833109
183.847,239.315214193
183.862,239.40629737
183.877,239.498062515
183.892,239.590487751
183.907,239.683549786
183.922,239.777224224
183.937,239.871485801
183.952,239.966308634
183.967,240.061666412
183.982,240.157532553
183.997,240.25388038
184.012,240.35068326
184.027,240.447914697
184.042,240.545548465
184.057,240.643558658
184.072,240.741919802
184.087,240.840606874
184.102,240.939595392
184.117,241.038861446
184.132,241.138381736
184.147,241.238133588
184.162,241.338094979
184.177,241.438244553
184.192,241.538561664
184.207,241.639026312
184.222,241.73961923
184.237,241.840321807
184.252,241.941116134
184.267,242.04198497
184.282,242.142911757
184.297,242.243880586
184.312,242.34487619
184.327,242.445883958
184.342,242.546889879
184.357,242.647880548
184.372,242.748843143
184.387,242.849765412
184.402,242.950635671
184.417,243.05144275
184.432,243.152176009
184.447,243.25282529
184.462,243.353380953
184.477,243.453833773
184.492,243.554175
184.507,243.654396304
184.522,243.754489765
184.537,243.854447865
184.552,243.954263438
184.56,244.007437782
184.567,244.053929719
184.582,244.153440236
184.597,244.252788908
184.612,244.35196991
184.627,244.450977751
184.642,244.549807229
184.657,244.648453386
184.672,244.746911547
184.687,244.845177271
184.702,244.943246361
184.717,245.041114846
184.732,245.138778934
184.747,245.236235073
184.762,245.333479877
184.777,245.43051014
184.792,245.527322846
184.807,245.623915115
184.822,245.720284231
184.837,245.816427619
184.852,245.912342848
184.867,246.008027594
184.882,246.103479673
184.897,246.19869702
184.912,246.29367765
184.927,246.388419711
184.942,246.482921417
184.957,246.577181102
184.972,246.671197155
184.987,246.764968075
185.002,246.858492403
185.017,246.951768785
185.032,247.044795908
185.047,247.137572533
185.062,247.230097472
185.077,247.322369612
185.092,247.414387866
185.107,247.506151214
185.122,247.597658674
185.137,247.688909334
185.152,247.779902267
185.167,247.870636646
185.182,247.961111652
185.197,248.051326502
185.212,248.141280448
185.227,248.230972784
185.242,248.320402811
185.257,248.409569892
185.272,248.498473401
185.287,248.587112721
185.302,248.675487278
185.31,248.722511933
185.317,248.763596543
185.332,248.851439962
185.347,248.939017056
185.362,249.026327326
185.377,249.113370318
185.392,249.200145588
185.407,249.286652727
185.422,249.372891323
185.437,249.458861002
185.452,249.5445614
185.467,249.629992181
185.482,249.715153007
185.497,249.800043583
185.512,249.884663623
185.527,249.969012849
185.542,250.053091018
185.557,250.136897874
185.572,250.22043322
185.587,250.303696852
185.602,250.386688586
185.617,250.469408254
185.632,250.551855697
185.647,250.634030803
185.662,250.715933449
185.677,250.797563535
185.692,250.878920978
185.707,250.960005729
185.722,251.040817726
185.737,251.121356951
185.752,251.2016234
185.767,251.281617055
185.782,251.361337959
185.797,251.440786137
185.812,251.519961656
185.827,251.598864593
185.842,251.677495036
185.857,251.755853095
185.872,251.833938889
185.887,251.911752569
185.902,251.989294281
185.917,252.066564228
185.932,252.143562579
185.947,252.22028956
185.96,252.286566938
185.962,252.296745386
185.977,252.372930309
185.992,252.448844592
186.007,252.524488501
186.022,252.599862345
186.037,252.674966421
186.052,252.749801066
186.06,252.78960282
186.067,252.824366611
186.082,252.898663422
186.097,252.972691875
186.112,253.046452353
186.127,253.119945259
186.142,253.193171019
186.157,253.266130062
186.172,253.338822844
186.187,253.411249836
186.202,253.483411497
186.217,253.55530834
186.232,253.626940873
186.247,253.698309606
186.262,253.769415073
186.277,253.840257836
186.292,253.91083844
186.307,253.981157466
186.322,254.051215513
186.337,254.121013161
186.352,254.190551034
186.367,254.259829747
186.382,254.328849951
186.397,254.39761227
186.412,254.466117378
186.427,254.534365937
186.442,254.602358621
186.457,254.670096124
186.472,254.737579144
186.487,254.804808386
186.502,254.87178457
186.517,254.938508422
186.532,255.004980682
186.547,255.071202072
186.562,255.137173375
186.577,255.202895325
186.592,255.268368707
186.607,255.333594281
186.622,255.398572833
186.637,255.46330516
186.652,255.527792026
186.667,255.592034264
186.682,255.656032672
186.697,255.71978805
186.71,255.774846768
186.712,255.783301221
186.727,255.846573015
186.742,255.909604234
186.757,255.97239573
186.772,256.034948324
186.787,256.097262855
186.802,256.159340181
186.817,256.221181119
186.832,256.282786538
186.847,256.344157268
186.862,256.40529418
186.877,256.466198119
186.892,256.526869943
186.907,256.587310507
186.922,256.647520659
186.937,256.707501282
186.952,256.767253216
186.967,256.826777333
186.982,256.886074479
186.997,256.945145527
187.012,257.003991332
187.027,257.062612772
187.042,257.121010682
187.057,257.179185917
187.072,257.237139358
187.087,257.294871854
187.102,257.35238424
187.117,257.409677392
187.132,257.466752145
187.147,257.523609346
187.162,257.580249843
187.177,257.636674492
187.192,257.692884107
187.207,257.74887954
187.222,257.80466163
187.237,257.860231189
187.252,257.915589063
187.267,257.970736052
187.282,258.025672992
187.297,258.080400687
187.312,258.13491996
187.327,258.189231594
187.342,258.243336412
187.357,258.297235198
187.372,258.350928731
187.387,258.404417825
187.402,258.457703247
187.417,258.510785765
187.432,258.563666157
187.447,258.616345186
187.46,258.661838046
187.462,258.668823602
187.477,258.721102175
187.492,258.77318163
187.507,258.825062723
187.522,258.876746177
187.537,258.928232742
187.552,258.979523108
187.567,259.030618016
187.582,259.081518153
187.597,259.132224241
187.612,259.182736962
187.627,259.233057013
187.642,259.283185061
187.657,259.333121794
187.672,259.382867872
187.687,259.432423965
187.702,259.481790706
187.717,259.530968766
187.732,259.579958757
187.747,259.628761335
187.762,259.677377112
187.777,259.725806697
187.792,259.77405071
187.807,259.82210975
187.822,259.869984411
187.837,259.917675274
187.852,259.965182922
187.867,260.012507931
187.882,260.059650853
187.897,260.106612258
187.912,260.153392678
187.927,260.199992671
187.942,260.24641276
187.957,260.292653467
187.972,260.338715324
187.987,260.384598822
188.002,260.430304479
188.017,260.475832779
188.032,260.521184214
188.047,260.566359273
188.062,260.611358408
188.077,260.656182106
188.092,260.700830803
188.107,260.745304961
188.122,260.789605018
188.137,260.833731413
188.152,260.877684575
188.167,260.921464908
188.182,260.965072843
188.197,261.00850878
188.21,261.046014435
188.212,261.051773106
188.227,261.094866234
188.242,261.137788534
188.257,261.180540366
188.272,261.223122139
188.287,261.265534181
188.302,261.307776861
188.317,261.349850538
188.332,261.391755537
188.347,261.433492202
188.362,261.475060857
188.377,261.516461839
188.392,261.55769545
188.407,261.598761991
188.422,261.639661785
188.437,261.68039511
188.452,261.720962289
188.467,261.76136356
188.482,261.801599233
188.497,261.841669573
188.512,261.881574843
188.527,261.921315308
188.542,261.960891221
188.557,262.00030283
188.572,262.039550382
188.587,262.078634112
188.602,262.117554251
188.617,262.156311035
188.632,262.194904674
188.647,262.233335399
188.66,262.266510402
188.662,262.271603414
188.677,262.309708917
188.692,262.347652134
188.707,262.385433241
188.722,262.423052446
188.737,262.46050992
188.752,262.49780587
