# 78954 TBPB Grantley Adams Observations at 12Z 25 Aug 2020
Frequency [GHz],TB
175.31,277.019425656
175.322,276.999879325
175.337,276.975390695
175.352,276.950839979
175.367,276.926226981
175.382,276.901551507
175.397,276.876813361
175.412,276.852012345
175.427,276.82714826
175.442,276.802220906
175.457,276.777230082
175.472,276.752175586
175.487,276.727057214
175.502,276.701874761
175.517,276.676628022
175.532,276.651316788
175.547,276.625940851
175.562,276.600500002
175.577,276.57499403
175.592,276.549422721
175.607,276.523785863
175.622,276.498083241
175.637,276.472314638
175.652,276.446479836
175.667,276.420578618
175.682,276.394610763
175.697,276.368576049
175.712,276.342474254
175.727,276.316305154
175.742,276.290068522
175.757,276.263764133
175.772,276.237391759
175.787,276.210951169
175.802,276.184442133
175.817,276.157864419
175.832,276.131217793
175.847,276.104502019
175.862,276.077716862
175.877,276.050862084
175.892,276.023937444
175.907,275.996942704
175.922,275.969877619
175.937,275.942741948
175.952,275.915535444
175.967,275.888257862
175.982,275.860908953
175.997,275.833488467
176.012,275.805996155
176.027,275.778431763
176.042,275.750795037
176.057,275.723085723
176.072,275.695303562
176.087,275.667448297
176.102,275.639519668
176.117,275.611517413
176.132,275.583441268
176.147,275.555290969
176.162,275.52706625
176.177,275.498766843
176.192,275.470392479
176.207,275.441942886
176.222,275.413417791
176.237,275.384816921
176.252,275.356139999
176.267,275.327386748
176.282,275.298556889
176.297,275.26965014
176.31,275.244535211
176.312,275.24066622
176.327,275.211604843
176.342,275.182465724
176.357,275.153248575
176.372,275.123953107
176.387,275.094579029
176.402,275.065126048
176.417,275.035593869
176.432,275.005982196
176.447,274.97629073
176.46,274.950493352
176.462,274.946519172
176.477,274.916667221
176.492,274.886734571
176.507,274.856720919
176.522,274.826625957
176.537,274.796449376
176.552,274.766190865
176.567,274.735850111
176.582,274.7054268
176.597,274.674920614
176.612,274.644331236
176.627,274.613658346
176.642,274.58290162
176.657,274.552060734
176.672,274.521135363
176.687,274.490125177
176.702,274.459029848
176.717,274.427849041
176.732,274.396582424
176.747,274.365229659
176.762,274.333790409
176.777,274.302264332
176.792,274.270651087
176.807,274.238950328
176.822,274.207161709
176.837,274.17528488
176.852,274.143319491
176.867,274.111265189
176.882,274.079121617
176.897,274.046888417
176.912,274.014565231
176.927,273.982151696
176.942,273.949647447
176.957,273.917052117
176.972,273.884365338
176.987,273.851586738
177.002,273.818715942
177.017,273.785752576
177.032,273.752696259
177.047,273.719546612
177.062,273.686303251
177.077,273.65296579
177.092,273.61953384
177.107,273.586007011
177.122,273.552384909
177.137,273.518667138
177.152,273.484853299
177.167,273.450942992
177.182,273.416935812
177.197,273.382831353
177.21,273.35319515
177.212,273.348629205
177.227,273.314328957
177.242,273.279930194
177.257,273.245432499
177.272,273.210835451
177.287,273.176138626
177.302,273.141341601
177.31,273.122742067
177.317,273.106443944
177.332,273.071445225
177.347,273.036345008
177.362,273.001142856
177.377,272.965838329
177.392,272.930430982
177.407,272.894920368
177.422,272.859306038
177.437,272.823587538
177.452,272.787764411
177.467,272.751836199
177.482,272.715802437
177.497,272.67966266
177.512,272.643416399
177.527,272.607063179
177.542,272.570602525
177.557,272.534033958
177.572,272.497356992
177.587,272.460571141
177.602,272.423675915
177.617,272.38667082
177.632,272.349555356
177.647,272.312329024
177.66,272.27997613
177.662,272.274991316
177.677,272.237541724
177.692,272.199979734
177.707,272.16230483
177.722,272.124516489
177.737,272.086614186
177.752,272.048597393
177.767,272.010465575
177.782,271.972218195
177.797,271.933854711
177.812,271.895374576
177.827,271.856777239
177.842,271.818062146
177.857,271.779228736
177.872,271.740276445
177.887,271.701204703
177.902,271.662012939
177.917,271.622700571
177.932,271.583267018
177.947,271.543711692
177.96,271.509331448
177.962,271.504033997
177.977,271.464233338
177.992,271.424309109
178.007,271.384260702
178.022,271.344087504
178.037,271.303788894
178.052,271.263364249
178.067,271.222812937
178.082,271.182134322
178.097,271.141327764
178.112,271.100392614
178.127,271.05932822
178.142,271.018133921
178.157,270.976809053
178.172,270.935352943
178.187,270.893764915
178.202,270.852044284
178.217,270.81019036
178.232,270.768202445
178.247,270.726079836
178.262,270.683821822
178.277,270.641427686
178.292,270.598896703
178.307,270.556228143
178.322,270.513421266
178.337,270.470475327
178.352,270.427389572
178.367,270.384163241
178.382,270.340795565
178.397,270.297285768
178.41,270.25946171
178.412,270.253633065
178.427,270.209836664
178.442,270.165895766
178.457,270.12180956
178.472,270.077577231
178.487,270.033197952
178.502,269.988670889
178.517,269.943995198
178.532,269.899170028
178.547,269.854194517
178.562,269.809067794
178.577,269.763788979
178.592,269.718357182
178.607,269.672771504
178.622,269.627031035
178.637,269.581134856
178.652,269.535082036
178.667,269.488871637
178.682,269.442502706
178.697,269.395974283
178.712,269.349285394
178.727,269.302435057
178.742,269.255422276
178.757,269.208246045
178.772,269.160905345
178.787,269.113399147
178.802,269.065726409
178.817,269.017886077
178.832,268.969877083
178.847,268.921698348
178.862,268.87334878
178.877,268.824827274
178.892,268.776132711
178.907,268.727263958
178.922,268.67821987
178.937,268.628999286
178.952,268.579601034
178.967,268.530023923
178.982,268.480266752
178.997,268.430328301
179.012,268.380207339
179.027,268.329902616
179.042,268.279412868
179.057,268.228736815
179.072,268.177873161
179.087,268.126820594
179.102,268.075577785
179.117,268.024143387
179.132,267.972516038
179.147,267.920694357
179.16,267.87562396
179.162,267.868676945
179.177,267.816462387
179.192,267.764049248
179.207,267.711436075
179.222,267.658621396
179.237,267.605603721
179.252,267.552381539
179.267,267.498953319
179.282,267.445317513
179.297,267.391472549
179.312,267.337416837
179.327,267.283148766
179.342,267.228666702
179.357,267.17396899
179.372,267.119053955
179.387,267.063919898
179.402,267.008565098
179.417,266.952987811
179.432,266.897186271
179.447,266.841158687
179.462,266.784903245
179.477,266.728418107
179.492,266.67170141
179.507,266.614751267
179.522,266.557565765
179.537,266.500142967
179.552,266.442480908
179.567,266.384577599
179.582,266.326431022
179.597,266.268039135
179.612,266.209399868
179.627,266.150511121
179.642,266.091370769
179.657,266.031976658
179.672,265.972326605
179.687,265.912418397
179.702,265.852249795
179.717,265.791818526
179.732,265.731122291
179.747,265.670158757
179.762,265.608925563
179.777,265.547420315
179.792,265.48564059
179.807,265.423583929
179.822,265.361247846
179.837,265.298629819
179.852,265.235727293
179.867,265.172537681
179.882,265.109058363
179.897,265.045286684
179.91,264.989779331
179.912,264.981219955
179.927,264.916855453
179.942,264.852190417
179.957,264.787222056
179.972,264.721947539
179.987,264.656364001
180.002,264.590468539
180.017,264.524258217
180.032,264.457730058
180.047,264.39088105
180.062,264.323708142
180.077,264.256208248
180.092,264.18837824
180.107,264.120214955
180.122,264.051715189
180.137,263.982875699
180.152,263.913693205
180.167,263.844164384
180.182,263.774285877
180.197,263.70405428
180.212,263.633466154
180.227,263.562518016
180.242,263.491206344
180.257,263.419527572
180.272,263.347478096
180.287,263.275054269
180.302,263.202252403
180.317,263.129068767
180.332,263.055499588
180.347,262.981541053
180.362,262.907189304
180.377,262.83244044
180.392,262.75729052
180.407,262.681735559
180.422,262.605771528
180.437,262.529394355
180.452,262.452599926
180.467,262.375384082
180.482,262.297742623
180.497,262.219671303
180.512,262.141165833
180.527,262.062221881
180.542,261.982835072
180.557,261.903000985
180.56,261.886980102
180.572,261.822715157
180.587,261.74197308
180.602,261.660770203
180.617,261.579101931
180.632,261.496963625
180.647,261.414350602
180.66,261.342365004
180.662,261.331258136
180.677,261.247681455
180.692,261.163615745
180.707,261.079056148
180.722,260.993997762
180.737,260.908435641
180.752,260.822364795
180.767,260.735780192
180.782,260.648676753
180.797,260.561049359
180.812,260.472892844
180.827,260.384202002
180.842,260.294971581
180.857,260.205196286
180.872,260.114870777
180.887,260.023989673
180.902,259.932547548
180.917,259.840538933
180.932,259.747958314
180.947,259.654800134
180.962,259.561058792
180.977,259.466728644
180.992,259.371804001
181.007,259.276279129
181.022,259.18014825
181.037,259.083405543
181.052,258.98604514
181.067,258.888061127
181.082,258.789447548
181.097,258.690198397
181.112,258.590307623
181.127,258.489769129
181.142,258.38857677
181.157,258.286724351
181.172,258.18420563
181.187,258.081014316
181.202,257.977144065
181.217,257.872588485
181.232,257.767341129
181.247,257.661395497
181.262,257.554745036
181.277,257.447383135
181.292,257.339303128
181.307,257.230498288
181.31,257.208649744
181.322,257.120961829
181.337,257.010686903
181.352,256.899666597
181.367,256.787893934
181.382,256.675361868
181.397,256.562063281
181.412,256.447990986
181.427,256.333137718
181.442,256.217496134
181.457,256.101058812
181.472,255.983818244
181.487,255.865766835
181.502,255.7468969
181.517,255.627200659
181.532,255.506670235
181.547,255.385297646
181.562,255.263074805
181.577,255.139993513
181.592,255.016045455
181.607,254.891222196
181.622,254.765515171
181.637,254.638915686
181.652,254.511414909
181.667,254.383003861
181.682,254.253673415
181.697,254.123414285
181.712,253.992217022
181.727,253.860072003
181.742,253.726969426
181.757,253.592899302
181.772,253.457851444
181.787,253.321815461
181.802,253.184780744
181.817,253.046736463
181.832,252.907671552
181.847,252.767574698
181.862,252.626434333
181.877,252.484238618
181.892,252.340975435
181.907,252.196632372
181.922,252.051196708
181.937,251.904655402
181.952,251.756995074
181.967,251.608201994
181.982,251.458262061
181.997,251.307160788
182.012,251.154883283
182.027,251.001414228
182.042,250.84673786
182.057,250.69083795
182.06,250.659509681
182.072,250.533697776
182.087,250.3753001
182.102,250.215627141
182.117,250.054660549
182.132,249.892381369
182.147,249.728770011
182.162,249.563806218
182.177,249.397469019
182.192,249.229736696
182.207,249.060586734
182.222,248.889995771
182.237,248.717939549
182.252,248.544392849
182.267,248.369329434
182.282,248.19272197
182.297,248.014541954
182.312,247.834759625
182.327,247.653343871
182.342,247.470262118
182.357,247.28548022
182.372,247.098962323
182.387,246.910670721
182.402,246.720565693
182.417,246.528605322
182.432,246.334745289
182.447,246.138938646
182.462,245.941135557
182.477,245.74128301
182.492,245.539324491
182.507,245.335199612
182.522,245.1288437
182.537,244.920187322
182.552,244.709155755
182.567,244.495668377
182.582,244.279637987
182.597,244.060970016
182.612,243.839561648
182.627,243.615300802
182.642,243.388064982
182.657,243.157719962
182.672,242.92411828
182.687,242.687097521
182.702,242.446478345
182.717,242.20206224
182.732,241.95362893
182.747,241.700933416
182.762,241.443702568
182.777,241.181631218
182.792,240.914377669
182.807,240.641558532
182.822,240.362742803
182.837,240.077445057
182.852,239.78511764
182.867,239.485141737
182.882,239.176817163
182.897,238.859350745
182.912,238.53184317
182.927,238.193274187
182.942,237.842486145
182.957,237.47816592
182.972,237.098825505
182.987,236.702781836
183.002,236.288136919
183.017,235.852760119
183.032,235.394275725
183.047,234.910060809
183.062,234.397261372
183.077,233.852839333
183.092,233.273669778
183.107,232.656718311
183.122,231.999343617
183.137,231.299792609
183.152,230.55798645
183.167,229.776736694
183.182,228.963579223
183.197,228.133457696
183.212,227.312488542
183.227,226.542871086
183.242,225.888233092
183.257,225.43569931
183.367,225.516637274
183.382,226.024452583
183.397,226.709915014
183.412,227.491797619
183.427,228.312534459
183.442,229.134628082
183.457,229.935272742
183.472,230.701734895
183.487,231.427893715
183.502,232.111805567
183.517,232.754053056
183.532,233.356657264
183.547,233.922378904
183.562,234.454280992
183.577,234.955463886
183.592,235.428911973
183.607,235.877411476
183.622,236.303512689
183.637,236.709519273
183.652,237.097493466
183.667,237.469270067
183.682,237.826474785
183.697,238.17054419
183.712,238.50274566
183.727,238.824196385
183.742,239.135880969
183.757,239.438667394
183.772,239.733321338
183.787,240.020518874
183.802,240.300857677
183.817,240.574866858
183.832,240.843015573
183.847,241.105720533
183.862,241.363352558
183.877,241.616242279
183.892,241.864685109
183.907,242.10894556
183.922,242.349261014
183.937,242.585844993
183.952,242.818890021
183.967,243.048570109
183.982,243.275042931
183.997,243.498451718
184.012,243.718926917
184.027,243.93658764
184.042,244.151542935
184.057,244.363892896
184.072,244.573729641
184.087,244.781138169
184.102,244.986197112
184.117,245.188979401
184.132,245.389552846
184.147,245.587980655
184.162,245.784321887
184.177,245.978631858
184.192,246.170962489
184.207,246.361362631
184.222,246.549878339
184.237,246.736553121
184.252,246.921428164
184.267,247.104542525
184.282,247.285933313
184.297,247.465635841
184.312,247.643683771
184.327,247.820109238
184.342,247.994942965
184.357,248.168214363
184.372,248.339951625
184.387,248.51018181
184.402,248.678930914
184.417,248.846223944
184.432,249.012084975
184.447,249.176537211
184.462,249.339603035
184.477,249.501304054
184.492,249.661661147
184.507,249.8206945
184.522,249.978423649
184.537,250.134867508
184.552,250.290044404
184.56,250.372293526
184.567,250.443972107
184.582,250.596667855
184.597,250.748148379
184.612,250.898429933
184.627,251.047528306
184.642,251.195458854
184.657,251.342236513
184.672,251.487875819
184.687,251.632390926
184.702,251.775795624
184.717,251.918103353
184.732,252.059327218
184.747,252.199480006
184.762,252.338574194
184.777,252.47662197
184.792,252.613635237
184.807,252.749625631
184.822,252.884604529
184.837,253.018583059
184.852,253.151572116
184.867,253.283582363
184.882,253.414624248
184.897,253.544708008
184.912,253.673843682
184.927,253.802041115
184.942,253.929309968
184.957,254.055659725
184.972,254.181099701
184.987,254.305639049
185.002,254.429286763
185.017,254.552051691
185.032,254.673942535
185.047,254.794967858
185.062,254.915136092
185.077,255.034455542
185.092,255.15293439
185.107,255.2705807
185.122,255.387402423
185.137,255.503407403
185.152,255.618603376
185.167,255.732997981
185.182,255.846598758
185.197,255.959413154
185.212,256.071448525
185.227,256.182712142
185.242,256.29321119
185.257,256.402952775
185.272,256.511943923
185.287,256.620191584
185.302,256.727702637
185.31,256.784743026
185.317,256.834483886
185.332,256.94054207
185.347,257.045883858
185.362,257.150515855
185.377,257.254444602
185.392,257.357676579
185.407,257.460218206
185.422,257.562075843
185.437,257.663255795
185.452,257.763764307
185.467,257.863607574
185.482,257.962791733
185.497,258.06132287
185.512,258.15920702
185.527,258.256450166
185.542,258.35305824
185.557,258.449037126
185.572,258.544392659
185.587,258.639130626
185.602,258.733256766
185.617,258.826776772
185.632,258.919696289
185.647,259.012020919
185.662,259.103756214
185.677,259.194907685
185.692,259.285480797
185.707,259.375480968
185.722,259.464913575
185.737,259.55378395
185.752,259.64209738
185.767,259.72985911
185.782,259.817074342
185.797,259.903748233
185.812,259.989885897
185.827,260.075492408
185.842,260.160572795
185.857,260.245132043
185.872,260.329175098
185.887,260.41270686
185.902,260.49573219
185.917,260.578255905
185.932,260.660282779
185.947,260.741817546
185.96,260.812086577
185.962,260.822864896
185.977,260.903429478
185.992,260.9835159
186.007,261.063128726
186.022,261.14227248
186.037,261.220951643
186.052,261.299170657
186.06,261.340700834
186.067,261.376933919
186.082,261.454245787
186.097,261.531110577
186.112,261.607532563
186.127,261.683515978
186.142,261.759065016
186.157,261.834183827
186.172,261.908876521
186.187,261.983147169
186.202,262.056999798
186.217,262.130438399
186.232,262.203466917
186.247,262.276089262
186.262,262.3483093
186.277,262.42013086
186.292,262.491557727
186.307,262.562593652
186.322,262.633242341
186.337,262.703507465
186.352,262.773392652
186.367,262.842901494
186.382,262.912037543
186.397,262.980804311
186.412,263.049205275
186.427,263.11724387
186.442,263.184923496
186.457,263.252247514
186.472,263.319219246
186.487,263.385841979
186.502,263.452118963
186.517,263.518053408
186.532,263.583648492
186.547,263.648907352
186.562,263.713833093
186.577,263.778428781
186.592,263.842697448
186.607,263.90664209
186.622,263.97026567
186.637,264.033571113
186.652,264.096561311
186.667,264.159239123
186.682,264.221607373
186.697,264.283668851
186.71,264.337209452
186.712,264.345426313
186.727,264.406882485
186.742,264.468040058
186.757,264.52890169
186.772,264.589470007
186.787,264.649747606
186.802,264.70973705
186.817,264.769440869
186.832,264.828861567
186.847,264.888001613
186.862,264.946863448
186.877,265.005449482
186.892,265.063762096
186.907,265.121803641
186.922,265.179576439
186.937,265.237082785
186.952,265.294324943
186.967,265.351305151
186.982,265.408025617
186.997,265.464488524
187.012,265.520696025
187.027,265.57665025
187.042,265.632353299
187.057,265.687807247
187.072,265.743014143
187.087,265.797976012
187.102,265.852694851
187.117,265.907172632
187.132,265.961411307
187.147,266.015412797
187.162,266.069179003
187.177,266.122711803
187.192,266.176013048
187.207,266.229084568
187.222,266.28192817
187.237,266.334545639
187.252,266.386938737
187.267,266.439109203
187.282,266.491058755
187.297,266.542789092
187.312,266.594301888
187.327,266.645598798
187.342,266.696681457
187.357,266.747551479
187.372,266.798210458
187.387,266.848659968
187.402,266.898901563
187.417,266.948936781
187.432,266.998767137
187.447,267.048394129
187.46,267.091240834
187.462,267.097819237
187.477,267.147043923
187.492,267.19606963
187.507,267.244897784
187.522,267.293529793
187.537,267.34196705
187.552,267.390210928
187.567,267.438262786
187.582,267.486123965
187.597,267.53379579
187.612,267.581279571
187.627,267.628576601
187.642,267.675688158
187.657,267.722615506
187.672,267.769359893
187.687,267.81592255
187.702,267.862304698
187.717,267.908507539
187.732,267.954532264
187.747,268.00038005
187.762,268.046052057
187.777,268.091549435
187.792,268.13687332
187.807,268.182024833
187.822,268.227005084
187.837,268.27181517
187.852,268.316456174
187.867,268.360929168
187.882,268.405235211
187.897,268.449375351
187.912,268.493350624
187.927,268.537162054
187.942,268.580810652
187.957,268.624297421
187.972,268.667623351
187.987,268.71078942
188.002,268.753796597
188.017,268.79664584
188.032,268.839338096
188.047,268.881874302
188.062,268.924255385
188.077,268.966482261
188.092,269.008555839
188.107,269.050477015
188.122,269.092246676
188.137,269.133865702
188.152,269.175334961
188.167,269.216655314
188.182,269.257827611
188.197,269.298852695
188.21,269.334289332
188.212,269.339731398
188.227,269.380464547
188.242,269.421052957
188.257,269.461497436
188.272,269.501798785
188.287,269.541957795
188.302,269.581975251
188.317,269.621851927
188.332,269.661588593
188.347,269.701186009
188.362,269.740644928
188.377,269.779966097
188.392,269.819150254
188.407,269.85819813
188.422,269.89711045
188.437,269.935887931
188.452,269.974531283
188.467,270.013041212
188.482,270.051418413
188.497,270.089663578
188.512,270.12777739
188.527,270.165760528
188.542,270.203613664
188.557,270.241337461
188.572,270.278932581
188.587,270.316399676
188.602,270.353739394
188.617,270.390952376
188.632,270.428039258
188.647,270.46500067
188.66,270.496932887
188.662,270.501837238
188.677,270.53854958
188.692,270.57513831
188.707,270.611604036
188.722,270.647947361
188.737,270.684168884
