# 10410 EDZE Essen Observations at 12Z 20 Feb 2020
Frequency [GHz],TB
175.31,267.864893912
175.322,267.884532502
175.337,267.908919091
175.352,267.93312505
175.367,267.957149271
175.382,267.980990658
175.397,268.004648113
175.412,268.028120534
175.427,268.051406828
175.442,268.074505896
175.457,268.097416648
175.472,268.120137987
175.487,268.142668824
175.502,268.165008065
175.517,268.187154625
175.532,268.209107415
175.547,268.230865355
175.562,268.252427355
175.577,268.273792337
175.592,268.294959224
175.607,268.315926938
175.622,268.336694404
175.637,268.357260551
175.652,268.377624311
175.667,268.397784616
175.682,268.417740401
175.697,268.437490609
175.712,268.457034179
175.727,268.476370057
175.742,268.495497193
175.757,268.514414537
175.772,268.533121045
175.787,268.551615678
175.802,268.569897395
175.817,268.587965162
175.832,268.605817953
175.847,268.62345474
175.862,268.640874502
175.877,268.65807622
175.892,268.675058885
175.907,268.691821481
175.922,268.708363015
175.937,268.724682479
175.952,268.740778881
175.967,268.756651231
175.982,268.772298551
175.997,268.787719853
176.012,268.802914167
176.027,268.817880527
176.042,268.832617968
176.057,268.847125532
176.072,268.861402272
176.087,268.875447237
176.102,268.88925949
176.117,268.9028381
176.132,268.916182138
176.147,268.929290686
176.162,268.94216283
176.177,268.95479766
176.192,268.967194279
176.207,268.979351793
176.222,268.991269314
176.237,269.002945966
176.252,269.014380872
176.267,269.025573175
176.282,269.036522013
176.297,269.047226539
176.31,269.056305522
176.312,269.05768591
176.327,269.067899294
176.342,269.077865864
176.357,269.087584805
176.372,269.097055306
176.387,269.106276568
176.402,269.115247799
176.417,269.123968213
176.432,269.132437037
176.447,269.140653506
176.46,269.147569732
176.462,269.148616861
176.477,269.156326357
176.492,269.163781254
176.507,269.170980821
176.522,269.177924343
176.537,269.184611106
176.552,269.191040407
176.567,269.197211562
176.582,269.203123885
176.597,269.208776707
176.612,269.214169367
176.627,269.219301215
176.642,269.224171609
176.657,269.22877992
176.672,269.233125531
176.687,269.237207829
176.702,269.241026218
176.717,269.244580111
176.732,269.247868931
176.747,269.250892114
176.762,269.253649104
176.777,269.256139358
176.792,269.258362345
176.807,269.260317543
176.822,269.262004446
176.837,269.263422554
176.852,269.264571383
176.867,269.265450453
176.882,269.266059306
176.897,269.266397493
176.912,269.26646457
176.927,269.266260113
176.942,269.265783706
176.957,269.265034947
176.972,269.264013441
176.987,269.262718814
177.002,269.261150698
177.017,269.259308738
177.032,269.257192591
177.047,269.254801927
177.062,269.25213643
177.077,269.249195795
177.092,269.245979731
177.107,269.242487953
177.122,269.238720199
177.137,269.23467621
177.152,269.230355744
177.167,269.225758571
177.182,269.220884475
177.197,269.215733248
177.21,269.211044536
177.212,269.2103047
177.227,269.204598649
177.242,269.198614929
177.257,269.192353385
177.272,269.185813873
177.287,269.178996265
177.302,269.171900441
177.31,269.168002206
177.317,269.164526296
177.332,269.156873739
177.347,269.148942689
177.362,269.140733076
177.377,269.132244844
177.392,269.123477951
177.407,269.114432362
177.422,269.105108061
177.437,269.095505037
177.452,269.085623295
177.467,269.075462851
177.482,269.065023732
177.497,269.054305977
177.512,269.043309638
177.527,269.032034773
177.542,269.02048146
177.557,269.008649779
177.572,268.996539827
177.587,268.984151712
177.602,268.971485549
177.617,268.958541465
177.632,268.945319601
177.647,268.931820103
177.66,268.919896086
177.662,268.91804313
177.677,268.90398885
177.692,268.889657443
177.707,268.875049093
177.722,268.860164003
177.737,268.845002375
177.752,268.829564426
177.767,268.813850382
177.782,268.797860475
177.797,268.781594946
177.812,268.765054043
177.827,268.748238026
177.842,268.731147159
177.857,268.713781716
177.872,268.696141975
177.887,268.678228224
177.902,268.660040754
177.917,268.641579867
177.932,268.622845868
177.947,268.603839068
177.96,268.587146088
177.962,268.584559785
177.977,268.565008338
177.992,268.545185058
178.007,268.525090275
178.022,268.504724323
178.037,268.484087545
178.052,268.46318028
178.067,268.442002877
178.082,268.420555684
178.097,268.398839051
178.112,268.376853334
178.127,268.354598886
178.142,268.332076067
178.157,268.309285232
178.172,268.286226737
178.187,268.262900944
178.202,268.239308207
178.217,268.215448886
178.232,268.191323335
178.247,268.166931908
178.262,268.14227496
178.277,268.117352838
178.292,268.092165888
178.307,268.066714456
178.322,268.04099888
178.337,268.015019495
178.352,267.988776632
178.367,267.962270615
178.382,267.935501763
178.397,267.908470391
178.41,267.884831085
178.412,267.881176801
178.427,267.853621295
178.442,267.825804162
178.457,267.797725686
178.472,267.769386139
178.487,267.740785785
178.502,267.711924878
178.517,267.682803663
178.532,267.65342237
178.547,267.62378122
178.562,267.593880424
178.577,267.563720173
178.592,267.533300654
178.607,267.502622033
178.622,267.471684464
178.637,267.440488084
178.652,267.409033018
178.667,267.377319373
178.682,267.345347237
178.697,267.313116684
178.712,267.280627766
178.727,267.24788052
178.742,267.214874961
178.757,267.181611086
178.772,267.14808887
178.787,267.114308267
178.802,267.080269209
178.817,267.045971606
178.832,267.011415347
178.847,266.976600291
178.862,266.941526279
178.877,266.906193124
178.892,266.870600617
178.907,266.834748514
178.922,266.798636555
178.937,266.762264443
178.952,266.72563186
178.967,266.688738455
178.982,266.651583848
178.997,266.614167628
179.012,266.576489358
179.027,266.538548563
179.042,266.500344741
179.057,266.461877351
179.072,266.423145828
179.087,266.384149563
179.102,266.34488792
179.117,266.305360222
179.132,266.26556576
179.147,266.225503786
179.16,266.190566416
179.162,266.185173515
179.177,266.144574126
179.192,266.103704757
179.207,266.062564507
179.222,266.021152435
179.237,265.979467563
179.252,265.937508868
179.267,265.895275285
179.282,265.85276571
179.297,265.809978992
179.312,265.76691394
179.327,265.723569316
179.342,265.679943839
179.357,265.636036182
179.372,265.591844972
179.387,265.547368788
179.402,265.502606163
179.417,265.457555584
179.432,265.412215484
179.447,265.366584255
179.462,265.320660232
179.477,265.274441705
179.492,265.227926909
179.507,265.181114031
179.522,265.134001206
179.537,265.086586513
179.552,265.038867985
179.567,264.990843594
179.582,264.942511263
179.597,264.893868859
179.612,264.844914193
179.627,264.795645023
179.642,264.746059048
179.657,264.696153914
179.672,264.645927206
179.687,264.595376455
179.702,264.544499131
179.717,264.493292649
179.732,264.441754363
179.747,264.38988157
179.762,264.337671503
179.777,264.285121339
179.792,264.232228193
179.807,264.178989118
179.822,264.125401109
179.837,264.071461096
179.852,264.017165948
179.867,263.962512472
179.882,263.907497412
179.897,263.852117449
179.91,263.803823703
179.912,263.796369202
179.927,263.740249223
179.942,263.683754003
179.957,263.626879968
179.972,263.569623478
179.987,263.511980831
180.002,263.453948257
180.017,263.395521923
180.032,263.33669793
180.047,263.277472313
180.062,263.21784104
180.077,263.157800017
180.092,263.097345079
180.107,263.036471998
180.122,262.975176479
180.137,262.91345416
180.152,262.851300613
180.167,262.788711344
180.182,262.725681792
180.197,262.662207328
180.212,262.59828326
180.227,262.533904827
180.242,262.469067201
180.257,262.403765491
180.272,262.337994737
180.287,262.271749914
180.302,262.205025931
180.317,262.137817634
180.332,262.070119797
180.347,262.001927137
180.362,261.933234301
180.377,261.864035874
180.392,261.794326377
180.407,261.724100265
180.422,261.653351933
180.437,261.582075713
180.452,261.510265871
180.467,261.437916616
180.482,261.365022096
180.497,261.291576395
180.512,261.217573541
180.527,261.143007501
180.542,261.067872185
180.557,260.992161448
180.56,260.976949705
180.572,260.915869084
180.587,260.838988835
180.602,260.761514388
180.617,260.683439378
180.632,260.604757386
180.647,260.525461943
180.66,260.456237976
180.662,260.445546531
180.677,260.365004584
180.692,260.283829486
180.707,260.202014579
180.722,260.119553162
180.737,260.036438487
180.752,259.95266377
180.767,259.868222187
180.782,259.783106876
180.797,259.69731094
180.812,259.610827451
180.827,259.523649448
180.842,259.435769943
180.857,259.347181921
180.872,259.257878342
180.887,259.167852147
180.902,259.077096256
180.917,258.985603574
180.932,258.893366993
180.947,258.800379394
180.962,258.706633651
180.977,258.612122635
180.992,258.516839214
181.007,258.420776262
181.022,258.323926656
181.037,258.226283285
181.052,258.127839051
181.067,258.028586876
181.082,257.9285197
181.097,257.827630494
181.112,257.725912255
181.127,257.623358019
181.142,257.519960862
181.157,257.415713903
181.172,257.310610313
181.187,257.204643317
181.202,257.097806203
181.217,256.990092324
181.232,256.881495107
181.247,256.772008057
181.262,256.661624763
181.277,256.550338907
181.292,256.438144267
181.307,256.325034729
181.31,256.302302503
181.322,256.211004288
181.337,256.09604706
181.352,255.980157289
181.367,255.863329352
181.382,255.74555777
181.397,255.626837214
181.412,255.507162517
181.427,255.38652868
181.442,255.264930881
181.457,255.142364486
181.472,255.018825058
181.487,254.894308367
181.502,254.7688104
181.517,254.642327372
181.532,254.514855737
181.547,254.386392199
181.562,254.256933721
181.577,254.126477543
181.592,253.995021188
181.607,253.862562479
181.622,253.729099547
181.637,253.59463085
181.652,253.459155182
181.667,253.322671689
181.682,253.185179884
181.697,253.04667966
181.712,252.907171305
181.727,252.766655521
181.742,252.625133434
181.757,252.482606618
181.772,252.339077102
181.787,252.194547398
181.802,252.049020509
181.817,251.902499955
181.832,251.754989784
181.847,251.606494598
181.862,251.457019565
181.877,251.306570448
181.892,251.155153616
181.907,251.00277607
181.922,250.849445464
181.937,250.695170124
181.952,250.539959074
181.967,250.383822054
181.982,250.226769547
181.997,250.068812801
182.012,249.909963852
182.027,249.750235549
182.042,249.589641581
182.057,249.428196499
182.06,249.395806692
182.072,249.265915745
182.087,249.102815673
182.102,248.938913583
182.117,248.774227742
182.132,248.608777413
182.147,248.442582883
182.162,248.275665491
182.177,248.108047657
182.192,247.939752908
182.207,247.77080591
182.222,247.601232493
182.237,247.431059684
182.252,247.260315732
182.267,247.089030141
182.282,246.917233695
182.297,246.744958488
182.312,246.572237953
182.327,246.399106889
182.342,246.225601486
182.357,246.051759356
182.372,245.877619551
182.387,245.703222595
182.402,245.528610499
182.417,245.353826788
182.432,245.178916514
182.447,245.003926274
182.462,244.828904223
182.477,244.653900085
182.492,244.478965152
182.507,244.304152291
182.522,244.129515932
182.537,243.955112063
182.552,243.780998202
182.567,243.607233372
182.582,243.433878064
182.597,243.260994177
182.612,243.088644959
182.627,242.916894924
182.642,242.745809745
182.657,242.575456135
182.672,242.405901694
182.687,242.23721473
182.702,242.06946404
182.717,241.902718658
182.732,241.737047543
182.747,241.572519222
182.762,241.409201356
182.777,241.247160232
182.792,241.086460166
182.807,240.927162785
182.822,240.769326187
182.837,240.61300394
182.852,240.45824389
182.867,240.305086748
182.882,240.153564391
182.897,240.003697835
182.912,239.855494787
182.927,239.708946684
182.942,239.564025092
182.957,239.420677295
182.972,239.278820858
182.987,239.138336867
183.002,238.999061455
183.017,238.860775069
183.032,238.723188734
183.047,238.585926242
183.062,238.448500771
183.077,238.31028371
183.092,238.170462414
183.107,238.027981923
183.122,237.881462931
183.137,237.729083784
183.152,237.568406591
183.167,237.396114234
183.182,237.207601334
183.197,236.996319671
183.212,236.752702912
183.227,236.462372972
183.242,236.103208065
183.257,235.641241972
183.367,235.751896336
183.382,236.179257074
183.397,236.513772395
183.412,236.78601079
183.427,237.015775834
183.442,237.216000208
183.457,237.395349712
183.472,237.559798338
183.487,237.713574426
183.502,237.859740148
183.517,238.000556218
183.532,238.137718085
183.547,238.272513157
183.562,238.405928171
183.577,238.538724266
183.592,238.671490592
183.607,238.804683361
183.622,238.93865478
183.637,239.073674847
183.652,239.209948002
183.667,239.347626016
183.682,239.486818088
183.697,239.627598842
183.712,239.770014715
183.727,239.914089109
183.742,240.05982658
183.757,240.207216258
183.772,240.356234668
183.787,240.50684806
183.802,240.659014347
183.817,240.812684724
183.832,240.967805018
183.847,241.124316825
183.862,241.282158472
183.877,241.441265813
183.892,241.60157292
183.907,241.763012648
183.922,241.925517126
183.937,242.089018163
183.952,242.253447597
183.967,242.418737581
183.982,242.584820828
183.997,242.751630821
184.012,242.919101973
184.027,243.087169778
184.042,243.255770921
184.057,243.424843374
184.072,243.594326474
184.087,243.76416098
184.102,243.934289124
184.117,244.104654642
184.132,244.275202801
184.147,244.445880414
184.162,244.616635854
184.177,244.787419047
184.192,244.95818148
184.207,245.128876185
184.222,245.299457733
184.237,245.469882217
184.252,245.640107234
184.267,245.810091868
184.282,245.979796665
184.297,246.149183609
184.312,246.3182161
184.327,246.486858926
184.342,246.655078237
184.357,246.822841516
184.372,246.990117552
184.387,247.15687641
184.402,247.323089404
184.417,247.488729067
184.432,247.653769121
184.447,247.818184449
184.462,247.981951067
184.477,248.145046092
184.492,248.307447719
184.507,248.469135184
184.522,248.630088746
184.537,248.790289652
184.552,248.949720111
184.56,249.034428805
184.567,249.108363269
184.582,249.266203182
184.597,249.423224789
184.612,249.579413885
184.627,249.7347571
184.642,249.889241868
184.657,250.042856409
184.672,250.1955897
184.687,250.347431456
184.702,250.498372104
184.717,250.64840276
184.732,250.79751521
184.747,250.945701887
184.762,251.092955848
184.777,251.239270759
184.792,251.384640869
184.807,251.529060992
184.822,251.672526489
184.837,251.815033251
184.852,251.956577677
184.867,252.097156657
184.882,252.236767557
184.897,252.3754082
184.912,252.513076851
184.927,252.649772199
184.942,252.785493341
184.957,252.920239772
184.972,253.054011364
184.987,253.186808352
185.002,253.318631325
185.017,253.449481208
185.032,253.579359249
185.047,253.708267006
185.062,253.836206338
185.077,253.963179388
185.092,254.089188572
185.107,254.214236571
185.122,254.338326315
185.137,254.461460975
185.152,254.583643951
185.167,254.704878864
185.182,254.825169541
185.197,254.944520012
185.212,255.062934496
185.227,255.180417391
185.242,255.296973269
185.257,255.412606864
185.272,255.527323068
185.287,255.641126916
185.302,255.754023584
185.31,255.813866032
185.317,255.86601838
185.332,255.977116735
185.347,256.087324197
185.362,256.196646425
185.377,256.30508918
185.392,256.412658319
185.407,256.519359793
185.422,256.625199633
185.437,256.730183953
185.452,256.834318935
185.467,256.937610832
185.482,257.040065957
185.497,257.141690682
185.512,257.242491427
185.527,257.342474663
185.542,257.441646901
185.557,257.540014692
185.572,257.637584618
185.587,257.734363293
185.602,257.830357353
185.617,257.92557346
185.632,258.02001829
185.647,258.113698536
185.662,258.206620899
185.677,258.298792089
185.692,258.39021882
185.707,258.480907807
185.722,258.570865763
185.737,258.660099396
185.752,258.748615407
185.767,258.836420485
185.782,258.923521309
185.797,259.00992454
185.812,259.095636825
185.827,259.180664787
185.842,259.265015031
185.857,259.348694135
185.872,259.431708652
185.887,259.514065108
185.902,259.595769999
185.917,259.67682979
185.932,259.757250911
185.947,259.837039759
185.96,259.905683573
185.962,259.916202695
185.977,259.994746044
185.992,260.072676088
186.007,260.149999072
186.022,260.2267212
186.037,260.302848631
186.052,260.378387482
186.06,260.418436305
186.067,260.453343826
186.082,260.527723689
186.097,260.60153305
186.112,260.674777841
186.127,260.747463948
186.142,260.819597204
186.157,260.891183394
186.172,260.962228254
186.187,261.032737467
186.202,261.102716664
186.217,261.172171424
186.232,261.241107275
186.247,261.309529689
186.262,261.377444086
186.277,261.444855831
186.292,261.511770235
186.307,261.578192554
186.322,261.644127988
186.337,261.709581684
186.352,261.774558731
186.367,261.839064162
186.382,261.903102956
186.397,261.966680033
186.412,262.029800261
186.427,262.092468448
186.442,262.154689344
186.457,262.216467647
186.472,262.277807994
186.487,262.33871497
186.502,262.3991931
186.517,262.459246852
186.532,262.51888064
186.547,262.57809882
186.562,262.636905691
186.577,262.695305498
186.592,262.753302428
186.607,262.81090061
186.622,262.868104123
186.637,262.924916985
186.652,262.981343159
186.667,263.037386556
186.682,263.093051028
186.697,263.148340374
186.71,263.195957268
186.712,263.203258339
186.727,263.25780861
186.742,263.311994826
186.757,263.365820565
186.772,263.419289356
186.787,263.472404674
186.802,263.525169939
186.817,263.577588519
186.832,263.629663731
186.847,263.681398838
186.862,263.732797052
186.877,263.783861534
186.892,263.834595392
186.907,263.885001684
186.922,263.93508342
186.937,263.984843556
186.952,264.034285
186.967,264.083410611
186.982,264.132223199
186.997,264.180725524
187.012,264.228920301
187.027,264.276810194
187.042,264.32439782
187.057,264.37168575
187.072,264.418676508
187.087,264.465372573
187.102,264.511776376
187.117,264.557890305
187.132,264.603716701
187.147,264.649257861
187.162,264.69451604
187.177,264.739493447
187.192,264.784192249
187.207,264.828614571
187.222,264.872762492
187.237,264.916638054
187.252,264.960243255
187.267,265.003580053
187.282,265.046650366
187.297,265.089456069
187.312,265.131999
187.327,265.174280959
187.342,265.216303705
187.357,265.25806896
187.372,265.299578408
187.387,265.340833696
187.402,265.381836434
187.417,265.422588195
187.432,265.463090519
187.447,265.503344906
187.46,265.538032625
187.462,265.543352825
187.477,265.583115711
187.492,265.622634961
187.507,265.661911942
187.522,265.700947987
187.537,265.739744396
187.552,265.778302439
187.567,265.816623352
187.582,265.854708339
187.597,265.892558577
187.612,265.930175211
187.627,265.967559356
187.642,266.004712099
187.657,266.041634497
187.672,266.078327578
187.687,266.114792345
187.702,266.151029771
187.717,266.187040804
187.732,266.222826365
187.747,266.258387348
187.762,266.293724622
187.777,266.328839034
187.792,266.363731403
187.807,266.398402523
187.822,266.432853168
187.837,266.467084087
187.852,266.501096007
187.867,266.534889631
187.882,266.568465642
187.897,266.601824701
187.912,266.634967448
187.927,266.667894503
187.942,266.700606466
187.957,266.733103916
187.972,266.765387414
187.987,266.797457505
188.002,266.829314711
188.017,266.860959537
188.032,266.892392473
188.047,266.923613992
188.062,266.954624547
188.077,266.985424579
188.092,267.01601451
188.107,267.046394749
188.122,267.07656569
188.137,267.106527709
188.152,267.136281173
188.167,267.165826432
188.182,267.195163822
188.197,267.22429367
188.21,267.2493719
188.212,267.253216287
188.227,267.281931974
188.242,267.310441017
188.257,267.338743694
188.272,267.366840272
188.287,267.394731005
188.302,267.422416138
188.317,267.449895906
188.332,267.477170534
188.347,267.504240239
188.362,267.531105228
188.377,267.557765701
188.392,267.584221848
188.407,267.610473852
188.422,267.636521888
188.437,267.662366125
188.452,267.688006725
188.467,267.713443841
188.482,267.738677623
188.497,267.763708215
188.512,267.788535755
188.527,267.813160372
188.542,267.837582196
188.557,267.861801347
188.572,267.885817946
188.587,267.909632107
188.602,267.933243937
188.617,267.956653545
188.632,267.979861036
188.647,268.002866507
188.66,268.022641249
188.662,268.025670061
188.677,268.048271788
188.692,268.070671785
188.707,268.092870141
188.722,268.114866946
188.737,268.13666229
