# 78954 TBPB Grantley Adams Observations at 12Z 20 Jun 2019
Frequency [GHz],TB
175.31,278.558298119
175.322,278.535107848
175.337,278.506041143
175.352,278.476886618
175.367,278.447644071
175.382,278.418313297
175.397,278.388894094
175.412,278.359386253
175.427,278.32978957
175.442,278.300103835
175.457,278.270328841
175.472,278.240464377
175.487,278.210510233
175.502,278.180466196
175.517,278.150332054
175.532,278.120107593
175.547,278.089792597
175.562,278.059386852
175.577,278.028890139
175.592,277.99830224
175.607,277.967622937
175.622,277.93685201
175.637,277.905989236
175.652,277.875034394
175.667,277.84398726
175.682,277.81284761
175.697,277.781615218
175.712,277.750289858
175.727,277.718871303
175.742,277.687359323
175.757,277.655753689
175.772,277.62405417
175.787,277.592260535
175.802,277.56037255
175.817,277.528389981
175.832,277.496312594
175.847,277.464140153
175.862,277.431872419
175.877,277.399509156
175.892,277.367050124
175.907,277.334495082
175.922,277.30184379
175.937,277.269096004
175.952,277.236251483
175.967,277.20330998
175.982,277.17027125
175.997,277.137135048
176.012,277.103901125
176.027,277.070569232
176.042,277.03713912
176.057,277.003610539
176.072,276.969983237
176.087,276.93625696
176.102,276.902431455
176.117,276.868506468
176.132,276.834481742
176.147,276.800357021
176.162,276.766132047
176.177,276.731806562
176.192,276.697380304
176.207,276.662853014
176.222,276.628224431
176.237,276.59349429
176.252,276.558662329
176.267,276.523728283
176.282,276.488691886
176.297,276.453552872
176.31,276.423015848
176.312,276.418310974
176.327,276.382965922
176.342,276.347517448
176.357,276.311965281
176.372,276.276309151
176.387,276.240548784
176.402,276.204683909
176.417,276.168714251
176.432,276.132639536
176.447,276.096459487
176.46,276.065018029
176.462,276.060173829
176.477,276.023782285
176.492,275.987284575
176.507,275.950680422
176.522,275.913969544
176.537,275.877151663
176.552,275.840226496
176.567,275.80319376
176.582,275.766053174
176.597,275.728804453
176.612,275.691447313
176.627,275.653981467
176.642,275.616406632
176.657,275.578722519
176.672,275.540928841
176.687,275.50302531
176.702,275.465011637
176.717,275.426887532
176.732,275.388652706
176.747,275.350306867
176.762,275.311849723
176.777,275.273280983
176.792,275.234600354
176.807,275.195807542
176.822,275.156902253
176.837,275.117884193
176.852,275.078753066
176.867,275.039508577
176.882,275.000150429
176.897,274.960678326
176.912,274.921091969
176.927,274.881391062
176.942,274.841575305
176.957,274.8016444
176.972,274.761598048
176.987,274.721435948
177.002,274.681157801
177.017,274.640763305
177.032,274.60025216
177.047,274.559624064
177.062,274.518878714
177.077,274.47801581
177.092,274.437035047
177.107,274.395936123
177.122,274.354718735
177.137,274.313382578
177.152,274.271927348
177.167,274.230352742
177.182,274.188658454
177.197,274.14684418
177.21,274.11050785
177.212,274.104909614
177.227,274.06285445
177.242,274.020678383
177.257,273.978381107
177.272,273.935962315
177.287,273.8934217
177.302,273.850758957
177.31,273.827955451
177.317,273.807973779
177.332,273.765065857
177.347,273.722034884
177.362,273.678880554
177.377,273.635602558
177.392,273.592200589
177.407,273.548674338
177.422,273.505023497
177.437,273.461247758
177.452,273.417346813
177.467,273.373320353
177.482,273.329168068
177.497,273.284889651
177.512,273.240484792
177.527,273.195953182
177.542,273.151294512
177.557,273.106508472
177.572,273.061594754
177.587,273.016553047
177.602,272.971383041
177.617,272.926084428
177.632,272.880656896
177.647,272.835100136
177.66,272.79551284
177.662,272.789413838
177.677,272.743597691
177.692,272.697651384
177.707,272.651574608
177.722,272.605367051
177.737,272.559028403
177.752,272.512558352
177.767,272.465956587
177.782,272.419222796
177.797,272.372356668
177.812,272.325357891
177.827,272.278226153
177.842,272.23096114
177.857,272.183562541
177.872,272.136030042
177.887,272.08836333
177.902,272.040562092
177.917,271.992626012
177.932,271.944554778
177.947,271.896348073
177.96,271.854459104
177.962,271.848005582
177.977,271.79952699
177.992,271.75091198
178.007,271.702160236
178.022,271.653271439
178.037,271.604245271
178.052,271.555081415
178.067,271.505779549
178.082,271.456339354
178.097,271.406760509
178.112,271.357042691
178.127,271.307185578
178.142,271.257188846
178.157,271.207052169
178.172,271.156775222
178.187,271.106357678
178.202,271.055799208
178.217,271.005099482
178.232,270.95425817
178.247,270.903274938
178.262,270.852149454
178.277,270.80088138
178.292,270.749470381
178.307,270.697916117
178.322,270.646218247
178.337,270.594376428
178.352,270.542390316
178.367,270.490259563
178.382,270.437983821
178.397,270.385562737
178.41,270.340013293
178.412,270.332995958
178.427,270.280283127
178.442,270.227423885
178.457,270.174417869
178.472,270.121264715
178.487,270.067964055
178.502,270.014515516
178.517,269.960918725
178.532,269.907173304
178.547,269.85327887
178.562,269.799235037
178.577,269.745041417
178.592,269.690697616
178.607,269.636203235
178.622,269.581557873
178.637,269.526761121
178.652,269.47181257
178.667,269.4167118
178.682,269.361458392
178.697,269.306051916
178.712,269.250491941
178.727,269.194778026
178.742,269.138909728
178.757,269.082886595
178.772,269.026708169
178.787,268.970373986
178.802,268.913883575
178.817,268.857236458
178.832,268.800432147
178.847,268.74347015
178.862,268.686349965
178.877,268.629071081
178.892,268.571632981
178.907,268.514035136
178.922,268.45627701
178.937,268.398358058
178.952,268.340277724
178.967,268.28203544
178.982,268.223630633
178.997,268.165062714
179.012,268.106331085
179.027,268.047435137
179.042,267.988374249
179.057,267.929147787
179.072,267.869755105
179.087,267.810195545
179.102,267.750468433
179.117,267.690573085
179.132,267.6305088
179.147,267.570274863
179.16,267.517934325
179.162,267.509870545
179.177,267.449295101
179.192,267.38854777
179.207,267.327627774
179.222,267.26653432
179.237,267.205266596
179.252,267.143823773
179.267,267.082205004
179.282,267.020409423
179.297,266.958436145
179.312,266.896284263
179.327,266.833952854
179.342,266.771440969
179.357,266.708747642
179.372,266.645871882
179.387,266.582812677
179.402,266.519568992
179.417,266.456139765
179.432,266.392523915
179.447,266.32872033
179.462,266.264727878
179.477,266.200545396
179.492,266.136171697
179.507,266.071605564
179.522,266.006845755
179.537,265.941890995
179.552,265.876739981
179.567,265.811391381
179.582,265.74584383
179.597,265.680095931
179.612,265.614146254
179.627,265.547993338
179.642,265.481635684
179.657,265.415071762
179.672,265.348300002
179.687,265.281318801
179.702,265.214126516
179.717,265.146721467
179.732,265.079101933
179.747,265.011266156
179.762,264.943212334
179.777,264.874938625
179.792,264.806443142
179.807,264.737723958
179.822,264.668779098
179.837,264.599606543
179.852,264.530204227
179.867,264.460570036
179.882,264.390701809
179.897,264.320597335
179.91,264.259647278
179.912,264.25025435
179.927,264.179670543
179.942,264.108843546
179.957,264.03777094
179.972,263.966450251
179.987,263.894878948
180.002,263.823054445
180.017,263.750974096
180.032,263.678635197
180.047,263.606034983
180.062,263.53317063
180.077,263.460039249
180.092,263.386637887
180.107,263.312963529
180.122,263.23901309
180.137,263.164783422
180.152,263.090271304
180.167,263.015473449
180.182,262.940386497
180.197,262.865007017
180.212,262.789331503
180.227,262.713356376
180.242,262.637077979
180.257,262.560492579
180.272,262.483596364
180.287,262.406385441
180.302,262.328855837
180.317,262.251003496
180.332,262.172824278
180.347,262.094313956
180.362,262.015468218
180.377,261.936282664
180.392,261.856752802
180.407,261.776874051
180.422,261.696641738
180.437,261.616051093
180.452,261.535097255
180.467,261.453775264
180.482,261.37208006
180.497,261.290006487
180.512,261.207549284
180.527,261.124703091
180.542,261.041462442
180.557,260.957821766
180.56,260.941045129
180.572,260.873775383
180.587,260.789317508
180.602,260.704442242
180.617,260.619143577
180.632,260.533415392
180.647,260.447251449
180.66,260.372218646
180.662,260.360645397
180.677,260.273590764
180.692,260.186080963
180.707,260.098109282
180.722,260.00966889
180.737,259.920752831
180.752,259.831354024
180.767,259.74146526
180.782,259.651079205
180.797,259.560188393
180.812,259.468785227
180.827,259.376861978
180.842,259.284410782
180.857,259.191423641
180.872,259.09789242
180.887,259.003808843
180.902,258.909164498
180.917,258.813950829
180.932,258.718159139
180.947,258.621780586
180.962,258.524806186
180.977,258.427226803
180.992,258.329033159
181.007,258.230215824
181.022,258.130765217
181.037,258.030671609
181.052,257.929925117
181.067,257.828515703
181.082,257.726433176
181.097,257.62366719
181.112,257.520207242
181.127,257.416042672
181.142,257.31116266
181.157,257.205556229
181.172,257.099212242
181.187,256.992119402
181.202,256.88426625
181.217,256.775641166
181.232,256.66623237
181.247,256.556027917
181.262,256.445015702
181.277,256.333183457
181.292,256.22051875
181.307,256.107008987
181.31,256.084204509
181.322,255.992641414
181.337,255.877403113
181.352,255.761281003
181.367,255.644261844
181.382,255.526332236
181.397,255.407478616
181.412,255.287687266
181.427,255.166944307
181.442,255.045235705
181.457,254.922547272
181.472,254.798864664
181.487,254.674173386
181.502,254.548458793
181.517,254.421706093
181.532,254.293900346
181.547,254.16502647
181.562,254.035069244
181.577,253.904013304
181.592,253.771843158
181.607,253.638543177
181.622,253.504097605
181.637,253.368490564
181.652,253.231706053
181.667,253.093727954
181.682,252.954540038
181.697,252.814125969
181.712,252.672469305
181.727,252.529553508
181.742,252.385361946
181.757,252.2398779
181.772,252.093084567
181.787,251.944965067
181.802,251.795502451
181.817,251.6446797
181.832,251.49247974
181.847,251.338885441
181.862,251.183879624
181.877,251.027445069
181.892,250.86956452
181.907,250.710220691
181.922,250.549396269
181.937,250.387073922
181.952,250.223236303
181.967,250.057866053
181.982,249.890945809
181.997,249.722458202
182.012,249.552385863
182.027,249.380711423
182.042,249.207417514
182.057,249.032486769
182.06,248.997302671
182.072,248.855901819
182.087,248.677645289
182.102,248.497699795
182.117,248.316047931
182.132,248.132672265
182.147,247.947555323
182.162,247.760679572
182.177,247.572027404
182.192,247.38158111
182.207,247.189322855
182.222,246.995234642
182.237,246.799298279
182.252,246.60149533
182.267,246.40180707
182.282,246.200214422
182.297,245.996697891
182.312,245.791237492
182.327,245.58381266
182.342,245.374402153
182.357,245.16298394
182.372,244.94953508
182.387,244.734031577
182.402,244.516448221
182.417,244.296758414
182.432,244.074933964
182.447,243.850944863
182.462,243.624759033
182.477,243.396342046
182.492,243.165656802
182.507,242.932663178
182.522,242.697317628
182.537,242.459572737
182.552,242.219376721
182.567,241.976672867
182.582,241.731398905
182.597,241.483486302
182.612,241.232859472
182.627,240.979434888
182.642,240.72312008
182.657,240.463812512
182.672,240.201398322
182.687,239.935750891
182.702,239.666729242
182.717,239.394176226
182.732,239.117916481
182.747,238.837754121
182.762,238.553470134
182.777,238.264819437
182.792,237.971527552
182.807,237.673286856
182.822,237.369752356
182.837,237.060536931
182.852,236.745205989
182.867,236.423271499
182.882,236.09418534
182.897,235.757331958
182.912,235.412020325
182.927,235.057475264
182.942,234.692828266
182.957,234.317108067
182.972,233.929231434
182.987,233.527994899
183.002,233.112068612
183.017,232.679994165
183.032,232.230189154
183.047,231.760962734
183.062,231.270548494
183.077,230.75716408
183.092,230.219111429
183.107,229.654937899
183.122,229.063687495
183.137,228.445283543
183.152,227.801099641
183.167,227.134793065
183.182,226.453487829
183.197,225.769385051
183.212,225.101797925
183.227,224.479338351
183.242,223.941242897
183.257,223.535014177
183.367,223.610545647
183.382,224.049598247
183.397,224.607767734
183.412,225.239227392
183.427,225.907570202
183.442,226.586814105
183.457,227.259705414
183.472,227.91552919
183.487,228.548181088
183.502,229.154676449
183.517,229.734068367
183.532,230.286691324
183.547,230.813645891
183.562,231.31645504
183.577,231.796839663
183.592,232.256575519
183.607,232.697405036
183.622,233.120985603
183.637,233.528861804
183.652,233.922453097
183.667,234.303051214
183.682,234.6718235
183.697,235.029819657
183.712,235.377980276
183.727,235.717146096
183.742,236.048067343
183.757,236.371412749
183.772,236.687778034
183.787,236.997693723
183.802,237.301632286
183.817,237.600014573
183.832,237.893215596
183.847,238.181569687
183.862,238.465375097
183.877,238.744898072
183.892,239.020376475
183.907,239.292022992
183.922,239.560027966
183.937,239.824561916
183.952,240.085777759
183.967,240.343812778
183.982,240.598790374
183.997,240.85082161
184.012,241.100006587
184.027,241.346435661
184.042,241.590190528
184.057,241.831345189
184.072,242.069966804
184.087,242.306116458
184.102,242.539849841
184.117,242.771217852
184.132,243.000267142
184.147,243.227040595
184.162,243.451577761
184.177,243.673915238
184.192,243.894087016
184.207,244.112124784
184.222,244.328058205
184.237,244.541915155
184.252,244.753721947
184.267,244.963503523
184.282,245.171283623
184.297,245.377084946
184.312,245.580929281
184.327,245.782837632
184.342,245.982830324
184.357,246.180927097
184.372,246.377147194
184.387,246.571509431
184.402,246.764032264
184.417,246.954733848
184.432,247.14363208
184.447,247.330744651
184.462,247.516089075
184.477,247.699682728
184.492,247.88154287
184.507,248.06168667
184.522,248.240131227
184.537,248.416893585
184.552,248.591990744
184.56,248.684700874
184.567,248.765439673
184.582,248.937257317
184.597,249.107460605
184.612,249.276066449
184.627,249.443091755
184.642,249.608553414
184.657,249.772468313
184.672,249.934853325
184.687,250.095725313
184.702,250.255101122
184.717,250.412997581
184.732,250.569431499
184.747,250.724419655
184.762,250.877978799
184.777,251.030125647
184.792,251.180876872
184.807,251.330249102
184.822,251.478258914
184.837,251.62492283
184.852,251.770257307
184.867,251.914278739
184.882,252.057003444
184.897,252.198447665
184.912,252.33862756
184.927,252.477559204
184.942,252.615258574
184.957,252.751741554
184.972,252.887023925
184.987,253.021121363
185.002,253.154049434
185.017,253.285823591
185.032,253.416459168
185.047,253.545971379
185.062,253.674375314
185.077,253.801685935
185.092,253.927918074
185.107,254.053086429
185.122,254.177205564
185.137,254.300289904
185.152,254.422353732
185.167,254.543411192
185.182,254.663476281
185.197,254.782562851
185.212,254.900684607
185.227,255.017855106
185.242,255.134087753
185.257,255.249395803
185.272,255.363792359
185.287,255.477290372
185.302,255.589902639
185.31,255.649604714
185.317,255.701641802
185.332,255.81252035
185.347,255.922550619
185.362,256.031744786
185.377,256.140114876
185.392,256.24767276
185.407,256.354430151
185.422,256.460398612
185.437,256.565589547
185.452,256.67001421
185.467,256.773683699
185.482,256.876608962
185.497,256.978800792
185.512,257.080269832
185.527,257.181026575
185.542,257.281081361
185.557,257.380444384
185.572,257.479125689
185.587,257.577135172
185.602,257.674482585
185.617,257.771177534
185.632,257.867229479
185.647,257.962647739
185.662,258.057441491
185.677,258.15161977
185.692,258.245191473
185.707,258.338165357
185.722,258.430550043
185.737,258.522354016
185.752,258.613585627
185.767,258.704253092
185.782,258.794364498
185.797,258.883927799
185.812,258.972950821
185.827,259.061441262
185.842,259.149406695
185.857,259.236854565
185.872,259.323792197
185.887,259.410226792
185.902,259.49616543
185.917,259.581615073
185.932,259.666582564
185.947,259.75107463
185.96,259.823921635
185.962,259.835097883
185.977,259.918658823
185.992,260.001763835
186.007,260.084419195
186.022,260.16663107
186.037,260.248405519
186.052,260.329748493
186.06,260.372957011
186.067,260.410665841
186.082,260.491163307
186.097,260.571246532
186.112,260.650921057
186.127,260.730192324
186.142,260.809065676
186.157,260.887546362
186.172,260.965639532
186.187,261.043350246
186.202,261.12068347
186.217,261.197644077
186.232,261.274236854
186.247,261.350466496
186.262,261.426337614
186.277,261.501854731
186.292,261.577022287
186.307,261.651844639
186.322,261.72632606
186.337,261.800470744
186.352,261.874282807
186.367,261.947766284
186.382,262.020925136
186.397,262.093763246
186.412,262.166284425
186.427,262.238492409
186.442,262.310390863
186.457,262.38198338
186.472,262.453273486
186.487,262.524264635
186.502,262.594960218
186.517,262.665363555
186.532,262.735477906
186.547,262.805306462
186.562,262.874852357
186.577,262.944118657
186.592,263.013108373
186.607,263.081824452
186.622,263.150269786
186.637,263.218447207
186.652,263.286359492
186.667,263.354009362
186.682,263.421399484
186.697,263.488532471
186.71,263.54650838
186.712,263.555410883
186.727,263.622037231
186.742,263.688413973
186.757,263.754543518
186.772,263.820428227
186.787,263.886070413
186.802,263.951472341
186.817,264.016636232
186.832,264.081564262
186.847,264.14625856
186.862,264.210721214
186.877,264.27495427
186.892,264.33895973
186.907,264.402739558
186.922,264.466295676
186.937,264.529629968
186.952,264.592744277
186.967,264.655640413
186.982,264.718320145
186.997,264.780785207
187.012,264.843037298
187.027,264.905078083
187.042,264.966909193
187.057,265.028532223
187.072,265.089948739
187.087,265.151160274
187.102,265.212168328
187.117,265.272974374
187.132,265.333579853
187.147,265.393986175
187.162,265.454194726
187.177,265.514206861
187.192,265.574023907
187.207,265.633647167
187.222,265.693077915
187.237,265.752317401
187.252,265.811366851
187.267,265.870227465
187.282,265.928900419
187.297,265.987386866
187.312,266.045687938
187.327,266.103804742
187.342,266.161738364
187.357,266.21948987
187.372,266.277060305
187.387,266.334450693
187.402,266.391662037
187.417,266.448695324
187.432,266.505551519
187.447,266.562231571
187.46,266.611212522
187.462,266.61873641
187.477,266.675066947
187.492,266.731224079
187.507,266.787208683
187.522,266.843021624
187.537,266.898663746
187.552,266.954135882
187.567,267.009438847
187.582,267.064573443
187.597,267.119540457
187.612,267.174340662
187.627,267.228974817
187.642,267.28344367
187.657,267.337747953
187.672,267.391888387
187.687,267.44586568
187.702,267.499680531
187.717,267.553333622
187.732,267.606825629
187.747,267.660157213
187.762,267.713329028
187.777,267.766341715
187.792,267.819195904
187.807,267.871892219
187.822,267.92443127
187.837,267.976813661
187.852,268.029039985
187.867,268.081110828
187.882,268.133026765
187.897,268.184788365
187.912,268.236396187
187.927,268.287850783
187.942,268.339152698
187.957,268.390302469
187.972,268.441300625
187.987,268.492147689
188.002,268.542844177
188.017,268.593390599
188.032,268.643787457
188.047,268.694035248
188.062,268.744134463
188.077,268.794085586
188.092,268.843889097
188.107,268.893545469
188.122,268.943055171
188.137,268.992418665
188.152,269.041636411
188.167,269.09070886
188.182,269.139636461
188.197,269.188419659
188.21,269.230581964
188.212,269.237058893
188.227,269.285554598
188.242,269.333907205
188.257,269.382117141
188.272,269.430184829
188.287,269.478110689
188.302,269.525895136
188.317,269.573538581
188.332,269.621041435
188.347,269.668404103
188.362,269.715626985
188.377,269.762710483
188.392,269.80965499
188.407,269.856460902
188.422,269.903128607
188.437,269.949658495
188.452,269.996050948
188.467,270.042306351
188.482,270.088425083
188.497,270.134407521
188.512,270.180254042
188.527,270.225965017
188.542,270.271540819
188.557,270.316981815
188.572,270.362288373
188.587,270.407460858
188.602,270.452499632
188.617,270.497405057
188.632,270.542177493
188.647,270.586817297
188.66,270.625398118
188.662,270.631324826
188.677,270.675700433
188.692,270.719944473
188.707,270.764057296
188.722,270.808039254
188.737,270.851890694
