# 10410 EDZE Essen Observations at 12Z 09 Nov 2019
Frequency [GHz],TB
175.31,263.600972915
175.322,263.615339122
175.337,263.633123503
175.352,263.650714275
175.367,263.668110407
175.382,263.685310865
175.397,263.702314621
175.412,263.719120646
175.427,263.735727917
175.442,263.752135408
175.457,263.7683421
175.472,263.784346975
175.487,263.800149017
175.502,263.815747212
175.517,263.831140552
175.532,263.846328028
175.547,263.861308636
175.562,263.876081375
175.577,263.890645246
175.592,263.904999256
175.607,263.919142412
175.622,263.933073726
175.637,263.946792215
175.652,263.960296898
175.667,263.973586799
175.682,263.986660944
175.697,263.999518366
175.712,264.012158099
175.727,264.024579183
175.742,264.036780664
175.757,264.048761589
175.772,264.060521012
175.787,264.072057991
175.802,264.08337159
175.817,264.094460876
175.832,264.105324922
175.847,264.115962808
175.862,264.126373615
175.877,264.136556435
175.892,264.146510361
175.907,264.156234493
175.922,264.165727939
175.937,264.17498981
175.952,264.184019225
175.967,264.192815307
175.982,264.201377187
175.997,264.209704005
176.012,264.2177949
176.027,264.225649025
176.042,264.233265537
176.057,264.2406436
176.072,264.247782384
176.087,264.254681068
176.102,264.261338837
176.117,264.267754884
176.132,264.273928409
176.147,264.279858621
176.162,264.285544735
176.177,264.290985974
176.192,264.296181571
176.207,264.301130764
176.222,264.305832802
176.237,264.310286942
176.252,264.314492448
176.267,264.318448592
176.282,264.322154659
176.297,264.325609938
176.31,264.328401113
176.312,264.32881373
176.327,264.331765343
176.342,264.334464096
176.357,264.336909317
176.372,264.339100342
176.387,264.341036519
176.402,264.342717202
176.417,264.34414176
176.432,264.345309566
176.447,264.346220008
176.46,264.346800411
176.462,264.346872481
176.477,264.347266392
176.492,264.347401158
176.507,264.347276205
176.522,264.346890972
176.537,264.346244906
176.552,264.345337469
176.567,264.344168128
176.582,264.342736365
176.597,264.341041674
176.612,264.339083555
176.627,264.336861527
176.642,264.334375114
176.657,264.331623853
176.672,264.328607294
176.687,264.325324999
176.702,264.321776539
176.717,264.3179615
176.732,264.313879479
176.747,264.309530082
176.762,264.304912933
176.777,264.300027664
176.792,264.29487392
176.807,264.28945136
176.822,264.283759652
176.837,264.27779848
176.852,264.271567541
176.867,264.265066542
176.882,264.258295203
176.897,264.25125326
176.912,264.243940457
176.927,264.236356555
176.942,264.228501328
176.957,264.220374559
176.972,264.211976049
176.987,264.203305608
177.002,264.194363064
177.017,264.185148254
177.032,264.17566103
177.047,264.165901257
177.062,264.155868815
177.077,264.145563595
177.092,264.134985503
177.107,264.124134458
177.122,264.113010392
177.137,264.101613253
177.152,264.089942999
177.167,264.077999605
177.182,264.065783055
177.197,264.053293354
177.21,264.042248005
177.212,264.040530512
177.227,264.027494559
177.242,264.014185535
177.257,264.000603497
177.272,263.986748512
177.287,263.972620662
177.302,263.958220045
177.31,263.95042822
177.317,263.943546767
177.332,263.928600953
177.347,263.913382739
177.362,263.897892274
177.377,263.882129723
177.392,263.86609526
177.407,263.849789077
177.422,263.833211376
177.437,263.816362374
177.452,263.7992423
177.467,263.781851398
177.482,263.764189923
177.497,263.746258144
177.512,263.728056342
177.527,263.709584812
177.542,263.690843862
177.557,263.671833812
177.572,263.652554992
177.587,263.63300775
177.602,263.613192442
177.617,263.593109438
177.632,263.572759119
177.647,263.55214188
177.66,263.534058011
177.662,263.531258127
177.677,263.510108275
177.692,263.488692757
177.707,263.467012011
177.722,263.445066489
177.737,263.422856657
177.752,263.400382987
177.767,263.377645967
177.782,263.35464609
177.797,263.331383866
177.812,263.307859812
177.827,263.284074455
177.842,263.260028333
177.857,263.235721995
177.872,263.211155998
177.887,263.18633091
177.902,263.161247306
177.917,263.135905774
177.932,263.110306909
177.947,263.084451313
177.96,263.061835938
177.962,263.0583396
177.977,263.031972391
177.992,263.005350315
178.007,262.978474008
178.022,262.951344115
178.037,262.92396129
178.052,262.896326191
178.067,262.868439485
178.082,262.840301846
178.097,262.811913954
178.112,262.783276494
178.127,262.75439016
178.142,262.72525565
178.157,262.695873668
178.172,262.666244923
178.187,262.636370129
178.202,262.606250006
178.217,262.575885276
178.232,262.545276669
178.247,262.514424915
178.262,262.48333075
178.277,262.451994914
178.292,262.420418149
178.307,262.388601198
178.322,262.356544811
178.337,262.324249737
178.352,262.291716727
178.367,262.258946537
178.382,262.225939919
178.397,262.192697632
178.41,262.163697604
178.412,262.159220432
178.427,262.125509076
178.442,262.091564323
178.457,262.057386931
178.472,262.022977656
178.487,261.988337256
178.502,261.953466488
178.517,261.918366104
178.532,261.88303686
178.547,261.847479506
178.562,261.811694791
178.577,261.775683463
178.592,261.739446266
178.607,261.70298394
178.622,261.666297225
178.637,261.629386853
178.652,261.592253556
178.667,261.554898059
178.682,261.517321085
178.697,261.479523351
178.712,261.441505568
178.727,261.403268443
178.742,261.364812678
178.757,261.326138968
178.772,261.287248001
178.787,261.248140461
178.802,261.208817023
178.817,261.169278357
178.832,261.129525125
178.847,261.089557981
178.862,261.04937757
178.877,261.008984534
178.892,260.968379502
178.907,260.927563096
178.922,260.886535929
178.937,260.845298607
178.952,260.803851725
178.967,260.762195868
178.982,260.720331613
178.997,260.678259527
179.012,260.635980167
179.027,260.593494079
179.042,260.5508018
179.057,260.507903855
179.072,260.464800758
179.087,260.421493016
179.102,260.377981119
179.117,260.334265549
179.132,260.290346778
179.147,260.246225264
179.16,260.207822968
179.162,260.201901454
179.177,260.157375784
179.192,260.112648676
179.207,260.067720543
179.222,260.022591783
179.237,259.977262784
179.252,259.931733921
179.267,259.886005554
179.282,259.840078035
179.297,259.793951701
179.312,259.747626876
179.327,259.701103872
179.342,259.654382987
179.357,259.60746451
179.372,259.560348713
179.387,259.513035857
179.402,259.46552619
179.417,259.417819947
179.432,259.36991735
179.447,259.32181861
179.462,259.273523923
179.477,259.225033473
179.492,259.176347432
179.507,259.127465958
179.522,259.078389197
179.537,259.029117284
179.552,258.979650339
179.567,258.929988471
179.582,258.880131777
179.597,258.830080342
179.612,258.779834238
179.627,258.729393525
179.642,258.678758252
179.657,258.627928457
179.672,258.576904165
179.687,258.525685389
179.702,258.474272135
179.717,258.422664392
179.732,258.370862144
179.747,258.31886536
179.762,258.266674
179.777,258.214288015
179.792,258.161707344
179.807,258.108931918
179.822,258.055961658
179.837,258.002796473
179.852,257.949436267
179.867,257.895880934
179.882,257.842130356
179.897,257.788184412
179.91,257.741273128
179.912,257.734042969
179.927,257.679705888
179.942,257.625173023
179.957,257.570444218
179.972,257.515519315
179.987,257.460398144
180.002,257.405080533
180.017,257.349566301
180.032,257.293855264
180.047,257.237947232
180.062,257.181842008
180.077,257.125539394
180.092,257.069039185
180.107,257.012341173
180.122,256.955445146
180.137,256.898350892
180.152,256.84105819
180.167,256.783566824
180.182,256.725876571
180.197,256.667987207
180.212,256.60989851
180.227,256.551610253
180.242,256.493122211
180.257,256.43443416
180.272,256.375545874
180.287,256.31645713
180.302,256.257167705
180.317,256.197677379
180.332,256.137985932
180.347,256.078093149
180.362,256.017998818
180.377,255.957702729
180.392,255.897204678
180.407,255.836504463
180.422,255.77560189
180.437,255.714496768
180.452,255.653188912
180.467,255.591678146
180.482,255.529964298
180.497,255.468047205
180.512,255.405926711
180.527,255.343602669
180.542,255.28107494
180.557,255.218343396
180.56,255.205772619
180.572,255.155407918
180.587,255.092268397
180.602,255.028924735
180.617,254.965376847
180.632,254.901624659
180.647,254.837668109
180.66,254.782073755
180.662,254.773507149
180.677,254.709141745
180.692,254.644571875
180.707,254.579797535
180.722,254.514818735
180.737,254.449635501
180.752,254.384247875
180.767,254.318655916
180.782,254.252859703
180.797,254.18685933
180.812,254.120654914
180.827,254.054246587
180.842,253.987634506
180.857,253.920818844
180.872,253.8537998
180.887,253.786577593
180.902,253.719152464
180.917,253.651524679
180.932,253.583694529
180.947,253.515662327
180.962,253.447428415
180.977,253.378993159
180.992,253.310356952
181.007,253.241520217
181.022,253.172483404
181.037,253.103246992
181.052,253.033811491
181.067,252.964177442
181.082,252.894345417
181.097,252.824316022
181.112,252.754089894
181.127,252.683667708
181.142,252.61305017
181.157,252.542238026
181.172,252.471232055
181.187,252.400033079
181.202,252.328641955
181.217,252.257059581
181.232,252.185286896
181.247,252.113324882
181.262,252.041174563
181.277,251.968837007
181.292,251.896313328
181.307,251.823604686
181.31,251.809040868
181.322,251.750712289
181.337,251.677637394
181.352,251.604381307
181.367,251.530945387
181.382,251.457331043
181.397,251.38353974
181.412,251.309572999
181.427,251.235432395
181.442,251.161119564
181.457,251.0866362
181.472,251.011984059
181.487,250.937164959
181.502,250.862180782
181.517,250.787033477
181.532,250.711725062
181.547,250.63625762
181.562,250.56063331
181.577,250.484854361
181.592,250.408923079
181.607,250.332841843
181.622,250.256613116
181.637,250.180239437
181.652,250.10372343
181.667,250.027067804
181.682,249.950275354
181.697,249.873348965
181.712,249.796291612
181.727,249.719106365
181.742,249.641796389
181.757,249.564364948
181.772,249.486815405
181.787,249.409151228
181.802,249.331375989
181.817,249.253493366
181.832,249.175507152
181.847,249.097421249
181.862,249.019239674
181.877,248.940966563
181.892,248.862606172
181.907,248.784162878
181.922,248.705641185
181.937,248.627045723
181.952,248.548381252
181.967,248.469652662
181.982,248.39086498
181.997,248.312023366
182.012,248.233133119
182.027,248.154199679
182.042,248.075228626
182.057,247.996225683
182.06,247.980421781
182.072,247.917196715
182.087,247.838147736
182.102,247.759084902
182.117,247.680014516
182.132,247.600943028
182.147,247.52187703
182.162,247.442823263
182.177,247.363788607
182.192,247.284780085
182.207,247.205804857
182.222,247.126870217
182.237,247.04798359
182.252,246.969152526
182.267,246.890384693
182.282,246.811687869
182.297,246.733069935
182.312,246.654538863
182.327,246.576102703
182.342,246.497769574
182.357,246.419547642
182.372,246.341445104
182.387,246.26347017
182.402,246.185631035
182.417,246.107935855
182.432,246.030392717
182.447,245.9530096
182.462,245.875794343
182.477,245.798754597
182.492,245.721897774
182.507,245.645230995
182.522,245.568761025
182.537,245.492494201
182.552,245.416436354
182.567,245.340592716
182.582,245.264967819
182.597,245.189565381
182.612,245.114388173
182.627,245.039437873
182.642,244.964714898
182.657,244.890218216
182.672,244.81594513
182.687,244.74189103
182.702,244.668049121
182.717,244.594410099
182.732,244.520961789
182.747,244.44768873
182.762,244.37457169
182.777,244.301587123
182.792,244.228706522
182.807,244.155895687
182.822,244.083113866
182.837,244.010312751
182.852,243.937435308
182.867,243.864414399
182.882,243.791171158
182.897,243.717613056
182.912,243.643631607
182.927,243.56909961
182.942,243.493867818
182.957,243.417760908
182.972,243.340572545
182.987,243.262059304
183.002,243.181933123
183.017,243.099851852
183.032,243.015407285
183.047,242.928109877
183.062,242.837368973
183.077,242.742466953
183.092,242.642524961
183.107,242.53645688
183.122,242.422906617
183.137,242.300161405
183.152,242.166030242
183.167,242.017671253
183.182,241.851344425
183.197,241.662057976
183.212,241.443075813
183.227,241.185295458
183.242,240.876732921
183.257,240.503323604
183.367,240.591900592
183.382,240.944630222
183.397,241.236147333
183.412,241.480237257
183.427,241.688126756
183.442,241.868249984
183.457,242.026841325
183.472,242.168531236
183.487,242.296800921
183.502,242.41430538
183.517,242.523098894
183.532,242.624792701
183.547,242.720666357
183.562,242.811747438
183.577,242.898869408
183.592,242.982714241
183.607,243.063844274
183.622,243.14272631
183.637,243.21975011
183.652,243.295242734
183.667,243.369479791
183.682,243.442694354
183.697,243.515084096
183.712,243.586817042
183.727,243.658036254
183.742,243.728863667
183.757,243.799403259
183.772,243.869743677
183.787,243.939960442
183.802,244.010117784
183.817,244.080270209
183.832,244.150463816
183.847,244.220737422
183.862,244.291123526
183.877,244.361649133
183.892,244.432336466
183.907,244.503203579
183.922,244.574264892
183.937,244.645531651
183.952,244.717012329
183.967,244.788712984
183.982,244.860637561
183.997,244.932788163
184.012,245.00516529
184.027,245.077768045
184.042,245.150594319
184.057,245.223640953
184.072,245.296903879
184.087,245.37037825
184.102,245.444058549
184.117,245.51793869
184.132,245.592012104
184.147,245.666271819
184.162,245.740710527
184.177,245.815320648
184.192,245.890094379
184.207,245.965023748
184.222,246.040100655
184.237,246.115316905
184.252,246.19066425
184.267,246.266134409
184.282,246.341719102
184.297,246.417410067
184.312,246.493199085
184.327,246.569077993
184.342,246.645038703
184.357,246.721073212
184.372,246.797173616
184.387,246.873332122
184.402,246.949541049
184.417,247.025792845
184.432,247.102080085
184.447,247.178395481
184.462,247.254731882
184.477,247.331082283
184.492,247.407439821
184.507,247.483797782
184.522,247.560149599
184.537,247.636488856
184.552,247.712809284
184.56,247.753503695
184.567,247.789104765
184.582,247.865369329
184.597,247.941597154
184.612,248.017782565
184.627,248.093920034
184.642,248.170004173
184.657,248.246029742
184.672,248.321991636
184.687,248.397884891
184.702,248.473704678
184.717,248.549446304
184.732,248.625105205
184.747,248.700676948
184.762,248.776157225
184.777,248.851541854
184.792,248.926826772
184.807,249.002008039
184.822,249.077081827
184.837,249.152044426
184.852,249.226892236
184.867,249.301621764
184.882,249.376229626
184.897,249.450712542
184.912,249.525067331
184.927,249.599290914
184.942,249.673380305
184.957,249.747332617
184.972,249.82114505
184.987,249.894814898
185.002,249.968339539
185.017,250.041716438
185.032,250.114943142
185.047,250.188017281
185.062,250.260936561
185.077,250.333698768
185.092,250.40630176
185.107,250.47874347
185.122,250.551021901
185.137,250.623135125
185.152,250.695081284
185.167,250.766858583
185.182,250.838465293
185.197,250.909899745
185.212,250.981160333
185.227,251.05224551
185.242,251.123153786
185.257,251.193883728
185.272,251.264433957
185.287,251.334803149
185.302,251.404990029
185.31,251.442348064
185.317,251.474993377
185.332,251.544812018
185.347,251.614444829
185.362,251.683890731
185.377,251.753148692
185.392,251.822217725
185.407,251.891096886
185.422,251.959785274
185.437,252.028282028
185.452,252.096586328
185.467,252.164697393
185.482,252.23261448
185.497,252.300336885
185.512,252.367863938
185.527,252.435195007
185.542,252.50232949
185.557,252.569266824
185.572,252.636006476
185.587,252.702547944
185.602,252.76889076
185.617,252.835034484
185.632,252.900978707
185.647,252.966723047
185.662,253.032267152
185.677,253.097610697
185.692,253.162753383
185.707,253.227694936
185.722,253.29243511
185.737,253.356973681
185.752,253.42131045
185.767,253.485445241
185.782,253.549377902
185.797,253.6131083
185.812,253.676636326
185.827,253.739961892
185.842,253.803084928
185.857,253.866005386
185.872,253.928723236
185.887,253.991238466
185.902,254.053551083
185.917,254.115661112
185.932,254.177568593
185.947,254.239273585
185.96,254.292587509
185.962,254.30077616
185.977,254.362076409
185.992,254.423174433
186.007,254.484070353
186.022,254.5447643
186.037,254.60525642
186.052,254.665546872
186.06,254.697619378
186.067,254.725635827
186.082,254.785523469
186.097,254.845209992
186.112,254.904695605
186.127,254.963980523
186.142,255.023064975
186.157,255.081949198
186.172,255.140633438
186.187,255.199117954
186.202,255.257403009
186.217,255.315488876
186.232,255.373375838
186.247,255.431064183
186.262,255.488554207
186.277,255.545846213
186.292,255.602940511
186.307,255.659837415
186.322,255.716537246
186.337,255.773040332
186.352,255.829347003
186.367,255.885457596
186.382,255.94137245
186.397,255.997091911
186.412,256.052616325
186.427,256.107946044
186.442,256.163081424
186.457,256.218022819
186.472,256.27277059
186.487,256.327325098
186.502,256.381686705
186.517,256.435855777
186.532,256.489832679
186.547,256.543617777
186.562,256.597211438
186.577,256.65061403
186.592,256.703825919
186.607,256.756847474
186.622,256.80967906
186.637,256.862321043
186.652,256.914773787
186.667,256.967037657
186.682,257.019113013
186.697,257.071000216
186.71,257.115817207
186.712,257.122699624
186.727,257.174211593
186.742,257.225536474
186.757,257.27667462
186.772,257.327626378
186.787,257.378392091
186.802,257.428972102
186.817,257.479366746
186.832,257.529576359
186.847,257.579601269
186.862,257.629441803
186.877,257.679098281
186.892,257.728571019
186.907,257.777860331
186.922,257.826966523
186.937,257.875889897
186.952,257.924630749
186.967,257.973189372
186.982,258.021566053
186.997,258.069761069
187.012,258.117774698
187.027,258.165607206
187.042,258.213258858
187.057,258.260729909
187.072,258.30802061
187.087,258.355131204
187.102,258.40206193
187.117,258.448813017
187.132,258.49538469
187.147,258.541777166
187.162,258.587990655
187.177,258.634025361
187.192,258.67988148
187.207,258.725559202
187.222,258.771058708
187.237,258.816380175
187.252,258.861523768
187.267,258.906489649
187.282,258.951277969
187.297,258.995888877
187.312,259.040322508
187.327,259.084578993
187.342,259.128658456
187.357,259.172561012
187.372,259.216286769
187.387,259.259835827
187.402,259.30320828
187.417,259.346404213
187.432,259.389423703
187.447,259.432266821
187.46,259.469254906
187.462,259.47493363
187.477,259.517424184
187.492,259.559738532
187.507,259.601876713
187.522,259.643838762
187.537,259.685624702
187.552,259.727234553
187.567,259.768668325
187.582,259.809926023
187.597,259.851007642
187.612,259.891913171
187.627,259.932642595
187.642,259.973195886
187.657,260.013573015
187.672,260.053773941
187.687,260.093798622
187.702,260.133647003
187.717,260.173319028
187.732,260.212814631
187.747,260.25213374
187.762,260.291276278
187.777,260.330242161
187.792,260.369031299
187.807,260.407643597
187.822,260.446078951
187.837,260.484337255
187.852,260.522418395
187.867,260.560322252
187.882,260.598048702
187.897,260.635597615
187.912,260.672968858
187.927,260.710162288
187.942,260.747177763
187.957,260.784015133
187.972,260.820674243
187.987,260.857154935
188.002,260.893457045
188.017,260.929580407
188.032,260.96552485
188.047,261.001290197
188.062,261.036876271
188.077,261.072282888
188.092,261.107509862
188.107,261.142557004
188.122,261.177424121
188.137,261.212111017
188.152,261.246617494
188.167,261.28094335
188.182,261.315088381
188.197,261.349052382
188.21,261.378341254
188.212,261.382835143
188.227,261.416436454
188.242,261.449856102
188.257,261.483093873
188.272,261.51614955
188.287,261.549022917
188.302,261.581713753
188.317,261.614221841
188.332,261.646546957
188.347,261.678688881
188.362,261.71064739
188.377,261.742422261
188.392,261.77401327
188.407,261.805420195
188.422,261.836642811
188.437,261.867680895
188.452,261.898534223
188.467,261.929202573
188.482,261.959685723
188.497,261.989983451
188.512,262.020095536
188.527,262.050021759
188.542,262.079761901
188.557,262.109315745
188.572,262.138683075
188.587,262.167863678
188.602,262.196857341
188.617,262.225663854
188.632,262.254283008
188.647,262.282714598
188.66,262.307203432
188.662,262.310958419
188.677,262.339014271
188.692,262.366881954
188.707,262.394561273
188.722,262.422052034
188.737,262.449354047
