# 78954 TBPB Grantley Adams Observations at 12Z 31 Jan 2019
Frequency [GHz],TB
175.31,286.305754114
175.322,286.300051129
175.337,286.292833637
175.352,286.285517559
175.367,286.278102935
175.382,286.270589808
175.397,286.262978227
175.412,286.255268241
175.427,286.247459902
175.442,286.239553267
175.457,286.231548394
175.472,286.223445344
175.487,286.215244181
175.502,286.206944974
175.517,286.198547791
175.532,286.190052706
175.547,286.181459794
175.562,286.172769134
175.577,286.163980807
175.592,286.155094896
175.607,286.14611149
175.622,286.137030676
175.637,286.127852548
175.652,286.1185772
175.667,286.109204729
175.682,286.099735237
175.697,286.090168825
175.712,286.080505599
175.727,286.070745667
175.742,286.06088914
175.757,286.05093613
175.772,286.040886754
175.787,286.030741128
175.802,286.020499375
175.817,286.010161616
175.832,285.999727976
175.847,285.989198585
175.862,285.97857357
175.877,285.967853065
175.892,285.957037204
175.907,285.946126123
175.922,285.935119962
175.937,285.924018862
175.952,285.912822965
175.967,285.901532418
175.982,285.890147366
175.997,285.87866796
176.012,285.867094351
176.027,285.855426691
176.042,285.843665135
176.057,285.831809841
176.072,285.819860967
176.087,285.807818673
176.102,285.795683121
176.117,285.783454475
176.132,285.771132899
176.147,285.758718562
176.162,285.74621163
176.177,285.733612275
176.192,285.720920665
176.207,285.708136975
176.222,285.695261378
176.237,285.682294048
176.252,285.669235162
176.267,285.656084897
176.282,285.64284343
176.297,285.629510943
176.31,285.617882633
176.312,285.616087613
176.327,285.602573624
176.342,285.588969156
176.357,285.575274391
176.372,285.561489515
176.387,285.547614709
176.402,285.533650159
176.417,285.51959605
176.432,285.505452567
176.447,285.491219896
176.46,285.478812914
176.462,285.476898222
176.477,285.462487732
176.492,285.447988613
176.507,285.433401051
176.522,285.418725233
176.537,285.403961344
176.552,285.389109571
176.567,285.3741701
176.582,285.359143116
176.597,285.344028806
176.612,285.328827354
176.627,285.313538944
176.642,285.29816376
176.657,285.282701984
176.672,285.267153801
176.687,285.251519389
176.702,285.235798931
176.717,285.219992605
176.732,285.20410059
176.747,285.188123063
176.762,285.172060199
176.777,285.155912173
176.792,285.139679159
176.807,285.123361326
176.822,285.106958846
176.837,285.090471886
176.852,285.073900613
176.867,285.05724519
176.882,285.04050578
176.897,285.023682543
176.912,285.006775637
176.927,284.989785217
176.942,284.972711438
176.957,284.955554449
176.972,284.938314399
176.987,284.920991433
177.002,284.903585694
177.017,284.886097322
177.032,284.868526454
177.047,284.850873223
177.062,284.833137761
177.077,284.815320193
177.092,284.797420645
177.107,284.779439235
177.122,284.761376083
177.137,284.743231299
177.152,284.725004994
177.167,284.706697273
177.182,284.688308236
177.197,284.669837982
177.21,284.653764805
177.212,284.651286603
177.227,284.632654188
177.242,284.613940821
177.257,284.595146581
177.272,284.576271543
177.287,284.557315778
177.302,284.53827935
177.31,284.528093627
177.317,284.519162319
177.332,284.499964742
177.347,284.480686666
177.362,284.461328137
177.377,284.441889194
177.392,284.42236987
177.407,284.402770193
177.422,284.383090185
177.437,284.363329861
177.452,284.343489232
177.467,284.323568301
177.482,284.303567067
177.497,284.283485519
177.512,284.263323642
177.527,284.243081415
177.542,284.222758809
177.557,284.202355788
177.572,284.181872309
177.587,284.161308323
177.602,284.140663773
177.617,284.119938594
177.632,284.099132715
177.647,284.078246056
177.66,284.060078876
177.662,284.05727853
177.677,284.036230043
177.692,284.015100491
177.707,283.993889763
177.722,283.972597741
177.737,283.951224297
177.752,283.929769294
177.767,283.908232589
177.782,283.886614029
177.797,283.864913451
177.812,283.843130683
177.827,283.821265547
177.842,283.799317853
177.857,283.777287403
177.872,283.755173987
177.887,283.732977389
177.902,283.710697381
177.917,283.688333726
177.932,283.665886176
177.947,283.643354475
177.96,283.623758724
177.962,283.620738354
177.977,283.598037536
177.992,283.575251731
178.007,283.552380642
178.022,283.529423958
178.037,283.506381357
178.052,283.483252509
178.067,283.460037069
178.082,283.436734684
178.097,283.413344988
178.112,283.389867602
178.127,283.366302138
178.142,283.342648195
178.157,283.318905358
178.172,283.295073204
178.187,283.271151294
178.202,283.247139177
178.217,283.223036392
178.232,283.198842462
178.247,283.1745569
178.262,283.150179203
178.277,283.125708857
178.292,283.101145333
178.307,283.076488091
178.322,283.051736575
178.337,283.026890216
178.352,283.001948431
178.367,282.976910623
178.382,282.951776179
178.397,282.926544476
178.41,282.904597832
178.412,282.901214871
178.427,282.87578671
178.442,282.850259322
178.457,282.824632023
178.472,282.798904111
178.487,282.773074871
178.502,282.74714357
178.517,282.721109462
178.532,282.694971783
178.547,282.668729753
178.562,282.642382577
178.577,282.615929442
178.592,282.589369519
178.607,282.562701963
178.622,282.53592591
178.637,282.50904048
178.652,282.482044776
178.667,282.454937882
178.682,282.427718865
178.697,282.400386775
178.712,282.372940641
178.727,282.345379476
178.742,282.317702274
178.757,282.28990801
178.772,282.261995639
178.787,282.233964098
178.802,282.205812303
178.817,282.177539153
178.832,282.149143525
178.847,282.120624276
178.862,282.091980243
178.877,282.063210242
178.892,282.034313069
178.907,282.005287499
178.922,281.976132285
178.937,281.946846158
178.952,281.917427828
178.967,281.887875984
178.982,281.858189291
178.997,281.828366392
179.012,281.798405907
179.027,281.768306435
179.042,281.738066548
179.057,281.707684798
179.072,281.677159711
179.087,281.646489789
179.102,281.615673511
179.117,281.584709331
179.132,281.553595676
179.147,281.522330951
179.16,281.495111403
179.162,281.490913532
179.177,281.459341773
179.192,281.427613999
179.207,281.395728509
179.222,281.363683576
179.237,281.331477447
179.252,281.299108339
179.267,281.266574444
179.282,281.233873924
179.297,281.201004914
179.312,281.167965519
179.327,281.134753818
179.342,281.101367857
179.357,281.067805655
179.372,281.0340652
179.387,281.00014445
179.402,280.966041333
179.417,280.931753744
179.432,280.897279548
179.447,280.86261658
179.462,280.827762639
179.477,280.792715495
179.492,280.757472884
179.507,280.722032508
179.522,280.686392036
179.537,280.650549105
179.552,280.614501314
179.567,280.578246231
179.582,280.541781386
179.597,280.505104275
179.612,280.468212358
179.627,280.431103058
179.642,280.393773761
179.657,280.356221819
179.672,280.318444542
179.687,280.280439206
179.702,280.242203046
179.717,280.203733259
179.732,280.165027003
179.747,280.126081396
179.762,280.086893517
179.777,280.047460404
179.792,280.007779053
179.807,279.967846421
179.822,279.92765942
179.837,279.887214923
179.852,279.846509758
179.867,279.805540712
179.882,279.764304525
179.897,279.722797898
179.91,279.686604145
179.912,279.681017483
179.927,279.63895989
179.942,279.596621681
179.957,279.553999375
179.972,279.511089444
179.987,279.467888311
180.002,279.424392355
180.017,279.380597906
180.032,279.336501244
180.047,279.292098605
180.062,279.247386171
180.077,279.202360079
180.092,279.157016412
180.107,279.111351206
180.122,279.065360444
180.137,279.019040058
180.152,278.97238593
180.167,278.925393889
180.182,278.878059709
180.197,278.830379114
180.212,278.782347773
180.227,278.733961303
180.242,278.685215263
180.257,278.63610516
180.272,278.586626446
180.287,278.536774516
180.302,278.486544708
180.317,278.435932306
180.332,278.384932536
180.347,278.333540566
180.362,278.281751507
180.377,278.229560412
180.392,278.176962276
180.407,278.123952033
180.422,278.070524561
180.437,278.016674675
180.452,277.962397134
180.467,277.907686633
180.482,277.852537808
180.497,277.796945235
180.512,277.740903427
180.527,277.684406838
180.542,277.627449857
180.557,277.570026813
180.56,277.558485773
180.572,277.512131973
180.587,277.45375954
180.602,277.394903656
180.617,277.335558398
180.632,277.275717782
180.647,277.215375759
180.66,277.162669034
180.662,277.154526217
180.677,277.093162981
180.692,277.031279812
180.707,276.968870406
180.722,276.905928396
180.737,276.842447352
180.752,276.778420779
180.767,276.713842118
180.782,276.648704745
180.797,276.583001974
180.812,276.516727055
180.827,276.449873173
180.842,276.38243345
180.857,276.314400945
180.872,276.245768652
180.887,276.176529504
180.902,276.106676371
180.917,276.03620206
180.932,275.965099316
180.947,275.893360821
180.962,275.820979198
180.977,275.747947008
180.992,275.674256751
181.007,275.599900868
181.022,275.524871741
181.037,275.449161693
181.052,275.372762989
181.067,275.295667836
181.082,275.217868386
181.097,275.139356736
181.112,275.060124926
181.127,274.980164944
181.142,274.899468726
181.157,274.818028154
181.172,274.735835062
181.187,274.652881233
181.202,274.569158404
181.217,274.484658265
181.232,274.399372458
181.247,274.313292586
181.262,274.226410206
181.277,274.138716838
181.292,274.05020396
181.307,273.960863016
181.31,273.942894704
181.322,273.870685414
181.337,273.779662529
181.352,273.687785706
181.367,273.595046261
181.382,273.501435484
181.397,273.406944641
181.412,273.311564977
181.427,273.215287718
181.442,273.118104075
181.457,273.020005244
181.472,272.920982414
181.487,272.821026765
181.502,272.720129472
181.517,272.618281713
181.532,272.515474666
181.547,272.411699517
181.562,272.306947462
181.577,272.201209712
181.592,272.094477494
181.607,271.986742061
181.622,271.877994688
181.637,271.768226685
181.652,271.657429395
181.667,271.545594204
181.682,271.43271254
181.697,271.318775882
181.712,271.203775767
181.727,271.087703789
181.742,270.970551609
181.757,270.85231096
181.772,270.732973652
181.787,270.612531577
181.802,270.490976716
181.817,270.368301147
181.832,270.244497045
181.847,270.119556695
181.862,269.993472494
181.877,269.86623696
181.892,269.737842735
181.907,269.608282596
181.922,269.477549456
181.937,269.345636375
181.952,269.212536565
181.967,269.078243393
181.982,268.942750392
181.997,268.806051263
182.012,268.668139884
182.027,268.529010311
182.042,268.388656788
182.057,268.247073746
182.06,268.21860912
182.072,268.104255813
182.087,267.960197811
182.102,267.814894764
182.117,267.668341897
182.132,267.520534637
182.147,267.371468613
182.162,267.221139654
182.177,267.069543785
182.192,266.916677223
182.207,266.762536368
182.222,266.607117797
182.237,266.450418246
182.252,266.2924346
182.267,266.13316387
182.282,265.972603171
182.297,265.810749694
182.312,265.647600675
182.327,265.483153349
182.342,265.317404913
182.357,265.150352461
182.372,264.981992929
182.387,264.812323012
182.402,264.641339084
182.417,264.469037095
182.432,264.295412452
182.447,264.120459883
182.462,263.944173284
182.477,263.766545533
182.492,263.587568281
182.507,263.407231711
182.522,263.225524252
182.537,263.042432257
182.552,262.857939625
182.567,262.672027365
182.582,262.48467309
182.597,262.29585043
182.612,262.105528353
182.627,261.913670375
182.642,261.720233637
182.657,261.525167837
182.672,261.328413981
182.687,261.129902923
182.702,260.929553663
182.717,260.727271346
182.732,260.52294492
182.747,260.316444379
182.762,260.107617516
182.777,259.896286093
182.792,259.682241308
182.807,259.465238413
182.822,259.244990333
182.837,259.021160042
182.852,258.793351468
182.867,258.561098583
182.882,258.323852297
182.897,258.080964654
182.912,257.831669723
182.927,257.575060407
182.942,257.310060224
182.957,257.035388844
182.972,256.749519869
182.987,256.450628964
183.002,256.13652996
183.017,255.804595949
183.032,255.451661743
183.047,255.073903234
183.062,254.66668843
183.077,254.224394325
183.092,253.740183724
183.107,253.205737603
183.122,252.610943242
183.137,251.943549765
183.152,251.188827526
183.167,250.329319031
183.182,249.344871295
183.197,248.213338558
183.212,246.912724627
183.227,245.426247517
183.242,243.753108953
183.257,241.929906289
183.367,242.375492369
183.382,244.160931647
183.397,245.782058068
183.412,247.214614714
183.427,248.464902758
183.442,249.551703366
183.457,250.497331726
183.472,251.323515992
183.487,252.049724806
183.502,252.692687123
183.517,253.266456534
183.532,253.782694969
183.547,254.251018823
183.562,254.679336406
183.577,255.074148397
183.592,255.440803444
183.607,255.783710284
183.622,256.10651134
183.637,256.412223755
183.652,256.703353545
183.667,256.98198791
183.682,257.249869929
183.697,257.508459081
183.712,257.758980424
183.727,258.002464641
183.742,258.239780772
183.757,258.471663031
183.772,258.698732869
183.787,258.921517167
183.802,259.140463302
183.817,259.355951643
183.832,259.568305966
183.847,259.777802151
183.862,259.984675457
183.877,260.189126644
183.892,260.391327115
183.907,260.59142326
183.922,260.789540133
183.937,260.985784563
183.952,261.1802478
183.967,261.373007767
183.982,261.564130978
183.997,261.753674176
184.012,261.94168574
184.027,262.128206878
184.042,262.313272667
184.057,262.49691293
184.072,262.679153
184.087,262.860014378
184.102,263.039515295
184.117,263.217671197
184.132,263.394495171
184.147,263.569998304
184.162,263.744189997
184.177,263.917078238
184.192,264.088669836
184.207,264.258970621
184.222,264.427985624
184.237,264.595719223
184.252,264.76217528
184.267,264.927357246
184.282,265.091268265
184.297,265.253911257
184.312,265.415288984
184.327,265.575404118
184.342,265.734259291
184.357,265.89185714
184.372,266.048200345
184.387,266.20329166
184.402,266.357133942
184.417,266.509730172
184.432,266.661083473
184.447,266.811197125
184.462,266.960074577
184.477,267.107719456
184.492,267.254135575
184.507,267.399326936
184.522,267.543297733
184.537,267.686052358
184.552,267.827595394
184.56,267.902591251
184.567,267.967931621
184.582,268.10706601
184.597,268.245003722
184.612,268.381750105
184.627,268.517310688
184.642,268.65169118
184.657,268.784897463
184.672,268.916935586
184.687,269.047811761
184.702,269.177532357
184.717,269.306103893
184.732,269.433533036
184.747,269.559826589
184.762,269.684991487
184.777,269.809034796
184.792,269.931963697
184.807,270.053785488
184.822,270.174507576
184.837,270.294137467
184.852,270.412682767
184.867,270.530151168
184.882,270.646550449
184.897,270.761888467
184.912,270.876173153
184.927,270.989412503
184.942,271.101614577
184.957,271.212787494
184.972,271.322939422
184.987,271.432078578
185.002,271.54021322
185.017,271.647351645
185.032,271.753502183
185.047,271.858673193
185.062,271.962873057
185.077,272.06611018
185.092,272.168392983
185.107,272.269729898
185.122,272.370129368
185.137,272.469599842
185.152,272.568149768
185.167,272.665787598
185.182,272.762521774
185.197,272.858360736
185.212,272.953312909
185.227,273.047386709
185.242,273.140590532
185.257,273.232932761
185.272,273.324421752
185.287,273.415065843
185.302,273.504873344
185.31,273.552431466
185.317,273.593852537
185.332,273.682011676
185.347,273.769358981
185.362,273.85590264
185.377,273.941650806
185.392,274.026611593
185.407,274.110793077
185.422,274.194203294
185.437,274.276850239
185.452,274.358741862
185.467,274.439886069
185.482,274.52029072
185.497,274.599963629
185.512,274.678912561
185.527,274.757145232
185.542,274.834669307
185.557,274.911492402
185.572,274.987622078
185.587,275.063065845
185.602,275.13783116
185.617,275.211925423
185.632,275.285355981
185.647,275.358130125
185.662,275.430255091
185.677,275.501738054
185.692,275.572586137
185.707,275.642806401
185.722,275.712405851
185.737,275.781391434
185.752,275.849770037
185.767,275.917548487
185.782,275.984733554
185.797,276.051331946
185.812,276.117350313
185.827,276.182795243
185.842,276.247673267
185.857,276.311990852
185.872,276.375754408
185.887,276.438970281
185.902,276.501644761
185.917,276.563784074
185.932,276.625394387
185.947,276.686481806
185.96,276.739005948
185.962,276.747052378
185.977,276.807112089
185.992,276.866666864
186.007,276.92572257
186.022,276.984285012
186.037,277.042359937
186.052,277.099953032
186.06,277.13047428
186.067,277.157069924
186.082,277.213716181
186.097,277.269897314
186.112,277.325618772
186.127,277.380885949
186.142,277.435704178
186.157,277.490078735
186.172,277.544014841
186.187,277.597517656
186.202,277.650592284
186.217,277.703243774
186.232,277.755477117
186.247,277.807297247
186.262,277.858709046
186.277,277.909717337
186.292,277.96032689
186.307,278.01054242
186.322,278.060368586
186.337,278.109809997
186.352,278.158871204
186.367,278.207556708
186.382,278.255870957
186.397,278.303818346
186.412,278.351403217
186.427,278.398629862
186.442,278.445502523
186.457,278.492025388
186.472,278.538202598
186.487,278.584038242
186.502,278.629536361
186.517,278.674700946
186.532,278.719535939
186.547,278.764045237
186.562,278.808232685
186.577,278.852102083
186.592,278.895657184
186.607,278.938901694
186.622,278.981839274
186.637,279.024473539
186.652,279.066808058
186.667,279.108846356
186.682,279.150591914
186.697,279.192048169
186.71,279.227745533
186.712,279.233218514
186.727,279.2741063
186.742,279.314714835
186.757,279.355047385
186.772,279.395107174
186.787,279.434897385
186.802,279.47442116
186.817,279.513681601
186.832,279.55268177
186.847,279.591424689
186.862,279.629913341
186.877,279.66815067
186.892,279.706139582
186.907,279.743882947
186.922,279.781383593
186.937,279.818644315
186.952,279.855667871
186.967,279.892456979
186.982,279.929014326
186.997,279.965342561
187.012,280.001444298
187.027,280.037322117
187.042,280.072978563
187.057,280.108416147
187.072,280.143637348
187.087,280.178644611
187.102,280.213440346
187.117,280.248026936
187.132,280.282406726
187.147,280.316582034
187.162,280.350555143
187.177,280.384328309
187.192,280.417903754
187.207,280.451283672
187.222,280.484470227
187.237,280.517465551
187.252,280.550271752
187.267,280.582890903
187.282,280.615325054
187.297,280.647576224
187.312,280.679646404
187.327,280.711537559
187.342,280.743251627
187.357,280.774790518
187.372,280.806156116
187.387,280.83735028
187.402,280.868374841
187.417,280.899231606
187.432,280.929922358
187.447,280.960448851
187.46,280.986773619
187.462,280.99081282
187.477,281.021015971
187.492,281.051059988
187.507,281.080946532
187.522,281.110677238
187.537,281.140253722
187.552,281.169677574
187.567,281.198950361
187.582,281.22807363
187.597,281.257048906
187.612,281.28587769
187.627,281.314561463
187.642,281.343101684
187.657,281.371499793
187.672,281.399757208
187.687,281.427875326
187.702,281.455855524
187.717,281.483699161
187.732,281.511407573
187.747,281.538982081
187.762,281.566423982
187.777,281.593734557
187.792,281.620915068
187.807,281.647966758
187.822,281.674890852
187.837,281.701688557
187.852,281.728361061
187.867,281.754909537
187.882,281.781335138
187.897,281.807639002
187.912,281.833822248
187.927,281.859885981
187.942,281.885831286
187.957,281.911659235
187.972,281.937370882
187.987,281.962967265
188.002,281.988449407
188.017,282.013818316
188.032,282.039074985
188.047,282.064220388
188.062,282.08925549
188.077,282.114181236
188.092,282.13899856
188.107,282.16370838
188.122,282.1883116
188.137,282.21280911
188.152,282.237201787
188.167,282.261490493
188.182,282.285676076
188.197,282.309759374
188.21,282.330549463
188.212,282.333741207
188.227,282.357622387
188.242,282.381403709
188.257,282.405085958
188.272,282.428669906
188.287,282.45215631
188.302,282.475545919
188.317,282.498839467
188.332,282.522037677
188.347,282.545141261
188.362,282.568150918
188.377,282.591067336
188.392,282.613891193
188.407,282.636623153
188.422,282.659263873
188.437,282.681813994
188.452,282.704274151
188.467,282.726644966
188.482,282.748927051
188.497,282.771121007
188.512,282.793227427
188.527,282.815246891
188.542,282.83717997
188.557,282.859027226
188.572,282.880789212
188.587,282.902466469
188.602,282.924059531
188.617,282.94556892
188.632,282.966995151
188.647,282.98833873
188.66,283.006770026
188.662,283.009600153
188.677,283.030779907
188.692,283.05187847
188.707,283.072896314
188.722,283.093833899
