# 48698 WSSS Singapore Observations at 12Z 16 Feb 2019
Frequency [GHz],TB
175.31,274.549068617
175.322,274.527687532
175.337,274.500899577
175.352,274.474043001
175.367,274.447117536
175.382,274.420122978
175.397,274.393059059
175.412,274.365925582
175.427,274.338722283
175.442,274.311448917
175.457,274.284105259
175.472,274.256691073
175.487,274.229206109
175.502,274.201650133
175.517,274.174022891
175.532,274.146324123
175.547,274.1185536
175.562,274.090711079
175.577,274.062796304
175.592,274.034809014
175.607,274.006748973
175.622,273.978615913
175.637,273.950409589
175.652,273.922129727
175.667,273.893776093
175.682,273.86534842
175.697,273.836846457
175.712,273.808269899
175.727,273.779618568
175.742,273.75089211
175.757,273.722090307
175.772,273.693212887
175.787,273.664259569
175.802,273.635230097
175.817,273.606124189
175.832,273.57694158
175.847,273.547682017
175.862,273.518345178
175.877,273.48893083
175.892,273.459438664
175.907,273.429868414
175.922,273.400219803
175.937,273.370492549
175.952,273.340686367
175.967,273.310800969
175.982,273.280836059
175.997,273.250791366
176.012,273.220666594
176.027,273.190461458
176.042,273.160175664
176.057,273.129808908
176.072,273.099360911
176.087,273.068831374
176.102,273.038219981
176.117,273.007526457
176.132,272.976750475
176.147,272.94589176
176.162,272.914949997
176.177,272.883924878
176.192,272.8528161
176.207,272.821623346
176.222,272.790346321
176.237,272.758984693
176.252,272.727538169
176.267,272.696006415
176.282,272.664389145
176.297,272.632686019
176.31,272.605140298
176.312,272.600896732
176.327,272.569020948
176.342,272.53705834
176.357,272.505008607
176.372,272.472871403
176.387,272.440646407
176.402,272.408333309
176.417,272.375931755
176.432,272.343441427
176.447,272.310861979
176.46,272.282554141
176.462,272.278193096
176.477,272.245434407
176.492,272.212585621
176.507,272.179646365
176.522,272.146616302
176.537,272.113495091
176.552,272.080282385
176.567,272.046977877
176.582,272.013581155
176.597,271.980091896
176.612,271.946509752
176.627,271.912834371
176.642,271.879065385
176.657,271.845202458
176.672,271.811245212
176.687,271.777193311
176.702,271.743046372
176.717,271.708804049
176.732,271.674465936
176.747,271.640031713
176.762,271.605500999
176.777,271.570873396
176.792,271.536148563
176.807,271.501326135
176.822,271.466405708
176.837,271.431386908
176.852,271.396269343
176.867,271.361052682
176.882,271.32573648
176.897,271.290320415
176.912,271.254804053
176.927,271.219186993
176.942,271.183468902
176.957,271.147649334
176.972,271.111727927
176.987,271.075704246
177.002,271.039577956
177.017,271.003348595
177.032,270.967015787
177.047,270.930579148
177.062,270.894038229
177.077,270.857392629
177.092,270.820641966
177.107,270.783785826
177.122,270.746823786
177.137,270.709755397
177.152,270.672580284
177.167,270.635298003
177.182,270.597908148
177.197,270.560410281
177.21,270.527824447
177.212,270.522803994
177.227,270.485088833
177.242,270.447264404
177.257,270.40933022
177.272,270.371285866
177.287,270.333130946
177.302,270.29486496
177.31,270.274410898
177.317,270.256487508
177.332,270.217998139
177.347,270.179396391
177.362,270.140681835
177.377,270.101854003
177.392,270.062912427
177.407,270.023856701
177.422,269.984686339
177.437,269.945400869
177.452,269.905999849
177.467,269.866482811
177.482,269.826849284
177.497,269.787098776
177.512,269.747230855
177.527,269.707245045
177.542,269.667140815
177.557,269.626917765
177.572,269.586575329
177.587,269.546113078
177.602,269.505530534
177.617,269.464827172
177.632,269.424002514
177.647,269.383056051
177.66,269.347470228
177.662,269.341987314
177.677,269.300795788
177.692,269.259480961
177.707,269.218042328
177.722,269.176479398
177.737,269.134791664
177.752,269.092978574
177.767,269.051039639
177.782,269.008974351
177.797,268.966782136
177.812,268.924462529
177.827,268.882014978
177.842,268.839438939
177.857,268.796733885
177.872,268.753899293
177.887,268.710934599
177.902,268.667839247
177.917,268.624612752
177.932,268.58125449
177.947,268.537763947
177.96,268.499964714
177.962,268.494140572
177.977,268.450383793
177.992,268.406493017
178.007,268.362467737
178.022,268.318307327
178.037,268.274011256
178.052,268.229578919
178.067,268.185009745
178.082,268.140303125
178.097,268.09545851
178.112,268.050475305
178.127,268.005352877
178.142,267.960090657
178.157,267.914687995
178.172,267.869144356
178.187,267.823459083
178.202,267.777631609
178.217,267.731661232
178.232,267.685547383
178.247,267.639289409
178.262,267.592886703
178.277,267.546338637
178.292,267.499644509
178.307,267.452803775
178.322,267.405815672
178.337,267.358679629
178.352,267.311394956
178.367,267.263960972
178.382,267.216377059
178.397,267.168642487
178.41,267.127150167
178.412,267.120756615
178.427,267.072718729
178.442,267.024528201
178.457,266.976184281
178.472,266.927686289
178.487,266.879033515
178.502,266.830225269
178.517,266.78126081
178.532,266.732139435
178.547,266.682860442
178.562,266.633423059
178.577,266.583826568
178.592,266.534070219
178.607,266.484153284
178.622,266.434074981
178.637,266.383834579
178.652,266.333431281
178.667,266.282864344
178.682,266.23213297
178.697,266.181236371
178.712,266.130173776
178.727,266.078944366
178.742,266.027547344
178.757,265.975981876
178.772,265.924247196
178.787,265.872342429
178.802,265.820266729
178.817,265.768019313
178.832,265.715599292
178.847,265.663005813
178.862,265.610238034
178.877,265.557295055
178.892,265.504175996
178.907,265.450879994
178.922,265.397406147
178.937,265.343753524
178.952,265.289921241
178.967,265.235908382
178.982,265.181713992
178.997,265.127337142
179.012,265.072776872
179.027,265.018032235
179.042,264.963102291
179.057,264.90798602
179.072,264.852682444
179.087,264.797190596
179.102,264.741509445
179.117,264.685637979
179.132,264.629575185
179.147,264.573319989
179.16,264.524409078
179.162,264.516871385
179.177,264.460228311
179.192,264.403389676
179.207,264.346354411
179.222,264.289121435
179.237,264.231689625
179.252,264.174057879
179.267,264.116225056
179.282,264.05819004
179.297,263.999951668
179.312,263.941508777
179.327,263.882860204
179.342,263.824004724
179.357,263.764941159
179.372,263.705668308
179.387,263.646184921
179.402,263.58648976
179.417,263.526581568
179.432,263.466459075
179.447,263.406121005
179.462,263.345566043
179.477,263.28479288
179.492,263.223800204
179.507,263.16258664
179.522,263.101150855
179.537,263.039491461
179.552,262.977607081
179.567,262.915496282
179.582,262.853157636
179.597,262.790589742
179.612,262.727791119
179.627,262.6647603
179.642,262.601495783
179.657,262.537996061
179.672,262.47425962
179.687,262.410284894
179.702,262.346070333
179.717,262.281614345
179.732,262.216915332
179.747,262.151971693
179.762,262.086781778
179.777,262.021343898
179.792,261.955656422
179.807,261.889717615
179.822,261.823525761
179.837,261.757079155
179.852,261.690376012
179.867,261.62341455
179.882,261.55619296
179.897,261.48870942
179.91,261.430010389
179.912,261.420962109
179.927,261.352949116
179.942,261.284668591
179.957,261.216118593
179.972,261.147297201
179.987,261.078202425
180.002,261.008832317
180.017,260.93918487
180.032,260.869258056
180.047,260.799049781
180.062,260.728558025
180.077,260.657780651
180.092,260.58671554
180.107,260.51536053
180.122,260.44371347
180.137,260.371772084
180.152,260.29953425
180.167,260.226997635
180.182,260.154160006
180.197,260.081019027
180.212,260.007572373
180.227,259.933817675
180.242,259.859752588
180.257,259.785374666
180.272,259.710681462
180.287,259.635670533
180.302,259.560339387
180.317,259.484685442
180.332,259.408706229
180.347,259.332399138
180.362,259.255761586
180.377,259.178790899
180.392,259.101484461
180.407,259.023839545
180.422,258.945853454
180.437,258.867523446
180.452,258.788846747
180.467,258.709820556
180.482,258.630442052
180.497,258.550708363
180.512,258.470616592
180.527,258.390163863
180.542,258.309347192
180.557,258.228163644
180.56,258.211882659
180.572,258.146610223
180.587,258.064683854
180.602,257.982381542
180.617,257.89970019
180.632,257.816636643
180.647,257.733187839
180.66,257.660551413
180.662,257.649350573
180.677,257.565121645
180.692,257.480497826
180.707,257.39547591
180.722,257.310052611
180.737,257.224224636
180.752,257.137988644
180.767,257.051341288
180.782,256.964279214
180.797,256.87679899
180.812,256.788897228
180.827,256.700570417
180.842,256.61181516
180.857,256.522627917
180.872,256.43300516
180.887,256.342943368
180.902,256.252438971
180.917,256.161488397
180.932,256.070087985
180.947,255.978234146
180.962,255.885923237
180.977,255.793151563
180.992,255.699915483
181.007,255.606211228
181.022,255.512035103
181.037,255.417383373
181.052,255.322252277
181.067,255.226638019
181.082,255.13053687
181.097,255.033944966
181.112,254.936858522
181.127,254.839273724
181.142,254.741186707
181.157,254.642593646
181.172,254.543490643
181.187,254.443873901
181.202,254.343739447
181.217,254.243083508
181.232,254.141902119
181.247,254.040191408
181.262,253.9379475
181.277,253.835166479
181.292,253.731844448
181.307,253.627977496
181.31,253.607138403
181.322,253.523561781
181.337,253.418593357
181.352,253.313068331
181.367,253.206982873
181.382,253.100333018
181.397,252.993114971
181.412,252.885324844
181.427,252.776958776
181.442,252.668012951
181.457,252.558483534
181.472,252.448366724
181.487,252.337658708
181.502,252.22635576
181.517,252.114454077
181.532,252.001949974
181.547,251.888839712
181.562,251.775119654
181.577,251.660786111
181.592,251.5458355
181.607,251.430264205
181.622,251.314068678
181.637,251.197245425
181.652,251.07979096
181.667,250.961701847
181.682,250.842974677
181.697,250.723606132
181.712,250.603592896
181.727,250.48293174
181.742,250.361619456
181.757,250.239652926
181.772,250.117029061
181.787,249.99374486
181.802,249.869797361
181.817,249.745183701
181.832,249.619901105
181.847,249.493946805
181.862,249.36731817
181.877,249.240012655
181.892,249.112027772
181.907,248.983361158
181.922,248.854010515
181.937,248.723973684
181.952,248.5932486
181.967,248.461833332
181.982,248.32972601
181.997,248.196924976
182.012,248.063428613
182.027,247.929235546
182.042,247.794344496
182.057,247.658754344
182.06,247.631552326
182.072,247.52246414
182.087,247.385473156
182.102,247.247780796
182.117,247.10938668
182.132,246.970290681
182.147,246.830492873
182.162,246.6899936
182.177,246.548793411
182.192,246.406893236
182.207,246.264294201
182.222,246.12099785
182.237,245.977005994
182.252,245.832320854
182.267,245.686945054
182.282,245.540881668
182.297,245.394134193
182.312,245.246706674
182.327,245.098603641
182.342,244.949830272
182.357,244.800392333
182.372,244.650296292
182.387,244.499549371
182.402,244.348159552
182.417,244.196135704
182.432,244.043487663
182.447,243.890226234
182.462,243.736363311
182.477,243.581912058
182.492,243.426886853
182.507,243.271303493
182.522,243.115179301
182.537,242.958533213
182.552,242.801385948
182.567,242.643760133
182.582,242.485680476
182.597,242.327173936
182.612,242.168269864
182.627,242.009000253
182.642,241.849399875
182.657,241.689506594
182.672,241.529361512
182.687,241.36900924
182.702,241.208498205
182.717,241.047880892
182.732,240.887214114
182.747,240.726559404
182.762,240.565983202
182.777,240.405557349
182.792,240.245359309
182.807,240.085472518
182.822,239.925986836
182.837,239.766998845
182.852,239.60861221
182.867,239.450937993
182.882,239.294095039
182.897,239.138210234
182.912,238.98341887
182.927,238.82986465
182.942,238.677700127
182.957,238.527086586
182.972,238.378194106
182.987,238.231201495
183.002,238.086295985
183.017,237.943672926
183.032,237.803535238
183.047,237.666092981
183.062,237.531562505
183.077,237.40016605
183.092,237.272131205
183.107,237.147691283
183.122,237.02708657
183.137,236.910567791
183.152,236.798403015
183.167,236.690890834
183.182,236.588383345
183.197,236.491325106
183.212,236.400315589
183.227,236.31620345
183.242,236.24021288
183.257,236.17407767
183.367,236.177142195
183.382,236.242684498
183.397,236.317613786
183.412,236.400336729
183.427,236.489737616
183.442,236.585041705
183.457,236.685695986
183.472,236.791283832
183.487,236.901469199
183.502,237.015962459
183.517,237.134500258
183.532,237.256834353
183.547,237.382725741
183.562,237.511941825
183.577,237.644255454
183.592,237.779444933
183.607,237.917294511
183.622,238.057594841
183.637,238.200143854
183.652,238.344747151
183.667,238.491218534
183.682,238.639380344
183.697,238.78906357
183.712,238.940108151
183.727,239.092362713
183.742,239.245684637
183.757,239.39993982
183.772,239.555002436
183.787,239.710754649
183.802,239.867086418
183.817,240.023894991
183.832,240.181084719
183.847,240.338566565
183.862,240.496257786
183.877,240.654081773
183.892,240.811967317
183.907,240.969848601
183.922,241.127664732
183.937,241.285359455
183.952,241.442880804
183.967,241.600180845
183.982,241.757215434
183.997,241.913943888
184.012,242.070328807
184.027,242.226335774
184.042,242.381933226
184.057,242.537092124
184.072,242.691785894
184.087,242.845990173
184.102,242.999682613
184.117,243.152842848
184.132,243.305452249
184.147,243.457493784
184.162,243.608951988
184.177,243.759812704
184.192,243.910063169
184.207,244.059691684
184.222,244.20868778
184.237,244.357041891
184.252,244.504745433
184.267,244.651790696
184.282,244.79817076
184.297,244.94387938
184.312,245.088911134
184.327,245.233261087
184.342,245.376924967
184.357,245.519899064
184.372,245.662180043
184.387,245.803765185
184.402,245.944652111
184.417,246.084838857
184.432,246.224323866
184.447,246.363105859
184.462,246.501183916
184.477,246.63855747
184.492,246.775226093
184.507,246.911189782
184.522,247.04644862
184.537,247.181003049
184.552,247.314853636
184.56,247.385953071
184.567,247.448001187
184.582,247.580446658
184.597,247.712191213
184.612,247.843236184
184.627,247.973583044
184.642,248.103233399
184.657,248.232189006
184.672,248.360451779
184.687,248.488023668
184.702,248.614906842
184.717,248.741103493
184.732,248.866616021
184.747,248.991446768
184.762,249.115598302
184.777,249.239073272
184.792,249.361874292
184.807,249.484004179
184.822,249.605465783
184.837,249.72626201
184.852,249.846395817
184.867,249.965870315
184.882,250.08468855
184.897,250.202853697
184.912,250.32036899
184.927,250.437237681
184.942,250.553463107
184.957,250.669048596
184.972,250.783997588
184.987,250.898313471
185.002,251.011999797
185.017,251.125060049
185.032,251.23749776
185.047,251.349316546
185.062,251.460519995
185.077,251.571111748
185.092,251.681095476
185.107,251.790474881
185.122,251.899253636
185.137,252.007435507
185.152,252.115024202
185.167,252.222023517
185.182,252.328437193
185.197,252.434269075
185.212,252.539522913
185.227,252.644202551
185.242,252.748311824
185.257,252.8518545
185.272,252.954834475
185.287,253.057255571
185.302,253.159121629
185.31,253.213224567
185.317,253.260436495
185.332,253.361203995
185.347,253.461428014
185.362,253.561112379
185.377,253.660260941
185.392,253.75887752
185.407,253.856965968
185.422,253.954530136
185.437,254.051573778
185.452,254.148100806
185.467,254.244114961
185.482,254.339620033
185.497,254.43461987
185.512,254.529118202
185.527,254.623118823
185.542,254.716625465
185.557,254.809641872
185.572,254.902171796
185.587,254.994218915
185.602,255.085786952
185.617,255.176879578
185.632,255.267500464
185.647,255.357653228
185.662,255.447341532
185.677,255.536568991
185.692,255.625339184
185.707,255.713655682
185.722,255.80152203
185.737,255.888941791
185.752,255.975918459
185.767,256.062455522
185.782,256.14855645
185.797,256.234224712
185.812,256.319463695
185.827,256.404276826
185.842,256.488667471
185.857,256.572638999
185.872,256.656194744
185.887,256.739338
185.902,256.822072052
185.917,256.90440017
185.932,256.986325615
185.947,257.067851541
185.96,257.138186648
185.962,257.148981141
185.977,257.22971761
185.992,257.310064045
186.007,257.390023576
186.022,257.469599295
186.037,257.54879424
186.052,257.627611439
186.06,257.669493856
186.067,257.706053893
186.082,257.784124592
186.097,257.861826466
186.112,257.93916248
186.127,258.016135509
186.142,258.092748415
186.157,258.169004043
186.172,258.244905243
186.187,258.320454765
186.202,258.395655409
186.217,258.4705099
186.232,258.545020955
186.247,258.619191238
186.262,258.693023452
186.277,258.766520207
186.292,258.839684089
186.307,258.912517701
186.322,258.98502363
186.337,259.057204339
186.352,259.129062377
186.367,259.200600238
186.382,259.271820317
186.397,259.342725072
186.412,259.413316908
186.427,259.483598199
186.442,259.553571282
186.457,259.623238507
186.472,259.69260214
186.487,259.761664486
186.502,259.830427781
186.517,259.898894276
186.532,259.967066141
186.547,260.034945583
186.562,260.102534737
186.577,260.169835751
186.592,260.236850714
186.607,260.303581715
186.622,260.370030842
186.637,260.436200096
186.652,260.502091526
186.667,260.567707107
186.682,260.633048818
186.697,260.698118601
186.71,260.754293947
186.712,260.762918391
186.727,260.827450095
186.742,260.891715582
186.757,260.955716747
186.772,261.019455398
186.787,261.082933388
186.802,261.146152492
186.817,261.209114526
186.832,261.27182121
186.847,261.334274301
186.862,261.39647554
186.877,261.458426592
186.892,261.52012917
186.907,261.581584938
186.922,261.642795542
186.937,261.703762572
186.952,261.764487663
186.967,261.824972439
186.982,261.885218426
186.997,261.945227175
187.012,262.005000281
187.027,262.064539203
187.042,262.123845455
187.057,262.182920575
187.072,262.241765964
187.087,262.30038312
187.102,262.358773451
187.117,262.416938401
187.132,262.474879381
187.147,262.53259777
187.162,262.590094949
187.177,262.647372266
187.192,262.704431074
187.207,262.761272703
187.222,262.817898505
187.237,262.874309708
187.252,262.930507664
187.267,262.98649361
187.282,263.042268831
187.297,263.097834551
187.312,263.153192035
187.327,263.208342483
187.342,263.263287111
187.357,263.318027093
187.372,263.372563632
187.387,263.426897891
187.402,263.481031049
187.417,263.534964219
187.432,263.588698563
187.447,263.642235174
187.46,263.688474508
187.462,263.695575209
187.477,263.748719701
187.492,263.801669804
187.507,263.854426551
187.522,263.906991031
187.537,263.959364288
187.552,264.011547379
187.567,264.063541345
187.582,264.115347198
187.597,264.16696595
187.612,264.218398599
187.627,264.269646162
187.642,264.320709604
187.657,264.371589919
187.672,264.422288074
187.687,264.472804988
187.702,264.523141682
187.717,264.57329903
187.732,264.623277981
187.747,264.673079458
187.762,264.722704385
187.777,264.772153661
187.792,264.821428175
187.807,264.870528834
187.822,264.919456497
187.837,264.968212056
187.852,265.016796356
187.867,265.065210252
187.882,265.113454617
187.897,265.16153029
187.912,265.209438091
187.927,265.257178835
187.942,265.304753355
187.957,265.352162482
187.972,265.399407015
187.987,265.446487727
188.002,265.493405445
188.017,265.540160932
188.032,265.586754991
188.047,265.633188346
188.062,265.679461808
188.077,265.725576137
188.092,265.771532075
188.107,265.817330359
188.122,265.862971748
188.137,265.908456953
188.152,265.953786724
188.167,265.998961805
188.182,266.043982873
188.197,266.088850671
188.21,266.127612654
188.212,266.133565896
188.227,266.178129229
188.242,266.222541402
188.257,266.266803091
188.272,266.310914984
188.287,266.354877762
188.302,266.398692086
188.317,266.442358648
188.332,266.485878116
188.347,266.529251122
188.362,266.572478333
188.377,266.615560434
188.392,266.658498038
188.407,266.701291766
188.422,266.743942298
188.437,266.786450271
188.452,266.828816279
188.467,266.871040953
188.482,266.913124939
188.497,266.955068818
188.512,266.996873221
188.527,267.038538761
188.542,267.080066014
188.557,267.121455602
188.572,267.162708123
188.587,267.203824136
188.602,267.244804268
188.617,267.285649082
188.632,267.326359152
188.647,267.36693507
188.66,267.401992768
188.662,267.407377372
188.677,267.447686675
188.692,267.487863518
188.707,267.527908447
188.722,267.567822049
188.737,267.607604864
