# 48698 WSSS Singapore Observations at 12Z 29 Aug 2019
Frequency [GHz],TB
175.31,273.889056492
175.322,273.869707096
175.337,273.845466148
175.352,273.821164751
175.367,273.796802658
175.382,273.772379619
175.397,273.747895387
175.412,273.723349708
175.427,273.698742331
175.442,273.674073001
175.457,273.649341462
175.472,273.624547453
175.487,273.599690714
175.502,273.574770987
175.517,273.549788005
175.532,273.524741501
175.547,273.49963121
175.562,273.47445686
175.577,273.449218181
175.592,273.423914901
175.607,273.398546741
175.622,273.373113428
175.637,273.347614678
175.652,273.322050212
175.667,273.296419749
175.682,273.270723001
175.697,273.244959682
175.712,273.2191295
175.727,273.193232167
175.742,273.167267388
175.757,273.141234866
175.772,273.115134305
175.787,273.088965405
175.802,273.062727865
175.817,273.036421378
175.832,273.010045638
175.847,272.983600338
175.862,272.957085167
175.877,272.930499812
175.892,272.903843955
175.907,272.87711728
175.922,272.850319469
175.937,272.823450197
175.952,272.79650914
175.967,272.769495973
175.982,272.742410362
175.997,272.71525198
176.012,272.68802049
176.027,272.660715557
176.042,272.633336841
176.057,272.605884001
176.072,272.578356692
176.087,272.550754568
176.102,272.523077278
176.117,272.495324473
176.132,272.467495799
176.147,272.439590897
176.162,272.411609408
176.177,272.38355097
176.192,272.355415219
176.207,272.327201785
176.222,272.298910303
176.237,272.270540392
176.252,272.242091683
176.267,272.213563795
176.282,272.184956348
176.297,272.156268955
176.31,272.131341584
176.312,272.127501232
176.327,272.098652788
176.342,272.069723229
176.357,272.04071216
176.372,272.011619187
176.387,271.982443901
176.402,271.953185901
176.417,271.92384478
176.432,271.894420128
176.447,271.864911528
176.46,271.839269184
176.462,271.835318566
176.477,271.805640821
176.492,271.775877871
176.507,271.746029288
176.522,271.716094645
176.537,271.686073507
176.552,271.655965443
176.567,271.625770005
176.582,271.59548676
176.597,271.565115257
176.612,271.53465505
176.627,271.504105683
176.642,271.473466704
176.657,271.442737652
176.672,271.411918064
176.687,271.381007473
176.702,271.35000541
176.717,271.318911406
176.732,271.287724979
176.747,271.256445649
176.762,271.225072935
176.777,271.193606347
176.792,271.162045397
176.807,271.130389586
176.822,271.098638416
176.837,271.066791387
176.852,271.034847991
176.867,271.002807718
176.882,270.970670055
176.897,270.938434482
176.912,270.906100478
176.927,270.873667521
176.942,270.841135076
176.957,270.808502613
176.972,270.775769593
176.987,270.742935474
177.002,270.709999711
177.017,270.676961751
177.032,270.643821045
177.047,270.610577031
177.062,270.577229148
177.077,270.543776829
177.092,270.510219501
177.107,270.476556592
177.122,270.44278752
177.137,270.408911699
177.152,270.374928543
177.167,270.34083746
177.182,270.30663785
177.197,270.272329111
177.21,270.242506129
177.212,270.237910638
177.227,270.203381817
177.242,270.168742036
177.257,270.133990672
177.272,270.0991271
177.287,270.064150689
177.302,270.029060806
177.31,270.010299584
177.317,269.993856812
177.332,269.95853806
177.347,269.923103902
177.362,269.887553685
177.377,269.851886747
177.392,269.816102428
177.407,269.780200055
177.422,269.744178955
177.437,269.708038451
177.452,269.671777854
177.467,269.635396477
177.482,269.598893626
177.497,269.5622686
177.512,269.525520693
177.527,269.488649195
177.542,269.45165339
177.557,269.414532556
177.572,269.377285966
177.587,269.339912888
177.602,269.302412584
177.617,269.26478431
177.632,269.227027317
177.647,269.189140852
177.66,269.156200598
177.662,269.151124153
177.677,269.112976453
177.692,269.074696982
177.707,269.036284961
177.722,268.997739606
177.737,268.959060129
177.752,268.920245735
177.767,268.88129562
177.782,268.842208979
177.797,268.802984998
177.812,268.763622856
177.827,268.72412173
177.842,268.684480786
177.857,268.644699186
177.872,268.604776088
177.887,268.564710639
177.902,268.524501982
177.917,268.484149255
177.932,268.443651587
177.947,268.403008101
177.96,268.367665116
177.962,268.362217916
177.977,268.321280142
177.992,268.280193881
178.007,268.238958232
178.022,268.197572286
178.037,268.156035125
178.052,268.114345827
178.067,268.072503462
178.082,268.030507092
178.097,267.988355775
178.112,267.946048558
178.127,267.903584485
178.142,267.860962591
178.157,267.818181903
178.172,267.775241443
178.187,267.732140223
178.202,267.688877249
178.217,267.645451521
178.232,267.60186203
178.247,267.558107759
178.262,267.514187686
178.277,267.47010078
178.292,267.425846001
178.307,267.381422303
178.322,267.336828632
178.337,267.292063927
178.352,267.247127118
178.367,267.202017127
178.382,267.156732869
178.397,267.111273251
178.41,267.071732217
178.412,267.065637171
178.427,267.019823519
178.442,266.97383118
178.457,266.927659025
178.472,266.88130592
178.487,266.834770725
178.502,266.788052287
178.517,266.741149449
178.532,266.694061041
178.547,266.646785887
178.562,266.599322803
178.577,266.551670596
178.592,266.50382806
178.607,266.455793989
178.622,266.407567158
178.637,266.359146342
178.652,266.3105303
178.667,266.261717785
178.682,266.212707544
178.697,266.163498308
178.712,266.114088804
178.727,266.064477746
178.742,266.014663842
178.757,265.964645789
178.772,265.914422272
178.787,265.863991972
178.802,265.813353553
178.817,265.762505676
178.832,265.711446989
178.847,265.660176128
178.862,265.608691723
178.877,265.55699239
178.892,265.505076738
178.907,265.452943364
178.922,265.400590855
178.937,265.348017786
178.952,265.295222724
178.967,265.242204224
178.982,265.188960829
178.997,265.135491074
179.012,265.081793479
179.027,265.027866556
179.042,264.973708807
179.057,264.919318717
179.072,264.864694764
179.087,264.809835414
179.102,264.754739122
179.117,264.699404328
179.132,264.643829462
179.147,264.588012943
179.16,264.539441924
179.162,264.531953177
179.177,264.475648557
179.192,264.419097464
179.207,264.362298266
179.222,264.305249319
179.237,264.247948966
179.252,264.190395537
179.267,264.132587348
179.282,264.074522702
179.297,264.01619989
179.312,263.957617187
179.327,263.898772856
179.342,263.839665145
179.357,263.780292288
179.372,263.720652505
179.387,263.660744001
179.402,263.600564966
179.417,263.540113578
179.432,263.479387993
179.447,263.41838636
179.462,263.357106807
179.477,263.295547448
179.492,263.233706379
179.507,263.171581685
179.522,263.109171429
179.537,263.046473659
179.552,262.983486407
179.567,262.920207688
179.582,262.856635498
179.597,262.792767816
179.612,262.728602604
179.627,262.664137804
179.642,262.59937134
179.657,262.534301119
179.672,262.468925026
179.687,262.403240929
179.702,262.337246674
179.717,262.270940087
179.732,262.204318977
179.747,262.137381129
179.762,262.070124308
179.777,262.002546256
179.792,261.934644695
179.807,261.866417324
179.822,261.79786182
179.837,261.728975836
179.852,261.659757002
179.867,261.590202926
179.882,261.520311189
179.897,261.450079348
179.91,261.38893474
179.912,261.379504936
179.927,261.30858546
179.942,261.237318401
179.957,261.165701214
179.972,261.093731325
179.987,261.021406134
180.002,260.948723015
180.017,260.87567931
180.032,260.802272335
180.047,260.728499374
180.062,260.654357683
180.077,260.579844486
180.092,260.504956978
180.107,260.429692319
180.122,260.354047639
180.137,260.278020035
180.152,260.20160657
180.167,260.124804274
180.182,260.047610139
180.197,259.970021127
180.212,259.892034158
180.227,259.81364612
180.242,259.734853861
180.257,259.655654194
180.272,259.576043889
180.287,259.496019681
180.302,259.415578262
180.317,259.334716285
180.332,259.253430359
180.347,259.171717054
180.362,259.089572897
180.377,259.006994368
180.392,258.923977906
180.407,258.840519903
180.422,258.756616705
180.437,258.672264614
180.452,258.58745988
180.467,258.50219871
180.482,258.416477258
180.497,258.330291631
180.512,258.243637883
180.527,258.156512019
180.542,258.068909992
180.557,257.980827699
180.56,257.963153244
180.572,257.892260987
180.587,257.803205648
180.602,257.713657418
180.617,257.623611977
180.632,257.53306495
180.647,257.442011902
180.66,257.362686476
180.662,257.350448343
180.677,257.258369721
180.692,257.165771428
180.707,257.072648794
180.722,256.978997087
180.737,256.884811515
180.752,256.790087224
180.767,256.694819297
180.782,256.599002752
180.797,256.502632545
180.812,256.405703567
180.827,256.308210644
180.842,256.210148535
180.857,256.111511935
180.872,256.012295471
180.887,255.912493705
180.902,255.81210113
180.917,255.711112172
180.932,255.609521189
180.947,255.507322474
180.962,255.404510246
180.977,255.301078662
180.992,255.197021808
181.007,255.092333701
181.022,254.98700829
181.037,254.88103946
181.052,254.774421022
181.067,254.667146724
181.082,254.559210246
181.097,254.450605201
181.112,254.341325137
181.127,254.231363537
181.142,254.120713816
181.157,254.009369331
181.172,253.897323372
181.187,253.78456917
181.202,253.671099894
181.217,253.556908656
181.232,253.441988509
181.247,253.326332451
181.262,253.209933426
181.277,253.092784326
181.292,252.974877994
181.307,252.856207223
181.31,252.8323807
181.322,252.736764764
181.337,252.616543324
181.352,252.49553557
181.367,252.373734133
181.382,252.25113161
181.397,252.12772057
181.412,252.003493555
181.427,251.878443083
181.442,251.752561656
181.457,251.625841764
181.472,251.498275884
181.487,251.369856494
181.502,251.24057607
181.517,251.110427098
181.532,250.979402075
181.547,250.84749352
181.562,250.714693975
181.577,250.580996017
181.592,250.446392264
181.607,250.310875381
181.622,250.174438091
181.637,250.037073179
181.652,249.898773508
181.667,249.75953202
181.682,249.619341754
181.697,249.47819585
181.712,249.336087564
181.727,249.193010278
181.742,249.048957511
181.757,248.903922933
181.772,248.757900376
181.787,248.61088385
181.802,248.462867556
181.817,248.313845901
181.832,248.163813513
181.847,248.012765256
181.862,247.860696251
181.877,247.707601889
181.892,247.55347785
181.907,247.398320123
181.922,247.242125027
181.937,247.084889228
181.952,246.92660976
181.967,246.767284054
181.982,246.606909949
181.997,246.445485726
182.012,246.283010128
182.027,246.119482385
182.042,245.954902241
182.057,245.789269981
182.06,245.75601734
182.072,245.62258646
182.087,245.45485313
182.102,245.28607207
182.117,245.116246019
182.132,244.945378405
182.147,244.77347338
182.162,244.600535852
182.177,244.426571521
182.192,244.251586914
182.207,244.075589422
182.222,243.898587336
182.237,243.720589891
182.252,243.541607299
182.267,243.361650795
182.282,243.180732676
182.297,242.998866347
182.312,242.81606636
182.327,242.632348467
182.342,242.447729657
182.357,242.262228209
182.372,242.075863742
182.387,241.888657258
182.402,241.700631197
182.417,241.511809489
182.432,241.322217602
182.447,241.131882601
182.462,240.940833199
182.477,240.749099814
182.492,240.556714625
182.507,240.363711627
182.522,240.170126694
182.537,239.975997631
182.552,239.781364236
182.567,239.586268362
182.582,239.390753966
182.597,239.194867177
182.612,238.998656347
182.627,238.802172106
182.642,238.605467415
182.657,238.408597613
182.672,238.211620459
182.687,238.014596169
182.702,237.817587437
182.717,237.620659454
182.732,237.423879896
182.747,237.22731891
182.762,237.031049056
182.777,236.835145223
182.792,236.639684506
182.807,236.444746023
182.822,236.250410661
182.837,236.056760749
182.852,235.863879608
182.867,235.671850974
182.882,235.480758241
182.897,235.290683496
182.912,235.101706262
182.927,234.913901906
182.942,234.727339582
182.957,234.542079602
182.972,234.358170068
182.987,234.175642526
183.002,233.994506361
183.017,233.814741531
183.032,233.636289087
183.047,233.459038736
183.062,233.28281242
183.077,233.107342462
183.092,232.932242273
183.107,232.756966816
183.122,232.580758937
183.137,232.402576328
183.152,232.220992521
183.167,232.034065015
183.182,231.839168067
183.197,231.632808476
183.212,231.410516546
183.227,231.167149076
183.242,230.898740924
183.257,230.609633208
183.367,230.6715665
183.382,230.952974583
183.397,231.211051369
183.412,231.444820596
183.427,231.658887856
183.442,231.858294126
183.457,232.047254733
183.472,232.229019742
183.487,232.406018672
183.502,232.580044227
183.517,232.752410682
183.532,232.92407667
183.547,233.095736789
183.562,233.267889058
183.577,233.440884501
183.592,233.614963727
183.607,233.790284069
183.622,233.966939879
183.637,234.144977806
183.652,234.324408383
183.667,234.505214877
183.682,234.687360084
183.697,234.870791571
183.712,235.055445748
183.727,235.241251021
183.742,235.428130262
183.757,235.616002726
183.772,235.804785551
183.787,235.994394925
183.802,236.184746992
183.817,236.375758551
183.832,236.567347596
183.847,236.759433722
183.862,236.951938431
183.877,237.14478536
183.892,237.33790044
183.907,237.531212006
183.922,237.724650867
183.937,237.918150346
183.952,238.111646294
183.967,238.305077079
183.982,238.498383573
183.997,238.691509113
184.012,238.884399465
184.027,239.077002774
184.042,239.269269509
184.057,239.461152415
184.072,239.652606445
184.087,239.843588707
184.102,240.034058402
184.117,240.223976761
184.132,240.413306984
184.147,240.602014184
184.162,240.79006532
184.177,240.977429145
184.192,241.164076141
184.207,241.349978467
184.222,241.535109899
184.237,241.719445776
184.252,241.902962949
184.267,242.085639721
184.282,242.267455803
184.297,242.448392259
184.312,242.628431457
184.327,242.807557021
184.342,242.985753787
184.357,243.163007752
184.372,243.339306033
184.387,243.51463682
184.402,243.688989339
184.417,243.862353804
184.432,244.034721382
184.447,244.206084153
184.462,244.376435066
184.477,244.545767913
184.492,244.714077281
184.507,244.881358527
184.522,245.047607737
184.537,245.212821698
184.552,245.376997864
184.56,245.464133459
184.567,245.540134325
184.582,245.702229776
184.597,245.86328349
184.612,246.023295291
184.627,246.182265524
184.642,246.340195028
184.657,246.497085116
184.672,246.652937545
184.687,246.807754495
184.702,246.961538547
184.717,247.114292657
184.732,247.26602014
184.747,247.416724646
184.762,247.566410144
184.777,247.715080896
184.792,247.862741449
184.807,248.009396608
184.822,248.155051426
184.837,248.299711183
184.852,248.443381374
184.867,248.586067694
184.882,248.72777602
184.897,248.868512403
184.912,249.00828305
184.927,249.147094315
184.942,249.284952684
184.957,249.421864766
184.972,249.557837283
184.987,249.692877055
185.002,249.826990994
185.017,249.960186094
185.032,250.092469422
185.047,250.223848107
185.062,250.354329335
185.077,250.483920338
185.092,250.61262839
185.107,250.740460798
185.122,250.867424895
185.137,250.993528035
185.152,251.118777585
185.167,251.243180922
185.182,251.366745424
185.197,251.489478469
185.212,251.611387426
185.227,251.732479656
185.242,251.852762501
185.257,251.972243283
185.272,252.090929304
185.287,252.208827834
185.302,252.325946117
185.31,252.388092657
185.317,252.44229136
185.332,252.557870735
185.347,252.672691374
185.362,252.786760367
185.377,252.90008476
185.392,253.012671552
185.407,253.124527693
185.422,253.235660084
185.437,253.346075572
185.452,253.455780951
185.467,253.564782958
185.482,253.673088275
185.497,253.780703526
185.512,253.887635275
185.527,253.993890024
185.542,254.099474219
185.557,254.204394239
185.572,254.308656403
185.587,254.412266968
185.602,254.515232123
185.617,254.617557997
185.632,254.719250653
185.647,254.82031609
185.662,254.920760239
185.677,255.020588971
185.692,255.119808087
185.707,255.218423326
185.722,255.316440359
185.737,255.413864794
185.752,255.510702173
185.767,255.606957974
185.782,255.70263761
185.797,255.797746428
185.812,255.892289713
185.827,255.986272686
185.842,256.079700505
185.857,256.172578262
185.872,256.264910992
185.887,256.356703663
185.902,256.447961183
185.917,256.5386884
185.932,256.628890102
185.947,256.718571014
185.96,256.795876821
185.962,256.807735806
185.977,256.896389084
185.992,256.9845354
186.007,257.072179248
186.022,257.159325064
186.037,257.245977227
186.052,257.332140063
186.06,257.377894972
186.067,257.417817841
186.082,257.503014776
186.097,257.58773503
186.112,257.671982712
186.127,257.755761879
186.142,257.839076537
186.157,257.92193064
186.172,258.004328091
186.187,258.086272747
186.202,258.167768413
186.217,258.248818849
186.232,258.329427766
186.247,258.409598826
186.262,258.489335651
186.277,258.568641811
186.292,258.647520839
186.307,258.725976216
186.322,258.804011388
186.337,258.881629751
186.352,258.958834665
186.367,259.035629445
186.382,259.112017369
186.397,259.188001672
186.412,259.263585551
186.427,259.338772165
186.442,259.413564635
186.457,259.487966044
186.472,259.561979439
186.487,259.63560783
186.502,259.708854194
186.517,259.78172147
186.532,259.854212564
186.547,259.92633035
186.562,259.998077666
186.577,260.069457319
186.592,260.140472083
186.607,260.211124703
186.622,260.28141789
186.637,260.351354328
186.652,260.420936666
186.667,260.490167528
186.682,260.559049509
186.697,260.627585173
186.71,260.686704579
186.712,260.695777058
186.727,260.763627674
186.742,260.831139504
186.757,260.898315004
186.772,260.965156605
186.787,261.031666712
186.802,261.097847704
186.817,261.163701937
186.832,261.229231739
186.847,261.29443942
186.862,261.35932726
186.877,261.423897519
186.892,261.488152436
186.907,261.552094223
186.922,261.615725074
186.937,261.679047159
186.952,261.742062628
186.967,261.804773608
186.982,261.867182209
186.997,261.929290516
187.012,261.991100597
187.027,262.0526145
187.042,262.113834254
187.057,262.174761866
187.072,262.235399327
187.087,262.295748609
187.102,262.355811666
187.117,262.415590433
187.132,262.475086826
187.147,262.534302749
187.162,262.593240083
187.177,262.651900694
187.192,262.710286432
187.207,262.76839913
187.222,262.826240605
187.237,262.883812658
187.252,262.941117075
187.267,262.998155625
187.282,263.05493006
187.297,263.111442123
187.312,263.167693535
187.327,263.223686009
187.342,263.279421237
187.357,263.334900902
187.372,263.390126669
187.387,263.44510019
187.402,263.499823106
187.417,263.554297041
187.432,263.608523607
187.447,263.662504403
187.46,263.709090184
187.462,263.716241013
187.477,263.769735011
187.492,263.822987957
187.507,263.876001397
187.522,263.928776866
187.537,263.981315887
187.552,264.033619969
187.567,264.08569061
187.582,264.137529298
187.597,264.189137505
187.612,264.240516695
187.627,264.291668319
187.642,264.342593816
187.657,264.393294615
187.672,264.443772134
187.687,264.494027779
187.702,264.544062945
187.717,264.593879017
187.732,264.643477369
187.747,264.692859363
187.762,264.742026354
187.777,264.790979682
187.792,264.839720682
187.807,264.888250675
187.822,264.936570972
187.837,264.984682875
187.852,265.032587678
187.867,265.080286661
187.882,265.127781099
187.897,265.175072253
187.912,265.222161379
187.927,265.269049719
187.942,265.315738509
187.957,265.362228973
187.972,265.408522329
187.987,265.454619784
188.002,265.500522536
188.017,265.546231775
188.032,265.591748681
188.047,265.637074427
188.062,265.682210173
188.077,265.727157077
188.092,265.771916283
188.107,265.816488928
188.122,265.860876143
188.137,265.905079048
188.152,265.949098755
188.167,265.992936368
188.182,266.036592984
188.197,266.08006969
188.21,266.117604811
188.212,266.123367567
188.227,266.166487687
188.242,266.209431115
188.257,266.252198907
188.272,266.29479211
188.287,266.337211766
188.302,266.37945891
188.317,266.421534567
188.332,266.463439755
188.347,266.505175486
188.362,266.546742762
188.377,266.588142579
188.392,266.629375928
188.407,266.67044379
188.422,266.711347139
188.437,266.752086943
188.452,266.792664163
188.467,266.833079751
188.482,266.873334655
188.497,266.913429813
188.512,266.95336616
188.527,266.99314462
188.542,267.032766113
188.557,267.072231552
188.572,267.111541843
188.587,267.150697885
188.602,267.18970057
188.617,267.228550786
188.632,267.267249413
188.647,267.305797322
188.66,267.339084269
188.662,267.344195383
188.677,267.382444456
188.692,267.420545396
188.707,267.45849905
188.722,267.496306262
188.737,267.533967868
