# 10410 EDZE Essen Observations at 12Z 25 Apr 2019
Frequency [GHz],TB
175.31,269.051436387
175.322,269.039081034
175.337,269.023499423
175.352,269.007765039
175.367,268.991877797
175.382,268.97583762
175.397,268.959644426
175.412,268.94329815
175.427,268.926798723
175.442,268.91014608
175.457,268.893340169
175.472,268.876380934
175.487,268.859268326
175.502,268.842002303
175.517,268.824582825
175.532,268.80700986
175.547,268.789283377
175.562,268.771403349
175.577,268.753369759
175.592,268.73518259
175.607,268.716841831
175.622,268.698347475
175.637,268.679699522
175.652,268.660897974
175.667,268.641942838
175.682,268.622834127
175.697,268.603571861
175.712,268.584156056
175.727,268.564586742
175.742,268.54486395
175.757,268.524987713
175.772,268.504958075
175.787,268.484775078
175.802,268.464438772
175.817,268.443949211
175.832,268.423306455
175.847,268.402510565
175.862,268.381561612
175.877,268.360459665
175.892,268.339204803
175.907,268.317797106
175.922,268.29623666
175.937,268.274523556
175.952,268.252657889
175.967,268.230639757
175.982,268.208469262
175.997,268.186146516
176.012,268.163671629
176.027,268.141044718
176.042,268.118265904
176.057,268.09533531
176.072,268.072253068
176.087,268.04901931
176.102,268.025634176
176.117,268.002097805
176.132,267.978410345
176.147,267.954571944
176.162,267.930582759
176.177,267.906442945
176.192,267.882152666
176.207,267.857712087
176.222,267.833121377
176.237,267.808380711
176.252,267.783490264
176.267,267.75845022
176.282,267.733260761
176.297,267.707922077
176.31,267.685841326
176.312,267.682434359
176.327,267.656797804
176.342,267.631012607
176.357,267.605078974
176.372,267.578997108
176.387,267.55276722
176.402,267.526389519
176.417,267.499864224
176.432,267.47319155
176.447,267.446371721
176.46,267.423009009
176.462,267.419404959
176.477,267.392291494
176.492,267.365031554
176.507,267.337625373
176.522,267.310073185
176.537,267.28237523
176.552,267.254531749
176.567,267.226542983
176.582,267.198409182
176.597,267.170130589
176.612,267.141707457
176.627,267.11314004
176.642,267.084428591
176.657,267.055573366
176.672,267.026574624
176.687,266.997432627
176.702,266.968147636
176.717,266.938719916
176.732,266.909149732
176.747,266.87943735
176.762,266.84958304
176.777,266.819587072
176.792,266.789449717
176.807,266.759171247
176.822,266.728751935
176.837,266.698192057
176.852,266.667491887
176.867,266.636651701
176.882,266.605671777
176.897,266.574552391
176.912,266.54329382
176.927,266.511896346
176.942,266.480360244
176.957,266.448685793
176.972,266.416873272
176.987,266.384922961
177.002,266.35283514
177.017,266.320610083
177.032,266.288248069
177.047,266.25574938
177.062,266.223114289
177.077,266.190343073
177.092,266.157436009
177.107,266.124393371
177.122,266.091215432
177.137,266.057902467
177.152,266.024454744
177.167,265.990872535
177.182,265.957156111
177.197,265.923305736
177.21,265.893860599
177.212,265.889321676
177.227,265.855204198
177.242,265.820953559
177.257,265.786570022
177.272,265.752053843
177.287,265.717405278
177.302,265.682624582
177.31,265.664020937
177.317,265.647712003
177.332,265.612667792
177.347,265.577492192
177.362,265.542185447
177.377,265.506747796
177.392,265.471179477
177.407,265.435480721
177.422,265.399651761
177.437,265.363692821
177.452,265.327604127
177.467,265.291385897
177.482,265.255038347
177.497,265.218561692
177.512,265.181956135
177.527,265.145221883
177.542,265.108359138
177.557,265.071368092
177.572,265.034248938
177.587,264.997001861
177.602,264.959627044
177.617,264.922124665
177.632,264.884494894
177.647,264.846737902
177.66,264.813912389
177.662,264.808853846
177.677,264.770842888
177.692,264.732705177
177.707,264.694440859
177.722,264.656050076
177.737,264.617532963
177.752,264.578889647
177.767,264.540120256
177.782,264.501224902
177.797,264.462203701
177.812,264.423056755
177.827,264.383784166
177.842,264.344386024
177.857,264.304862416
177.872,264.265213422
177.887,264.225439115
177.902,264.18553956
177.917,264.145514817
177.932,264.105364941
177.947,264.065089972
177.96,264.030083845
177.962,264.024689952
177.977,263.984164911
177.992,263.943514873
178.007,263.902739854
178.022,263.861839864
178.037,263.820814902
178.052,263.779664962
178.067,263.738390031
178.082,263.696990087
178.097,263.655465099
178.112,263.613815031
178.127,263.572039836
178.142,263.53013946
178.157,263.488113842
178.172,263.44596291
178.187,263.403686587
178.202,263.361284786
178.217,263.31875741
178.232,263.276104357
178.247,263.233325513
178.262,263.190420757
178.277,263.14738996
178.292,263.104232983
178.307,263.060949679
178.322,263.01753989
178.337,262.974003455
178.352,262.930340196
178.367,262.886549931
178.382,262.84263247
178.397,262.798587609
178.41,262.760312184
178.412,262.754415141
178.427,262.710114844
178.442,262.665686492
178.457,262.621129845
178.472,262.576444656
178.487,262.531630672
178.502,262.486687625
178.517,262.441615241
178.532,262.396413234
178.547,262.351081312
178.562,262.305619174
178.577,262.260026504
178.592,262.214302983
178.607,262.168448278
178.622,262.12246205
178.637,262.076343948
178.652,262.030093612
178.667,261.983710675
178.682,261.937194755
178.697,261.890545469
178.712,261.843762415
178.727,261.796845189
178.742,261.749793372
178.757,261.702606542
178.772,261.65528426
178.787,261.607826084
178.802,261.560231558
178.817,261.512500219
178.832,261.464631594
178.847,261.416625202
178.862,261.368480549
178.877,261.320197136
178.892,261.271774454
178.907,261.223211979
178.922,261.174509185
178.937,261.125665534
178.952,261.076680477
178.967,261.027553461
178.982,260.978283916
178.997,260.928871271
179.012,260.879314941
179.027,260.829614333
179.042,260.779768845
179.057,260.729777866
179.072,260.67964078
179.087,260.629356954
179.102,260.578925754
179.117,260.528346534
179.132,260.477618639
179.147,260.426741403
179.16,260.382526484
179.162,260.37571416
179.177,260.324536226
179.192,260.273206913
179.207,260.221725524
179.222,260.170091355
179.237,260.118303691
179.252,260.06636181
179.267,260.014264984
179.282,259.962012473
179.297,259.909603532
179.312,259.857037408
179.327,259.804313337
179.342,259.75143055
179.357,259.698388273
179.372,259.645185719
179.387,259.591822095
179.402,259.538296602
179.417,259.484608433
179.432,259.430756773
179.447,259.376740801
179.462,259.322559688
179.477,259.268212597
179.492,259.213698688
179.507,259.15901711
179.522,259.104167008
179.537,259.049147515
179.552,258.993957765
179.567,258.93859688
179.582,258.883063979
179.597,258.827358171
179.612,258.771478563
179.627,258.715424252
179.642,258.659194332
179.657,258.602787888
179.672,258.546204003
179.687,258.489441751
179.702,258.432500203
179.717,258.37537842
179.732,258.318075464
179.747,258.260590384
179.762,258.202922231
179.777,258.145070048
179.792,258.087032871
179.807,258.028809732
179.822,257.97039966
179.837,257.911801678
179.852,257.853014804
179.867,257.794038053
179.882,257.734870432
179.897,257.675510947
179.91,257.62391009
179.912,257.615958597
179.927,257.556212381
179.942,257.496271289
179.957,257.436134311
179.972,257.375800429
179.987,257.315268626
180.002,257.254537876
180.017,257.193607154
180.032,257.132475429
180.047,257.071141666
180.062,257.009604828
180.077,256.947863873
180.092,256.88591776
180.107,256.823765438
180.122,256.76140586
180.137,256.698837971
180.152,256.636060713
180.167,256.573073028
180.182,256.509873857
180.197,256.446462131
180.212,256.382836785
180.227,256.318996748
180.242,256.254940946
180.257,256.190668307
180.272,256.12617775
180.287,256.061468196
180.302,255.996538563
180.317,255.931387767
180.332,255.86601472
180.347,255.800418332
180.362,255.734597512
180.377,255.668551167
180.392,255.6022782
180.407,255.535777512
180.422,255.469048006
180.437,255.402088577
180.452,255.334898122
180.467,255.267475534
180.482,255.199819705
180.497,255.131929522
180.512,255.063803876
180.527,254.99544165
180.542,254.926841728
180.557,254.858002988
180.56,254.844206485
180.572,254.788924314
180.587,254.719604579
180.602,254.650042661
180.617,254.580237428
180.632,254.510187754
180.647,254.439892506
180.66,254.378770438
180.662,254.369350549
180.677,254.298560748
180.692,254.227521964
180.707,254.156233054
180.722,254.084692878
180.737,254.012900286
180.752,253.940854133
180.767,253.868553267
180.782,253.795996534
180.797,253.72318278
180.812,253.650110844
180.827,253.576779566
180.842,253.503187784
180.857,253.429334328
180.872,253.355218031
180.887,253.28083772
180.902,253.206192221
180.917,253.131280356
180.932,253.056100945
180.947,252.980652804
180.962,252.904934748
180.977,252.828945588
180.992,252.752684132
181.007,252.676149187
181.022,252.599339555
181.037,252.522254038
181.052,252.444891433
181.067,252.367250535
181.082,252.289330139
181.097,252.211129033
181.112,252.13264601
181.127,252.053879855
181.142,251.974829351
181.157,251.895493286
181.172,251.815870439
181.187,251.735959593
181.202,251.65575953
181.217,251.575269027
181.232,251.494486868
181.247,251.41341183
181.262,251.332042696
181.277,251.250378249
181.292,251.168417275
181.307,251.086158557
181.31,251.069670979
181.322,251.003600889
181.337,250.920743061
181.352,250.837583874
181.367,250.754122131
181.382,250.67035664
181.397,250.586286216
181.412,250.501909687
181.427,250.417225885
181.442,250.332233654
181.457,250.246931849
181.472,250.161319339
181.487,250.075395008
181.502,249.989157753
181.517,249.902606492
181.532,249.815740161
181.547,249.728557715
181.562,249.641058136
181.577,249.553240432
181.592,249.465103634
181.607,249.376646808
181.622,249.28786905
181.637,249.198769496
181.652,249.109347315
181.667,249.019601723
181.682,248.929531977
181.697,248.839137389
181.712,248.748417316
181.727,248.657371178
181.742,248.565998453
181.757,248.474298686
181.772,248.382271493
181.787,248.289916563
181.802,248.197233667
181.817,248.104222665
181.832,248.010883508
181.847,247.917216245
181.862,247.823221032
181.877,247.728898137
181.892,247.63424795
181.907,247.53927099
181.922,247.44396791
181.937,247.34833951
181.952,247.252386745
181.967,247.156110733
181.982,247.059512769
181.997,246.962594331
182.012,246.865357095
182.027,246.767802945
182.042,246.669933988
182.057,246.57175256
182.06,246.552079002
182.072,246.47326125
182.087,246.374462904
182.102,246.275360646
182.117,246.175957891
182.132,246.076258362
182.147,245.976266107
182.162,245.875985513
182.177,245.775421327
182.192,245.674578675
182.207,245.573463079
182.222,245.472080474
182.237,245.370437235
182.252,245.268540191
182.267,245.166396648
182.282,245.064014409
182.297,244.961401804
182.312,244.858567691
182.327,244.755521502
182.342,244.652273245
182.357,244.548833535
182.372,244.445213608
182.387,244.341425348
182.402,244.237481291
182.417,244.133394658
182.432,244.029179358
182.447,243.924850004
182.462,243.820421918
182.477,243.715911141
182.492,243.611334429
182.507,243.506709254
182.522,243.402053787
182.537,243.297386882
182.552,243.192728052
182.567,243.088097423
182.582,242.983515697
182.597,242.879004077
182.612,242.774584197
182.627,242.670278014
182.642,242.566107696
182.657,242.462095473
182.672,242.358263455
182.687,242.25463343
182.702,242.1512266
182.717,242.048063297
182.732,241.945162612
182.747,241.84254198
182.762,241.74021669
182.777,241.638199275
182.792,241.536498842
182.807,241.435120225
182.822,241.334063024
182.837,241.233320433
182.852,241.132877869
182.867,241.032711319
182.882,240.932785368
182.897,240.833050824
182.912,240.733441853
182.927,240.633872494
182.942,240.534232408
182.957,240.43438166
182.972,240.334144246
182.987,240.233300061
183.002,240.131574789
183.017,240.028627124
183.032,239.924032457
183.047,239.817261885
183.062,239.707654913
183.077,239.594383683
183.092,239.476405612
183.107,239.352400179
183.122,239.220683893
183.137,239.07909533
183.152,238.924839566
183.167,238.7542794
183.182,238.562662474
183.197,238.343788923
183.212,238.089682756
183.227,237.790517464
183.242,237.435600557
183.257,237.01773527
183.367,237.116432552
183.382,237.515028331
183.397,237.851729645
183.412,238.135372302
183.427,238.376633728
183.442,238.584892351
183.457,238.767644462
183.472,238.9306863
183.487,239.07845576
183.502,239.214351777
183.517,239.340990147
183.532,239.460397462
183.547,239.574155129
183.562,239.683505773
183.577,239.789432017
183.592,239.892715147
183.607,239.993979161
183.622,240.093724124
183.637,240.192351664
183.652,240.290184643
183.667,240.38748247
183.682,240.484453126
183.697,240.581262684
183.712,240.67804292
183.727,240.77489742
183.742,240.871906541
183.757,240.969131443
183.772,241.066617409
183.787,241.164396566
183.802,241.262490165
183.817,241.360910454
183.832,241.459662259
183.847,241.558744304
183.862,241.658150321
183.877,241.757869994
183.892,241.857889739
183.907,241.958193379
183.922,242.05876271
183.937,242.159577974
183.952,242.260618275
183.967,242.361861905
183.982,242.463286647
183.997,242.564870005
184.012,242.666589418
184.027,242.768422421
184.042,242.87034679
184.057,242.972340653
184.072,243.074382594
184.087,243.176451714
184.102,243.278527705
184.117,243.380590891
184.132,243.48262226
184.147,243.584603498
184.162,243.686516994
184.177,243.788345863
184.192,243.890073938
184.207,243.991685777
184.222,244.09316665
184.237,244.194502538
184.252,244.295680115
184.267,244.396686733
184.282,244.497510409
184.297,244.598139805
184.312,244.69856421
184.327,244.798773518
184.342,244.898758208
184.357,244.998509326
184.372,245.098018455
184.387,245.197277707
184.402,245.296279691
184.417,245.395017494
184.432,245.493484666
184.447,245.59167519
184.462,245.689583471
184.477,245.787204316
184.492,245.884532901
184.507,245.981564777
184.522,246.078295831
184.537,246.17472228
184.552,246.270840649
184.56,246.321976701
184.567,246.36664776
184.582,246.462140714
184.597,246.557316872
184.612,246.652173851
184.627,246.746709502
184.642,246.840921898
184.657,246.93480933
184.672,247.028370281
184.687,247.121603426
184.702,247.214507618
184.717,247.307081876
184.732,247.399325377
184.747,247.491237449
184.762,247.582817555
184.777,247.674065292
184.792,247.764980383
184.807,247.85556266
184.822,247.945812068
184.837,248.035728655
184.852,248.12531256
184.867,248.214564015
184.882,248.303483334
184.897,248.39207091
184.912,248.480327208
184.927,248.56825276
184.942,248.655848164
184.957,248.743114074
184.972,248.830051203
184.987,248.916660309
185.002,249.002942206
185.017,249.088897743
185.032,249.174527817
185.047,249.259833355
185.062,249.344815325
185.077,249.429474728
185.092,249.513812589
185.107,249.597829961
185.122,249.681527927
185.137,249.764907585
185.152,249.847970062
185.167,249.930716499
185.182,250.013148051
185.197,250.095265896
185.212,250.177071221
185.227,250.258565227
185.242,250.339749126
185.257,250.420624138
185.272,250.501191495
185.287,250.581452435
185.302,250.661408203
185.31,250.703926928
185.317,250.741060048
185.332,250.820409226
185.347,250.899456996
185.362,250.97820462
185.377,251.056653364
185.392,251.134804494
185.407,251.212659278
185.422,251.290218986
185.437,251.367484887
185.452,251.444458246
185.467,251.521140336
185.482,251.597532424
185.497,251.673635772
185.512,251.749451647
185.527,251.824981311
185.542,251.900226022
185.557,251.975187038
185.572,252.049865613
185.587,252.124263
185.602,252.198380445
185.617,252.272219195
185.632,252.34578049
185.647,252.419065569
185.662,252.492075667
185.677,252.564812014
185.692,252.637275837
185.707,252.70946836
185.722,252.781390802
185.737,252.853044377
185.752,252.924430298
185.767,252.995549773
185.782,253.066404003
185.797,253.13699419
185.812,253.207321527
185.827,253.277387206
185.842,253.347192416
185.857,253.416738339
185.872,253.486026155
185.887,253.555057042
185.902,253.623832167
185.917,253.6923527
185.932,253.760619806
185.947,253.828634643
185.96,253.887377673
185.962,253.896398369
185.977,253.963912138
185.992,254.031177096
186.007,254.09819439
186.022,254.164965161
186.037,254.231490548
186.052,254.297771686
186.06,254.333022144
186.067,254.363809703
186.082,254.429605729
186.097,254.495160888
186.112,254.5604763
186.127,254.625553083
186.142,254.690392349
186.157,254.75499521
186.172,254.819362775
186.187,254.883496144
186.202,254.947396421
186.217,255.0110647
186.232,255.074502078
186.247,255.137709646
186.262,255.200688489
186.277,255.263439696
186.292,255.325964344
186.307,255.388263512
186.322,255.450338278
186.337,255.512189711
186.352,255.573818879
186.367,255.635226851
186.382,255.696414685
186.397,255.757383444
186.412,255.818134182
186.427,255.878667951
186.442,255.938985802
186.457,255.99908878
186.472,256.058977929
186.487,256.11865429
186.502,256.178118896
186.517,256.237372783
186.532,256.29641698
186.547,256.355252514
186.562,256.413880406
186.577,256.472301679
186.592,256.530517346
186.607,256.588528421
186.622,256.646335913
186.637,256.703940829
186.652,256.76134417
186.667,256.818546934
186.682,256.875550118
186.697,256.93235471
186.71,256.981425481
186.712,256.988961699
186.727,257.045372069
186.742,257.101586798
186.757,257.157606863
186.772,257.213433236
186.787,257.269066886
186.802,257.324508775
186.817,257.379759864
186.832,257.434821109
186.847,257.489693462
186.862,257.54437787
186.877,257.598875275
186.892,257.653186618
186.907,257.707312832
186.922,257.761254848
186.937,257.815013592
186.952,257.868589985
186.967,257.921984945
186.982,257.975199381
186.997,258.028234203
187.012,258.081090314
187.027,258.133768611
187.042,258.186269988
187.057,258.238595332
187.072,258.29074553
187.087,258.342721457
187.102,258.394523988
187.117,258.446153992
187.132,258.497612332
187.147,258.548899869
187.162,258.600017452
187.177,258.650965931
187.192,258.701746151
187.207,258.752358947
187.222,258.80280515
187.237,258.85308559
187.252,258.903201088
187.267,258.953152458
187.282,259.002940511
187.297,259.052566054
187.312,259.102029883
187.327,259.151332794
187.342,259.200475573
187.357,259.249459005
187.372,259.298283863
187.387,259.346950921
187.402,259.395460941
187.417,259.443814686
187.432,259.492012904
187.447,259.540056347
187.46,259.581569373
187.462,259.587945755
187.477,259.635681862
187.492,259.683265399
187.507,259.73069709
187.522,259.77797765
187.537,259.825107791
187.552,259.872088221
187.567,259.918919636
187.582,259.965602729
187.597,260.012138187
187.612,260.058526692
187.627,260.104768918
187.642,260.150865532
187.657,260.196817197
187.672,260.242624568
187.687,260.288288295
187.702,260.33380902
187.717,260.37918738
187.732,260.424424007
187.747,260.469519523
187.762,260.514474548
187.777,260.559289693
187.792,260.603965561
187.807,260.648502753
187.822,260.692901861
187.837,260.73716347
187.852,260.781288161
187.867,260.825276507
187.882,260.869129073
187.897,260.912846424
187.912,260.95642911
187.927,260.999877681
187.942,261.043192677
187.957,261.086374633
187.972,261.12942408
187.987,261.172341538
188.002,261.215127523
188.017,261.257782546
188.032,261.300307111
188.047,261.342701712
188.062,261.384966843
188.077,261.427102985
188.092,261.46911062
188.107,261.510990218
188.122,261.552742242
188.137,261.594367155
188.152,261.635865409
188.167,261.677237451
188.182,261.718483721
188.197,261.759604654
188.21,261.795141743
188.212,261.800600678
188.227,261.841472216
188.242,261.882219683
188.257,261.922843492
188.272,261.963344043
188.287,262.003721736
188.302,262.043976963
188.317,262.08411011
188.332,262.124121557
188.347,262.164011678
188.362,262.203780842
188.377,262.243429409
188.392,262.282957739
188.407,262.32236618
188.422,262.361655078
188.437,262.400824774
188.452,262.439875598
188.467,262.47880788
188.482,262.517621941
188.497,262.556318101
188.512,262.594896669
188.527,262.63335795
188.542,262.671702244
188.557,262.709929847
188.572,262.748041049
188.587,262.786036132
188.602,262.823915376
188.617,262.861679054
188.632,262.899327435
188.647,262.936860781
188.66,262.96929683
188.662,262.974279352
188.677,263.011583398
188.692,263.048773167
188.707,263.085848906
188.722,263.122810848
188.737,263.159659228
188.752,263.196394274
