# 48698 WSSS Singapore Observations at 12Z 05 Apr 2019
Frequency [GHz],TB
175.31,275.871886315
175.322,275.851548233
175.337,275.826069187
175.352,275.800527219
175.367,275.774922134
175.382,275.749253718
175.397,275.72352178
175.412,275.6977261
175.427,275.671866476
175.442,275.645942696
175.457,275.619954559
175.472,275.593901842
175.487,275.567784355
175.502,275.541601861
175.517,275.515354159
175.532,275.489041028
175.547,275.462662264
175.562,275.436217637
175.577,275.409706945
175.592,275.383129943
175.607,275.356486444
175.622,275.329776201
175.637,275.302999005
175.652,275.276154628
175.667,275.249242841
175.682,275.222263436
175.697,275.195216157
175.712,275.168100805
175.727,275.140917147
175.742,275.11366494
175.757,275.086343958
175.772,275.05895397
175.787,275.03149474
175.802,275.003966047
175.817,274.976367642
175.832,274.94869929
175.847,274.920960754
175.862,274.893151799
175.877,274.86527218
175.892,274.837321661
175.907,274.809299991
175.922,274.781206936
175.937,274.753042246
175.952,274.724805677
175.967,274.696496973
175.982,274.668115898
175.997,274.6396622
176.012,274.611135619
176.027,274.582535913
176.042,274.553862831
176.057,274.525116105
176.072,274.496295494
176.087,274.467400733
176.102,274.438431565
176.117,274.40938772
176.132,274.380268961
176.147,274.35107501
176.162,274.321805604
176.177,274.292460489
176.192,274.263039374
176.207,274.233542018
176.222,274.20396815
176.237,274.174317487
176.252,274.144589769
176.267,274.114784716
176.282,274.084902067
176.297,274.054941526
176.31,274.02891252
176.312,274.024902839
176.327,273.994785711
176.342,273.964589876
176.357,273.934315049
176.372,273.903960944
176.387,273.873527283
176.402,273.843013774
176.417,273.812420146
176.432,273.781746101
176.447,273.750991353
176.46,273.724271733
176.462,273.720155608
176.477,273.689238581
176.492,273.658239984
176.507,273.62715951
176.522,273.595996864
176.537,273.564751755
176.552,273.533423886
176.567,273.502012957
176.582,273.47051866
176.597,273.438940699
176.612,273.407278763
176.627,273.375532558
176.642,273.343701762
176.657,273.311786073
176.672,273.279785183
176.687,273.247698779
176.702,273.215526548
176.717,273.18326817
176.732,273.150923332
176.747,273.118491714
176.762,273.085973007
176.777,273.053366881
176.792,273.020673013
176.807,272.987891075
176.822,272.955020752
176.837,272.922061701
176.852,272.889013614
176.867,272.855876143
176.882,272.822648963
176.897,272.789331738
176.912,272.755924132
176.927,272.722425807
176.942,272.688836433
176.957,272.655155653
176.972,272.621383134
176.987,272.587518537
177.002,272.553561514
177.017,272.519511704
177.032,272.485368778
177.047,272.451132364
177.062,272.416802124
177.077,272.382377705
177.092,272.347858738
177.107,272.313244872
177.122,272.278535755
177.137,272.243731009
177.152,272.208830284
177.167,272.173833205
177.182,272.138739411
177.197,272.103548527
177.21,272.072970941
177.212,272.068260183
177.227,272.032874011
177.242,271.997389633
177.257,271.961806682
177.272,271.926124756
177.287,271.890343489
177.302,271.854462499
177.31,271.835285059
177.317,271.818481399
177.332,271.7823998
177.347,271.746217316
177.362,271.709933556
177.377,271.673548123
177.392,271.637060626
177.407,271.600470668
177.422,271.563777845
177.437,271.526981759
177.452,271.490082007
177.467,271.453078188
177.482,271.415969883
177.497,271.378756686
177.512,271.341438188
177.527,271.304013968
177.542,271.266483627
177.557,271.228846725
177.572,271.191102843
177.587,271.153251566
177.602,271.115292462
177.617,271.077225104
177.632,271.039049065
177.647,271.000763911
177.66,270.96749484
177.662,270.962369204
177.677,270.923864498
177.692,270.885249365
177.707,270.846523358
177.722,270.807686031
177.737,270.768736933
177.752,270.72967562
177.767,270.690501636
177.782,270.651214514
177.797,270.611813815
177.812,270.572299055
177.827,270.532669799
177.842,270.492925556
177.857,270.453065863
177.872,270.41309026
177.887,270.372998247
177.902,270.332789378
177.917,270.29246315
177.932,270.252019082
177.947,270.211456694
177.96,270.176206536
177.962,270.170775492
177.977,270.129974992
177.992,270.089054687
178.007,270.048014082
178.022,270.006852686
178.037,269.965569979
178.052,269.924165469
178.067,269.882638631
178.082,269.840988957
178.097,269.799215938
178.112,269.757319046
178.127,269.715297751
178.142,269.673151536
178.157,269.630879865
178.172,269.588482214
178.187,269.545958038
178.202,269.50330679
178.217,269.460527941
178.232,269.417620934
178.247,269.374585223
178.262,269.331420248
178.277,269.288125455
178.292,269.244700278
178.307,269.201144146
178.322,269.157456505
178.337,269.113636775
178.352,269.069684368
178.367,269.025598715
178.382,268.98137923
178.397,268.937025322
178.41,268.898476076
178.412,268.89253639
178.427,268.84791185
178.442,268.803151098
178.457,268.758253523
178.472,268.713218512
178.487,268.66804547
178.502,268.622733756
178.517,268.577282758
178.532,268.531691853
178.547,268.485960402
178.562,268.440087771
178.577,268.394073323
178.592,268.347916409
178.607,268.301616379
178.622,268.255172585
178.637,268.208584361
178.652,268.161851047
178.667,268.114971972
178.682,268.067946461
178.697,268.020773837
178.712,267.973453414
178.727,267.925984508
178.742,267.878366425
178.757,267.830598461
178.772,267.782679909
178.787,267.734610068
178.802,267.686388219
178.817,267.638013635
178.832,267.589485604
178.847,267.540803376
178.862,267.491966227
178.877,267.442973411
178.892,267.393824169
178.907,267.344517763
178.922,267.295053422
178.937,267.245430383
178.952,267.195647861
178.967,267.145705095
178.982,267.095601292
178.997,267.045335656
179.012,266.994907394
179.027,266.944315695
179.042,266.893559762
179.057,266.842638767
179.072,266.79155189
179.087,266.740298289
179.102,266.688877138
179.117,266.637287588
179.132,266.585528791
179.147,266.533599884
179.16,266.488456564
179.162,266.481499997
179.177,266.429228268
179.192,266.376783807
179.207,266.324165726
179.222,266.271373133
179.237,266.218405126
179.252,266.16526078
179.267,266.111939193
179.282,266.058439426
179.297,266.004760548
179.312,265.950901615
179.327,265.896861676
179.342,265.84263977
179.357,265.788234926
179.372,265.733646165
179.387,265.678872504
179.402,265.623912941
179.417,265.568766492
179.432,265.51343212
179.447,265.45790881
179.462,265.402195527
179.477,265.346291237
179.492,265.290194882
179.507,265.233905394
179.522,265.177421717
179.537,265.120742758
179.552,265.06386742
179.567,265.006794617
179.582,264.949523228
179.597,264.892052119
179.612,264.834380165
179.627,264.776506219
179.642,264.718429123
179.657,264.6601477
179.672,264.601660768
179.687,264.542967147
179.702,264.484065615
179.717,264.424954978
179.732,264.365633977
179.747,264.306101388
179.762,264.246355932
179.777,264.186396366
179.792,264.126221391
179.807,264.065829717
179.822,264.005220017
179.837,263.944390982
179.852,263.883341259
179.867,263.822069502
179.882,263.760574335
179.897,263.698854367
179.91,263.645180812
179.912,263.636908199
179.927,263.574734416
179.942,263.512331582
179.957,263.449698227
179.972,263.386832908
179.987,263.323734121
180.002,263.26040036
180.017,263.196830105
180.032,263.133021814
180.047,263.068973919
180.062,263.004684837
180.077,262.940152974
180.092,262.875376693
180.107,262.810354357
180.122,262.745084307
180.137,262.679564845
180.152,262.61379426
180.167,262.547770807
180.182,262.481492749
180.197,262.414958289
180.212,262.348165619
180.227,262.281112909
180.242,262.213798294
180.257,262.146219878
180.272,262.07837576
180.287,262.010263987
180.302,261.941882593
180.317,261.873229564
180.332,261.804302865
180.347,261.735100439
180.362,261.66562018
180.377,261.595859955
180.392,261.5258176
180.407,261.455490903
180.422,261.38487765
180.437,261.313975536
180.452,261.242782265
180.467,261.171295479
180.482,261.099512781
180.497,261.027431744
180.512,260.955049886
180.527,260.882364684
180.542,260.809373569
180.557,260.736073942
180.56,260.721376756
180.572,260.662463124
180.587,260.588538422
180.602,260.514297066
180.617,260.43973625
180.632,260.364853113
180.647,260.28964473
180.66,260.22419875
180.662,260.214108135
180.677,260.138240284
180.692,260.062038103
180.707,259.985498421
180.722,259.90861805
180.737,259.831393685
180.752,259.753821996
180.767,259.675899572
180.782,259.597622929
180.797,259.518988518
180.812,259.439992707
180.827,259.360631811
180.842,259.280902033
180.857,259.200799521
180.872,259.120320349
180.887,259.039460484
180.902,258.958215818
180.917,258.876582164
180.932,258.794555234
180.947,258.712130647
180.962,258.629303934
180.977,258.546070533
180.992,258.462425759
181.007,258.378364852
181.022,258.293882943
181.037,258.208975042
181.052,258.123636059
181.067,258.037860794
181.082,257.95164392
181.097,257.864980015
181.112,257.777863524
181.127,257.690288753
181.142,257.602249913
181.157,257.513741072
181.172,257.424756165
181.187,257.33528899
181.202,257.245333227
181.217,257.154882386
181.232,257.063929869
181.247,256.97246891
181.262,256.880492597
181.277,256.787993879
181.292,256.694965538
181.307,256.601400208
181.31,256.582622042
181.322,256.507290364
181.337,256.412628301
181.352,256.317406192
181.367,256.221615989
181.382,256.12524951
181.397,256.028298393
181.412,255.930754092
181.427,255.832607893
181.442,255.733850895
181.457,255.634474011
181.472,255.534467989
181.487,255.433823364
181.502,255.332530506
181.517,255.230579565
181.532,255.127960534
181.547,255.024663182
181.562,254.920677105
181.577,254.815991685
181.592,254.710596108
181.607,254.604479375
181.622,254.49763028
181.637,254.390037419
181.652,254.281689186
181.667,254.172573767
181.682,254.062679179
181.697,253.951993222
181.712,253.840503509
181.727,253.728197433
181.742,253.615062236
181.757,253.501084958
181.772,253.386252439
181.787,253.270551359
181.802,253.153968211
181.817,253.03648932
181.832,252.918100864
181.847,252.798788832
181.862,252.678539093
181.877,252.557337363
181.892,252.435169226
181.907,252.312020151
181.922,252.187875497
181.937,252.062720519
181.952,251.936540415
181.967,251.809320289
181.982,251.681045208
181.997,251.55170022
182.012,251.42127034
182.027,251.289740613
182.042,251.157096101
182.057,251.023321949
182.06,250.996430258
182.072,250.888403363
182.087,250.752325684
182.102,250.615074398
182.117,250.47663516
182.132,250.336993867
182.147,250.196136658
182.162,250.054049967
182.177,249.910720583
182.192,249.766135702
182.207,249.620282923
182.222,249.473150378
182.237,249.32472675
182.252,249.175001326
182.267,249.023964087
182.282,248.871605773
182.297,248.717917936
182.312,248.562893049
182.327,248.406524567
182.342,248.248807014
182.357,248.089736096
182.372,247.929308781
182.387,247.76752341
182.402,247.604379779
182.417,247.439879309
182.432,247.274025111
182.447,247.106822141
182.462,246.938277309
182.477,246.768399655
182.492,246.597200429
182.507,246.424693315
182.522,246.250894526
182.537,246.07582299
182.552,245.899500526
182.567,245.721951964
182.582,245.543205409
182.597,245.363292336
182.612,245.182247824
182.627,245.00011072
182.642,244.816923836
182.657,244.632734144
182.672,244.447592922
182.687,244.261555991
182.702,244.074683856
182.717,243.887041858
182.732,243.698700348
182.747,243.509734798
182.762,243.320225876
182.777,243.130259561
182.792,242.939927096
182.807,242.74932497
182.822,242.55855479
182.837,242.367723078
182.852,242.176940872
182.867,241.98632331
182.882,241.795988853
182.897,241.606058457
182.912,241.416654246
182.927,241.227897939
182.942,241.039908725
182.957,240.852800535
182.972,240.666678464
182.987,240.481634212
183.002,240.297740131
183.017,240.115041562
183.032,239.933546717
183.047,239.753213663
183.062,239.57393304
183.077,239.395505308
183.092,239.217610608
183.107,239.039768615
183.122,238.861285046
183.137,238.681180565
183.152,238.498097279
183.167,238.310178824
183.182,238.11492524
183.197,237.909041239
183.212,237.688346492
183.227,237.447950461
183.242,237.18323616
183.257,236.892989995
183.367,236.952958393
183.382,237.233043775
183.397,237.48730628
183.412,237.718319836
183.427,237.930944913
183.442,238.129937065
183.457,238.319252019
183.472,238.501970157
183.487,238.680413439
183.502,238.85629898
183.517,239.030878437
183.532,239.205051019
183.547,239.379450795
183.562,239.554512911
183.577,239.730523302
183.592,239.907656028
183.607,240.086001321
183.622,240.265586809
183.637,240.446393575
183.652,240.628368379
183.667,240.811433095
183.682,240.995491874
183.697,241.180436717
183.712,241.366151796
183.727,241.552516732
183.742,241.739409222
183.757,241.926706945
183.772,242.114289148
183.787,242.302037751
183.802,242.489838215
183.817,242.677580211
183.832,242.865158022
183.847,243.052470896
183.862,243.239423189
183.877,243.425924544
183.892,243.611889847
183.907,243.797239245
183.922,243.981898057
183.937,244.165796696
183.952,244.348870488
183.967,244.531059582
183.982,244.712308747
183.997,244.892567208
184.012,245.071788457
184.027,245.249930094
184.042,245.426953602
184.057,245.602824198
184.072,245.777510613
184.087,245.950984946
184.102,246.123222456
184.117,246.294201397
184.132,246.463902864
184.147,246.632310617
184.162,246.799410921
184.177,246.965192384
184.192,247.129645835
184.207,247.292764173
184.222,247.454542228
184.237,247.614976648
184.252,247.774065733
184.267,247.931809385
184.282,248.088208924
184.297,248.24326706
184.312,248.396987713
184.327,248.549375977
184.342,248.700437996
184.357,248.8501809
184.372,248.9986127
184.387,249.145742255
184.402,249.291579117
184.417,249.436133574
184.432,249.579416479
184.447,249.721439274
184.462,249.862213863
184.477,250.001752632
184.492,250.14006833
184.507,250.277174066
184.522,250.413083232
184.537,250.547809515
184.552,250.681366788
184.56,250.752124194
184.567,250.813769132
184.582,250.945030772
184.597,251.075166078
184.612,251.204189476
184.627,251.332115473
184.642,251.458958642
184.657,251.584733549
184.672,251.709454755
184.687,251.833136822
184.702,251.955794251
184.717,252.077441491
184.732,252.198092933
184.747,252.317762855
184.762,252.436465467
184.777,252.55421485
184.792,252.671024965
184.807,252.786909652
184.822,252.901882602
184.837,253.015957373
184.852,253.129147348
184.867,253.241465775
184.882,253.352925716
184.897,253.463540092
184.912,253.573321601
184.927,253.682282808
184.942,253.790436089
184.957,253.897793615
184.972,254.004367397
184.987,254.110169247
185.002,254.215210792
185.017,254.319503458
185.032,254.42305851
185.047,254.52588699
185.062,254.627999775
185.077,254.729407539
185.092,254.830120768
185.107,254.930149766
185.122,255.029504651
185.137,255.128195344
185.152,255.226231589
185.167,255.323622959
185.182,255.420378819
185.197,255.516508368
185.212,255.612020646
185.227,255.706924479
185.242,255.801228548
185.257,255.894941373
185.272,255.988071262
185.287,256.080626393
185.302,256.172614765
185.31,256.221446201
185.317,256.264044227
185.332,256.354922457
185.347,256.445256965
185.362,256.535055155
185.377,256.624324223
185.392,256.713071248
185.407,256.80130315
185.422,256.889026715
185.437,256.976248585
185.452,257.062975263
185.467,257.149213105
185.482,257.234968361
185.497,257.32024712
185.512,257.405055361
185.527,257.489398941
185.542,257.573283582
185.557,257.656714901
185.572,257.739698372
185.587,257.822239386
185.602,257.904343185
185.617,257.986014953
185.632,258.067259721
185.647,258.148082415
185.662,258.228487891
185.677,258.30848088
185.692,258.388066025
185.707,258.467247858
185.722,258.546030841
185.737,258.624419327
185.752,258.702417579
185.767,258.780029787
185.782,258.857260051
185.797,258.934112372
185.812,259.010590691
185.827,259.086698861
185.842,259.162440658
185.857,259.23781978
185.872,259.312839862
185.887,259.387504458
185.902,259.461817053
185.917,259.535781063
185.932,259.609399854
185.947,259.682676699
185.96,259.745909211
185.962,259.755614839
185.977,259.828217416
185.992,259.900487558
186.007,259.972428303
186.022,260.044042635
186.037,260.115333492
186.052,260.186303767
186.06,260.224024462
186.067,260.256956262
186.082,260.327293775
186.097,260.397319025
186.112,260.4670347
186.127,260.536443421
186.142,260.605547779
186.157,260.674350307
186.172,260.74285351
186.187,260.811059844
186.202,260.878971719
186.217,260.946591512
186.232,261.013921548
186.247,261.080964131
186.262,261.14772151
186.277,261.214195911
186.292,261.280389524
186.307,261.346304497
186.322,261.411942943
186.337,261.477306955
186.352,261.542398583
186.367,261.607219853
186.382,261.671772745
186.397,261.736059235
186.412,261.800081244
186.427,261.863840687
186.442,261.927339425
186.457,261.990579328
186.472,262.053562211
186.487,262.11628987
186.502,262.178764088
186.517,262.240986598
186.532,262.302959142
186.547,262.364683416
186.562,262.426161098
186.577,262.487393848
186.592,262.548383306
186.607,262.609131077
186.622,262.669638765
186.637,262.729907939
186.652,262.789940154
186.667,262.849736941
186.682,262.90929982
186.697,262.968630297
186.71,263.019863192
186.712,263.027729836
186.727,263.086599911
186.742,263.145241963
186.757,263.203657415
186.772,263.261847692
186.787,263.31981417
186.802,263.377558243
186.817,263.435081266
186.832,263.492384597
186.847,263.54946956
186.862,263.606337476
186.877,263.662989651
186.892,263.719427378
186.907,263.77565193
186.922,263.831664565
186.937,263.887466536
186.952,263.943059082
186.967,263.998443433
186.982,264.053620785
186.997,264.108592342
187.012,264.163359304
187.027,264.217922819
187.042,264.272284079
187.057,264.326444212
187.072,264.380404366
187.087,264.434165679
187.102,264.487729257
187.117,264.541096207
187.132,264.594267634
187.147,264.647244621
187.162,264.700028236
187.177,264.752619547
187.192,264.805019619
187.207,264.857229497
187.222,264.909250209
187.237,264.961082777
187.252,265.012728236
187.267,265.064187576
187.282,265.115461811
187.297,265.166551919
187.312,265.21745889
187.327,265.268183697
187.342,265.318727292
187.357,265.369090641
187.372,265.419274691
187.387,265.469280386
187.402,265.519108637
187.417,265.56876038
187.432,265.618236537
187.447,265.667538003
187.46,265.710125334
187.462,265.716665685
187.477,265.765620473
187.492,265.814403246
187.507,265.863014887
187.522,265.911456261
187.537,265.959728237
187.552,266.007831664
187.567,266.0557674
187.582,266.103536279
187.597,266.151139131
187.612,266.198576788
187.627,266.245850076
187.642,266.292959804
187.657,266.339906783
187.672,266.386691812
187.687,266.433315687
187.702,266.479779193
187.717,266.526083126
187.732,266.572228255
187.747,266.618215342
187.762,266.664045166
187.777,266.709718467
187.792,266.755236025
187.807,266.800598556
187.822,266.845806823
187.837,266.890861554
187.852,266.935763484
187.867,266.980513329
187.882,267.025111809
187.897,267.069559644
187.912,267.113857538
187.927,267.158006193
187.942,267.202006313
187.957,267.245858587
187.972,267.289563695
187.987,267.33312233
188.002,267.376535163
188.017,267.419802873
188.032,267.46292612
188.047,267.505905569
188.062,267.548741878
188.077,267.5914357
188.092,267.633987682
188.107,267.676398472
188.122,267.718668708
188.137,267.760799018
188.152,267.802790046
188.167,267.844642406
188.182,267.886356725
188.197,267.927933614
188.21,267.963856232
188.212,267.969373692
188.227,268.010677567
188.242,268.051845839
188.257,268.092879112
188.272,268.133777975
188.287,268.174543034
188.302,268.215174861
188.317,268.255674049
188.332,268.296041174
188.347,268.336276821
188.362,268.376381554
188.377,268.416355939
188.392,268.456200544
188.407,268.495915931
188.422,268.535502656
188.437,268.574961272
188.452,268.614292332
188.467,268.65349637
188.482,268.692573946
188.497,268.731525585
188.512,268.770351832
188.527,268.809053216
188.542,268.847630257
188.557,268.88608349
188.572,268.924413441
188.587,268.96262062
188.602,269.000705543
188.617,269.038668725
188.632,269.07651068
188.647,269.114231895
188.66,269.146826352
188.662,269.151832888
188.677,269.18931416
188.692,269.226676198
188.707,269.263919501
188.722,269.301044556
188.737,269.338051845
