# 48698 WSSS Singapore Observations at 12Z 15 Dec 2019
Frequency [GHz],TB
175.31,271.026462809
175.322,271.004376911
175.337,270.976710835
175.352,270.94897937
175.367,270.92118234
175.382,270.893319566
175.397,270.865390871
175.412,270.837396075
175.427,270.809334998
175.442,270.781207459
175.457,270.753013277
175.472,270.724752268
175.487,270.69642425
175.502,270.668029038
175.517,270.639566447
175.532,270.61103629
175.547,270.582438381
175.562,270.553772531
175.577,270.525038552
175.592,270.496236253
175.607,270.467365445
175.622,270.438425934
175.637,270.40941753
175.652,270.380340037
175.667,270.351193261
175.682,270.321977007
175.697,270.292691078
175.712,270.263335276
175.727,270.233909402
175.742,270.204413258
175.757,270.174846642
175.772,270.145209353
175.787,270.115501187
175.802,270.085721942
175.817,270.055871411
175.832,270.025949388
175.847,269.995955668
175.862,269.965890041
175.877,269.935752298
175.892,269.905542228
175.907,269.87525962
175.922,269.844904261
175.937,269.814475938
175.952,269.783974434
175.967,269.753399533
175.982,269.722751018
175.997,269.692028671
176.012,269.66123227
176.027,269.630361595
176.042,269.599416423
176.057,269.568396531
176.072,269.537301692
176.087,269.506131682
176.102,269.474886272
176.117,269.443565232
176.132,269.412168334
176.147,269.380695344
176.162,269.34914603
176.177,269.317520157
176.192,269.28581749
176.207,269.25403779
176.222,269.222180819
176.237,269.190246338
176.252,269.158234103
176.267,269.126143872
176.282,269.093975401
176.297,269.061728443
176.31,269.0337174
176.312,269.02940275
176.327,268.996998072
176.342,268.96451416
176.357,268.93195076
176.372,268.899307619
176.387,268.86658448
176.402,268.833781087
176.417,268.80089718
176.432,268.767932499
176.447,268.734886781
176.46,268.706181404
176.462,268.701759761
176.477,268.668551175
176.492,268.635260755
176.507,268.60188823
176.522,268.56843333
176.537,268.534895782
176.552,268.50127531
176.567,268.467571639
176.582,268.433784488
176.597,268.399913578
176.612,268.365958626
176.627,268.331919348
176.642,268.297795457
176.657,268.263586664
176.672,268.229292679
176.687,268.19491321
176.702,268.160447961
176.717,268.125896636
176.732,268.091258936
176.747,268.05653456
176.762,268.021723205
176.777,267.986824565
176.792,267.951838333
176.807,267.916764198
176.822,267.881601848
176.837,267.846350969
176.852,267.811011244
176.867,267.775582353
176.882,267.740063976
176.897,267.704455787
176.912,267.66875746
176.927,267.632968666
176.942,267.597089074
176.957,267.561118349
176.972,267.525056155
176.987,267.488902153
177.002,267.452656
177.017,267.416317351
177.032,267.379885861
177.047,267.343361177
177.062,267.306742949
177.077,267.270030819
177.092,267.23322443
177.107,267.19632342
177.122,267.159327425
177.137,267.122236077
177.152,267.085049008
177.167,267.047765842
177.182,267.010386205
177.197,266.972909717
177.21,266.940351456
177.212,266.935335995
177.227,266.897664654
177.242,266.859895306
177.257,266.822027557
177.272,266.784061014
177.287,266.745995277
177.302,266.707829944
177.31,266.687434237
177.317,266.669564611
177.332,266.631198868
177.347,266.592732304
177.362,266.554164502
177.377,266.515495044
177.392,266.476723506
177.407,266.437849462
177.422,266.398872483
177.437,266.359792134
177.452,266.320607977
177.467,266.281319572
177.482,266.241926473
177.497,266.202428231
177.512,266.162824393
177.527,266.123114501
177.542,266.083298096
177.557,266.043374712
177.572,266.003343879
177.587,265.963205125
177.602,265.922957971
177.617,265.882601936
177.632,265.842136534
177.647,265.801561274
177.66,265.766306803
177.662,265.760875661
177.677,265.720079196
177.692,265.679171376
177.707,265.638151692
177.722,265.59701963
177.737,265.555774674
177.752,265.514416301
177.767,265.472943983
177.782,265.43135719
177.797,265.389655384
177.812,265.347838024
177.827,265.305904564
177.842,265.263854451
177.857,265.221687129
177.872,265.179402036
177.887,265.136998606
177.902,265.094476266
177.917,265.051834439
177.932,265.009072541
177.947,264.966189986
177.96,264.928927047
177.962,264.923186179
177.977,264.880060521
177.992,264.836812408
178.007,264.793441229
178.022,264.749946368
178.037,264.706327204
178.052,264.66258311
178.067,264.618713451
178.082,264.574717588
178.097,264.530594877
178.112,264.486344667
178.127,264.441966299
178.142,264.397459111
178.157,264.352822433
178.172,264.308055589
178.187,264.263157897
178.202,264.218128668
178.217,264.172967207
178.232,264.127672813
178.247,264.082244777
178.262,264.036682385
178.277,263.990984915
178.292,263.94515164
178.307,263.899181824
178.322,263.853074725
178.337,263.806829595
178.352,263.760445677
178.367,263.713922209
178.382,263.667258421
178.397,263.620453536
178.41,263.579774563
178.412,263.573506768
178.427,263.526417328
178.442,263.479184414
178.457,263.431807221
178.472,263.384284935
178.487,263.336616734
178.502,263.288801788
178.517,263.240839261
178.532,263.192728307
178.547,263.144468075
178.562,263.096057703
178.577,263.047496324
178.592,262.99878306
178.607,262.949917026
178.622,262.900897332
178.637,262.851723074
178.652,262.802393344
178.667,262.752907224
178.682,262.703263789
178.697,262.653462103
178.712,262.603501224
178.727,262.5533802
178.742,262.50309807
178.757,262.452653865
178.772,262.402046608
178.787,262.35127531
178.802,262.300338978
178.817,262.249236605
178.832,262.197967178
178.847,262.146529673
178.862,262.09492306
178.877,262.043146295
178.892,261.991198328
178.907,261.939078098
178.922,261.886784536
178.937,261.834316563
178.952,261.781673089
178.967,261.728853016
178.982,261.675855236
178.997,261.622678629
179.012,261.569322068
179.027,261.515784415
179.042,261.462064522
179.057,261.40816123
179.072,261.354073371
179.087,261.299799767
179.102,261.245339227
179.117,261.190690554
179.132,261.135852537
179.147,261.080823957
179.16,261.032977424
179.162,261.025603581
179.177,260.970190168
179.192,260.914582467
179.207,260.858779215
179.222,260.802779136
179.237,260.746580946
179.252,260.69018335
179.267,260.63358504
179.282,260.576784697
179.297,260.519780993
179.312,260.462572587
179.327,260.405158125
179.342,260.347536245
179.357,260.289705571
179.372,260.231664715
179.387,260.17341228
179.402,260.114946853
179.417,260.056267014
179.432,259.997371326
179.447,259.938258344
179.462,259.878926609
179.477,259.819374648
179.492,259.75960098
179.507,259.699604107
179.522,259.639382521
179.537,259.5789347
179.552,259.518259111
179.567,259.457354206
179.582,259.396218426
179.597,259.334850197
179.612,259.273247932
179.627,259.211410033
179.642,259.149334886
179.657,259.087020863
179.672,259.024466326
179.687,258.961669618
179.702,258.898629072
179.717,258.835343006
179.732,258.771809723
179.747,258.708027511
179.762,258.643994646
179.777,258.579709386
179.792,258.515169976
179.807,258.450374647
179.822,258.385321613
179.837,258.320009072
179.852,258.25443521
179.867,258.188598193
179.882,258.122496174
179.897,258.056127289
179.91,257.99839027
179.912,257.989489657
179.927,257.922581382
179.942,257.855400549
179.957,257.78794523
179.972,257.720213475
179.987,257.652203321
180.002,257.583912783
180.017,257.515339863
180.032,257.44648254
180.047,257.377338778
180.062,257.307906522
180.077,257.238183697
180.092,257.168168209
180.107,257.097857944
180.122,257.027250769
180.137,256.956344532
180.152,256.885137059
180.167,256.813626154
180.182,256.741809603
180.197,256.669685168
180.212,256.59725059
180.227,256.52450359
180.242,256.451441862
180.257,256.378063081
180.272,256.304364896
180.287,256.230344935
180.302,256.156000799
180.317,256.081330067
180.332,256.00633029
180.347,255.930998997
180.362,255.855333688
180.377,255.779331838
180.392,255.702990896
180.407,255.626308281
180.422,255.549281388
180.437,255.47190758
180.452,255.394184193
180.467,255.316108532
180.482,255.237677875
180.497,255.158889466
180.512,255.079740519
180.527,255.000228219
180.542,254.920349715
180.557,254.840102124
180.56,254.82400806
180.572,254.759482531
180.587,254.678487987
180.602,254.597115506
180.617,254.515362068
180.632,254.433224617
180.647,254.350700062
180.66,254.278863237
180.662,254.267785271
180.677,254.184477078
180.692,254.100772275
180.707,254.016667618
180.722,253.93215982
180.737,253.847245555
180.752,253.761921456
180.767,253.676184112
180.782,253.590030073
180.797,253.503455842
180.812,253.416457878
180.827,253.329032599
180.842,253.241176373
180.857,253.152885524
180.872,253.06415633
180.887,252.974985021
180.902,252.885367777
180.917,252.79530073
180.932,252.704779966
180.947,252.613801515
180.962,252.522361361
180.977,252.430455435
180.992,252.338079615
181.007,252.245229729
181.022,252.15190155
181.037,252.058090798
181.052,251.963793139
181.067,251.869004184
181.082,251.773719491
181.097,251.67793456
181.112,251.581644836
181.127,251.48484571
181.142,251.387532513
181.157,251.289700522
181.172,251.191344957
181.187,251.09246098
181.202,250.993043696
181.217,250.893088154
181.232,250.792589343
181.247,250.691542199
181.262,250.589941597
181.277,250.487782358
181.292,250.385059245
181.307,250.281766965
181.31,250.26103974
181.322,250.177900171
181.337,250.073453458
181.352,249.968421369
181.367,249.862798391
181.382,249.75657896
181.397,249.649757457
181.412,249.542328215
181.427,249.434285516
181.442,249.325623591
181.457,249.216336627
181.472,249.106418764
181.487,248.995864097
181.502,248.884666679
181.517,248.772820523
181.532,248.660319604
181.547,248.54715786
181.562,248.433329198
181.577,248.318827491
181.592,248.203646586
181.607,248.087780304
181.622,247.971222447
181.637,247.853966796
181.652,247.736007118
181.667,247.617337173
181.682,247.49795071
181.697,247.377841481
181.712,247.257003238
181.727,247.135429744
181.742,247.013114775
181.757,246.890052127
181.772,246.766235621
181.787,246.641659111
181.802,246.516316493
181.817,246.390201706
181.832,246.263308746
181.847,246.135631672
181.862,246.007164615
181.877,245.877901786
181.892,245.747837489
181.907,245.616966129
181.922,245.485282224
181.937,245.352780417
181.952,245.219455489
181.967,245.085302372
181.982,244.950316162
181.997,244.814492139
182.012,244.677825775
182.027,244.540312759
182.042,244.40194901
182.057,244.2627307
182.06,244.234784173
182.072,244.122654272
182.087,243.981716463
182.102,243.839914326
182.117,243.697245259
182.132,243.553707025
182.147,243.409297788
182.162,243.264016135
182.177,243.117861114
182.192,242.970832266
182.207,242.822929662
182.222,242.674153941
182.237,242.524506353
182.252,242.373988801
182.267,242.222603892
182.282,242.070354985
182.297,241.917246242
182.312,241.763282694
182.327,241.608470292
182.342,241.452815982
182.357,241.296327767
182.372,241.139014789
182.387,240.980887403
182.402,240.821957265
182.417,240.662237421
182.432,240.501742407
182.447,240.340488348
182.462,240.178493073
182.477,240.015776228
182.492,239.852359403
182.507,239.688266266
182.522,239.523522705
182.537,239.358156975
182.552,239.192199865
182.567,239.025684862
182.582,238.858648338
182.597,238.691129737
182.612,238.523171784
182.627,238.354820697
182.642,238.186126417
182.657,238.01714285
182.672,237.847928124
182.687,237.678544856
182.702,237.509060439
182.717,237.339547339
182.732,237.170083412
182.747,237.000752236
182.762,236.831643455
182.777,236.662853148
182.792,236.494484206
182.807,236.326646738
182.822,236.159458484
182.837,235.993045256
182.852,235.827541396
182.867,235.663090258
182.882,235.499844709
182.897,235.337967661
182.912,235.177632627
182.927,235.019024315
182.942,234.86233925
182.957,234.70778644
182.972,234.555588091
182.987,234.405980364
183.002,234.259214192
183.017,234.11555615
183.032,233.975289376
183.047,233.838714536
183.062,233.706150794
183.077,233.577936771
183.092,233.454431393
183.107,233.336014543
183.122,233.22308735
183.137,233.116071907
183.152,233.015410147
183.167,232.921561536
183.182,232.834999199
183.197,232.756204107
183.212,232.685656982
183.227,232.623827767
183.242,232.57116272
183.257,232.528069602
183.367,232.525830933
183.382,232.568179242
183.397,232.620012755
183.412,232.680914221
183.427,232.750431442
183.442,232.828091679
183.457,232.913413996
183.472,233.005919207
183.487,233.105137397
183.502,233.21061325
183.517,233.321909522
183.532,233.438609045
183.547,233.56031564
183.562,233.686654258
183.577,233.817270599
183.592,233.951830418
183.607,234.090018659
183.622,234.231538498
183.637,234.376110379
183.652,234.523471072
183.667,234.673372766
183.682,234.825582223
183.697,234.979879977
183.712,235.136059594
183.727,235.293926969
183.742,235.45329968
183.757,235.614006366
183.772,235.775886151
183.787,235.938788095
183.802,236.102570665
183.817,236.267101246
183.832,236.432255658
183.847,236.597917708
183.862,236.763978752
183.877,236.930337286
183.892,237.096898544
183.907,237.263574123
183.922,237.430281622
183.937,237.596944298
183.952,237.763490735
183.967,237.929854536
183.982,238.095974023
183.997,238.261791958
184.012,238.427255274
184.027,238.592314822
184.042,238.756925135
184.057,238.921044195
184.072,239.084633226
184.087,239.247656488
184.102,239.410081087
184.117,239.571876798
184.132,239.733015894
184.147,239.893472988
184.162,240.053224884
184.177,240.212250435
184.192,240.370530415
184.207,240.528047388
184.222,240.684785601
184.237,240.840730868
184.252,240.995870469
184.267,241.150193057
184.282,241.303688566
184.297,241.456348128
184.312,241.60816399
184.327,241.759129447
184.342,241.909238766
184.357,242.058487127
184.372,242.206870558
184.387,242.354385878
184.402,242.501030647
184.417,242.646803115
184.432,242.791702172
184.447,242.935727309
184.462,243.078878572
184.477,243.221156529
184.492,243.362562229
184.507,243.503097171
184.522,243.642763272
184.537,243.781562837
184.552,243.91949853
184.56,243.992712028
184.567,244.05657335
184.582,244.192790605
184.597,244.328153891
184.612,244.462667066
184.627,244.596334235
184.642,244.729159728
184.657,244.861148082
184.672,244.992304026
184.687,245.122632463
184.702,245.252138458
184.717,245.38082722
184.732,245.508704094
184.747,245.635774543
184.762,245.762044142
184.777,245.887518562
184.792,246.012203563
184.807,246.136104984
184.822,246.259228732
184.837,246.381580776
184.852,246.503167137
184.867,246.623993881
184.882,246.744067111
184.897,246.863392963
184.912,246.981977597
184.927,247.09982719
184.942,247.216947936
184.957,247.333346033
184.972,247.449027684
184.987,247.563999091
185.002,247.678266448
185.017,247.791835941
185.032,247.904713741
185.047,248.016906001
185.062,248.128418853
185.077,248.239258406
185.092,248.349430742
185.107,248.458941911
185.122,248.567797933
185.137,248.676004792
185.152,248.783568436
185.167,248.890494773
185.182,248.996789672
185.197,249.102458956
185.212,249.207508406
185.227,249.311943758
185.242,249.415770699
185.257,249.518994869
185.272,249.621621858
185.287,249.723657205
185.302,249.8251064
185.31,249.878974844
185.317,249.925974877
185.332,250.026268021
185.347,250.125991161
185.362,250.225149573
185.377,250.323748479
185.392,250.421793045
185.407,250.519288383
185.422,250.616239549
185.437,250.712651544
185.452,250.808529312
185.467,250.903877743
185.482,250.99870167
185.497,251.093005872
185.512,251.186795071
185.527,251.280073934
185.542,251.372847073
185.557,251.465119046
185.572,251.556894354
185.587,251.648177446
185.602,251.738972716
185.617,251.829284505
185.632,251.9191171
185.647,252.008474735
185.662,252.097361593
185.677,252.185781805
185.692,252.273739449
185.707,252.361238554
185.722,252.448283099
185.737,252.53487701
185.752,252.621024168
185.767,252.706728403
185.782,252.791993499
185.797,252.876823189
185.812,252.961221163
185.827,253.045191064
185.842,253.128736487
185.857,253.211860985
185.872,253.294568066
185.887,253.376861193
185.902,253.458743788
185.917,253.54021923
185.932,253.621290854
185.947,253.701961958
185.96,253.771555455
185.962,253.782235796
185.977,253.862115584
185.992,253.941604498
186.007,254.020705676
186.022,254.099422218
186.037,254.177757186
186.052,254.255713607
186.06,254.297136614
186.067,254.333294469
186.082,254.410502727
186.097,254.4873413
186.112,254.563813073
186.127,254.639920897
186.142,254.715667591
186.157,254.791055938
186.172,254.866088694
186.187,254.940768579
186.202,255.015098284
186.217,255.08908047
186.232,255.162717768
186.247,255.236012778
186.262,255.308968073
186.277,255.381586196
186.292,255.453869665
186.307,255.525820966
186.322,255.597442562
186.337,255.668736888
186.352,255.739706354
186.367,255.810353342
186.382,255.880680212
186.397,255.950689296
186.412,256.020382905
186.427,256.089763323
186.442,256.158832813
186.457,256.227593614
186.472,256.296047942
186.487,256.36419799
186.502,256.432045931
186.517,256.499593914
186.532,256.566844069
186.547,256.633798504
186.562,256.700459305
186.577,256.76682854
186.592,256.832908256
186.607,256.89870048
186.622,256.964207221
186.637,257.029430466
186.652,257.094372187
186.667,257.159034334
186.682,257.223418842
186.697,257.287527625
186.71,257.342867007
186.712,257.351362581
186.727,257.41492559
186.742,257.478218516
186.757,257.541243204
186.772,257.604001483
186.787,257.666495165
186.802,257.728726048
186.817,257.790695912
186.832,257.852406519
186.847,257.913859621
186.862,257.975056948
186.877,258.03600022
186.892,258.096691139
186.907,258.157131393
186.922,258.217322655
186.937,258.277266583
186.952,258.336964821
186.967,258.396419
186.982,258.455630735
186.997,258.514601629
187.012,258.573333268
187.027,258.631827228
187.042,258.69008507
187.057,258.748108342
187.072,258.805898578
187.087,258.8634573
187.102,258.920786016
187.117,258.977886223
187.132,259.034759404
187.147,259.091407028
187.162,259.147830556
187.177,259.204031433
187.192,259.260011092
187.207,259.315770956
187.222,259.371312435
187.237,259.426636927
187.252,259.481745818
187.267,259.536640483
187.282,259.591322285
187.297,259.645792577
187.312,259.7000527
187.327,259.754103981
187.342,259.807947741
187.357,259.861585286
187.372,259.915017913
187.387,259.968246908
187.402,260.021273545
187.417,260.074099088
187.432,260.126724792
187.447,260.1791519
187.46,260.224429038
187.462,260.231381645
187.477,260.283415249
187.492,260.335253924
187.507,260.386898874
187.522,260.43835129
187.537,260.489612355
187.552,260.540683241
187.567,260.591565111
187.582,260.642259117
187.597,260.692766403
187.612,260.743088103
187.627,260.793225341
187.642,260.843179231
187.657,260.892950879
187.672,260.942541381
187.687,260.991951824
187.702,261.041183287
187.717,261.090236836
187.732,261.139113534
187.747,261.187814429
187.762,261.236340565
187.777,261.284692974
187.792,261.332872682
187.807,261.380880703
187.822,261.428718045
187.837,261.476385708
187.852,261.523884681
187.867,261.571215946
187.882,261.618380477
187.897,261.665379239
187.912,261.71221319
187.927,261.758883279
187.942,261.805390447
187.957,261.851735626
187.972,261.897919743
187.987,261.943943714
188.002,261.989808449
188.017,262.03551485
188.032,262.081063811
188.047,262.126456219
188.062,262.171692952
188.077,262.216774881
188.092,262.261702872
188.107,262.306477781
188.122,262.351100456
188.137,262.395571741
188.152,262.43989247
188.167,262.484063471
188.182,262.528085565
188.197,262.571959566
188.21,262.609864533
188.212,262.615686281
188.227,262.659266509
188.242,262.702701044
188.257,262.745990672
188.272,262.789136173
188.287,262.83213832
188.302,262.874997879
188.317,262.91771561
188.332,262.960292267
188.347,263.002728597
188.362,263.045025339
188.377,263.08718323
188.392,263.129202995
188.407,263.171085359
188.422,263.212831035
188.437,263.254440734
188.452,263.29591516
188.467,263.33725501
188.482,263.378460975
188.497,263.419533742
188.512,263.46047399
188.527,263.501282393
188.542,263.541959621
188.557,263.582506336
188.572,263.622923195
188.587,263.66321085
188.602,263.703369947
188.617,263.743401127
188.632,263.783305024
188.647,263.82308227
188.66,263.857453918
188.662,263.862733488
188.677,263.902259298
188.692,263.941660315
188.707,263.980937147
188.722,264.020090398
188.737,264.059120666
188.752,264.098028547
