# 10410 EDZE Essen Observations at 12Z 17 Mar 2019
Frequency [GHz],TB
175.31,261.792915422
175.322,261.811731338
175.337,261.8350778
175.352,261.858230435
175.367,261.881188041
175.382,261.903949416
175.397,261.92651336
175.412,261.94887867
175.427,261.971044151
175.442,261.993008602
175.457,262.014770827
175.472,262.036329631
175.487,262.057683819
175.502,262.078832199
175.517,262.09977358
175.532,262.120506773
175.547,262.14103059
175.562,262.161343848
175.577,262.181445361
175.592,262.201333951
175.607,262.221008437
175.622,262.240467644
175.637,262.2597104
175.652,262.278735532
175.667,262.297541873
175.682,262.316128259
175.697,262.334493528
175.712,262.352636521
175.727,262.370556083
175.742,262.388251063
175.757,262.405720313
175.772,262.422962689
175.787,262.43997705
175.802,262.456762261
175.817,262.473317189
175.832,262.489640706
175.847,262.505731691
175.862,262.521589023
175.877,262.53721159
175.892,262.552598282
175.907,262.567747995
175.922,262.582659631
175.937,262.597332096
175.952,262.611764302
175.967,262.625955167
175.982,262.639903615
175.997,262.653608573
176.012,262.667068979
176.027,262.680283774
176.042,262.693251905
176.057,262.705972327
176.072,262.718444002
176.087,262.730665897
176.102,262.742636986
176.117,262.754356253
176.132,262.765822685
176.147,262.777035282
176.162,262.787993046
176.177,262.79869499
176.192,262.809140133
176.207,262.819327505
176.222,262.829256141
176.237,262.838925086
176.252,262.848333392
176.267,262.857480124
176.282,262.86636435
176.297,262.874985152
176.31,262.882242726
176.312,262.883341617
176.327,262.891432845
176.342,262.899257943
176.357,262.906816028
176.372,262.914106229
176.387,262.921127684
176.402,262.927879538
176.417,262.934360951
176.432,262.94057109
176.447,262.946509135
176.46,262.95143472
176.462,262.952174275
176.477,262.957565711
176.492,262.962682655
176.507,262.967524331
176.522,262.972089972
176.537,262.976378825
176.552,262.980390148
176.567,262.984123211
176.582,262.987577295
176.597,262.990751696
176.612,262.993645719
176.627,262.996258684
176.642,262.998589922
176.657,263.000638778
176.672,263.002404611
176.687,263.00388679
176.702,263.0050847
176.717,263.005997738
176.732,263.006625316
176.747,263.006966859
176.762,263.007021805
176.777,263.006789608
176.792,263.006269734
176.807,263.005461666
176.822,263.004364898
176.837,263.002978943
176.852,263.001303324
176.867,262.999337583
176.882,262.997081274
176.897,262.994533968
176.912,262.99169525
176.927,262.988564722
176.942,262.985142
176.957,262.981426716
176.972,262.97741852
176.987,262.973117073
177.002,262.968522058
177.017,262.96363317
177.032,262.95845012
177.047,262.952972639
177.062,262.94720047
177.077,262.941133377
177.092,262.934771137
177.107,262.928113547
177.122,262.921160416
177.137,262.913911576
177.152,262.906366871
177.167,262.898526165
177.182,262.89038934
177.197,262.881956292
177.21,262.874407972
177.212,262.873226935
177.227,262.864201204
177.242,262.854879049
177.257,262.845260436
177.272,262.83534535
177.287,262.825133796
177.302,262.814625794
177.31,262.808900324
177.317,262.803821381
177.332,262.792720615
177.347,262.78132357
177.362,262.769630337
177.377,262.757641027
177.392,262.745355769
177.407,262.732774707
177.422,262.719898006
177.437,262.706725849
177.452,262.693258435
177.467,262.679495982
177.482,262.665438727
177.497,262.651086925
177.512,262.636440848
177.527,262.621500784
177.542,262.606267045
177.557,262.590739955
177.572,262.574919859
177.587,262.55880712
177.602,262.542402117
177.617,262.525705248
177.632,262.50871693
177.647,262.491437595
177.66,262.476227119
177.662,262.473867694
177.677,262.456007697
177.692,262.43785809
177.707,262.419419376
177.722,262.400692076
177.737,262.381676729
177.752,262.36237389
177.767,262.342784132
177.782,262.322908044
177.797,262.302746232
177.812,262.28229932
177.827,262.261567948
177.842,262.240552771
177.857,262.219254462
177.872,262.19767371
177.887,262.17581122
177.902,262.153667712
177.917,262.131243923
177.932,262.108540604
177.947,262.085558523
177.96,262.065415836
177.962,262.062298462
177.977,262.03876122
177.992,262.014947608
178.007,261.990858454
178.022,261.966494599
178.037,261.941856899
178.052,261.916946223
178.067,261.891763456
178.082,261.866309493
178.097,261.840585246
178.112,261.814591638
178.127,261.788329606
178.142,261.761800098
178.157,261.735004075
178.172,261.707942512
178.187,261.680616392
178.202,261.653026714
178.217,261.625174484
178.232,261.597060723
178.247,261.568686459
178.262,261.540052732
178.277,261.511160594
178.292,261.482011102
178.307,261.452605328
178.322,261.42294435
178.337,261.393029254
178.352,261.362861138
178.367,261.332441105
178.382,261.301770268
178.397,261.270849745
178.41,261.243850861
178.412,261.239680663
178.427,261.208264158
178.442,261.176601367
178.457,261.144693438
178.472,261.112541523
178.487,261.080146779
178.502,261.047510369
178.517,261.014633459
178.532,260.981517222
178.547,260.948162832
178.562,260.91457147
178.577,260.880744317
178.592,260.846682559
178.607,260.812387382
178.622,260.777859978
178.637,260.743101535
178.652,260.708113248
178.667,260.672896311
178.682,260.637451916
178.697,260.601781258
178.712,260.56588553
178.727,260.529765926
178.742,260.493423638
178.757,260.456859856
178.772,260.420075769
178.787,260.383072562
178.802,260.345851421
178.817,260.308413524
178.832,260.270760051
178.847,260.232892174
178.862,260.194811062
178.877,260.156517879
178.892,260.118013786
178.907,260.079299935
178.922,260.040377476
178.937,260.00124755
178.952,259.961911293
178.967,259.922369833
178.982,259.882624292
178.997,259.842675783
179.012,259.802525411
179.027,259.762174274
179.042,259.721623459
179.057,259.680874045
179.072,259.639927103
179.087,259.598783691
179.102,259.557444859
179.117,259.515911646
179.132,259.474185079
179.147,259.432266175
179.16,259.395781656
179.162,259.390155939
179.177,259.347855363
179.192,259.30536543
179.207,259.262687107
179.222,259.219821349
179.237,259.176769098
179.252,259.133531284
179.267,259.090108821
179.282,259.04650261
179.297,259.002713538
179.312,258.958742476
179.327,258.914590281
179.342,258.870257796
179.357,258.825745846
179.372,258.781055244
179.387,258.736186782
179.402,258.691141241
179.417,258.645919383
179.432,258.600521954
179.447,258.554949681
179.462,258.509203279
179.477,258.463283441
179.492,258.417190844
179.507,258.370926149
179.522,258.324489998
179.537,258.277883014
179.552,258.231105804
179.567,258.184158956
179.582,258.137043038
179.597,258.089758602
179.612,258.042306179
179.627,257.994686282
179.642,257.946899407
179.657,257.898946028
179.672,257.850826601
179.687,257.802541563
179.702,257.754091331
179.717,257.705476304
179.732,257.656696859
179.747,257.607753355
179.762,257.558646133
179.777,257.509375509
179.792,257.459941786
179.807,257.410345242
179.822,257.360586137
179.837,257.31066471
179.852,257.260581182
179.867,257.210335753
179.882,257.159928602
179.897,257.10935989
179.91,257.065403096
179.912,257.058629757
179.927,257.007738321
179.942,256.956685683
179.957,256.905471923
179.972,256.8540971
179.987,256.802561255
180.002,256.750864405
180.017,256.699006552
180.032,256.646987674
180.047,256.594807732
180.062,256.542466665
180.077,256.489964393
180.092,256.437300816
180.107,256.384475815
180.122,256.331489249
180.137,256.27834096
180.152,256.225030769
180.167,256.171558476
180.182,256.117923864
180.197,256.064126695
180.212,256.010166712
180.227,255.956043638
180.242,255.901757177
180.257,255.847307013
180.272,255.792692811
180.287,255.737914219
180.302,255.682970862
180.317,255.627862348
180.332,255.572588267
180.347,255.517148187
180.362,255.461541659
180.377,255.405768215
180.392,255.349827368
180.407,255.293718612
180.422,255.237441422
180.437,255.180995256
180.452,255.12437955
180.467,255.067593724
180.482,255.01063718
180.497,254.953509299
180.512,254.896209445
180.527,254.838736963
180.542,254.781091181
180.557,254.723271406
180.56,254.71168651
180.572,254.66527693
180.587,254.607107025
180.602,254.548760943
180.617,254.490237922
180.632,254.431537177
180.647,254.372657908
180.66,254.321484171
180.662,254.313599298
180.677,254.254360507
180.692,254.194940683
180.707,254.135338951
180.722,254.075554422
180.737,254.015586185
180.752,253.955433314
180.767,253.895094865
180.782,253.834569875
180.797,253.773857364
180.812,253.712956334
180.827,253.651865768
180.842,253.590584635
180.857,253.529111881
180.872,253.467446439
180.887,253.405587222
180.902,253.343533127
180.917,253.281283033
180.932,253.2188358
180.947,253.156190274
180.962,253.093345281
180.977,253.030299632
180.992,252.96705212
181.007,252.90360152
181.022,252.839946593
181.037,252.776086081
181.052,252.712018712
181.067,252.647743195
181.082,252.583258226
181.097,252.518562482
181.112,252.453654626
181.127,252.388533307
181.142,252.323197158
181.157,252.257644796
181.172,252.191874825
181.187,252.125885835
181.202,252.059676403
181.217,251.993245091
181.232,251.926590451
181.247,251.85971102
181.262,251.792605325
181.277,251.725271883
181.292,251.6577092
181.307,251.589915773
181.31,251.576329265
181.322,251.521890087
181.337,251.453630625
181.352,251.385135859
181.367,251.316404257
181.382,251.247434279
181.397,251.178224387
181.412,251.108773034
181.427,251.039078678
181.442,250.969139773
181.457,250.898954777
181.472,250.828522151
181.487,250.757840361
181.502,250.686907881
181.517,250.615723193
181.532,250.544284792
181.547,250.472591184
181.562,250.400640894
181.577,250.328432464
181.592,250.255964458
181.607,250.183235464
181.622,250.110244098
181.637,250.036989007
181.652,249.963468873
181.667,249.889682415
181.682,249.815628395
181.697,249.741305621
181.712,249.666712952
181.727,249.591849304
181.742,249.516713652
181.757,249.441305039
181.772,249.365622577
181.787,249.289665458
181.802,249.213432956
181.817,249.136924436
181.832,249.060139361
181.847,248.983077298
181.862,248.905737925
181.877,248.828121042
181.892,248.750226576
181.907,248.672054593
181.922,248.593605305
181.937,248.514879078
181.952,248.435876449
181.967,248.356598128
181.982,248.277045014
181.997,248.197218208
182.012,248.117119018
182.027,248.03674898
182.042,247.956109865
182.057,247.875203693
182.06,247.858990608
182.072,247.79403275
182.087,247.712599599
182.102,247.630907098
182.117,247.548958412
182.132,247.46675703
182.147,247.384306782
182.162,247.301611855
182.177,247.21867681
182.192,247.135506599
182.207,247.052106583
182.222,246.968482547
182.237,246.884640725
182.252,246.80058781
182.267,246.716330978
182.282,246.631877903
182.297,246.547236775
182.312,246.462416322
182.327,246.377425822
182.342,246.292275122
182.357,246.206974654
182.372,246.121535452
182.387,246.035969161
182.402,245.950288058
182.417,245.864505054
182.432,245.778633709
182.447,245.692688238
182.462,245.606683512
182.477,245.520635064
182.492,245.434559081
182.507,245.348472402
182.522,245.262392503
182.537,245.176337483
182.552,245.090326036
182.567,245.004377427
182.582,244.918511446
182.597,244.832748368
182.612,244.747108889
182.627,244.661614056
182.642,244.576285189
182.657,244.491143773
182.672,244.406211349
182.687,244.321509375
182.702,244.237059065
182.717,244.152881208
182.732,244.06899595
182.747,243.985422548
182.762,243.902179082
182.777,243.819282124
182.792,243.736746357
182.807,243.654584124
182.822,243.572804922
182.837,243.491414802
182.852,243.410415677
182.867,243.329804515
182.882,243.249572393
182.897,243.169703389
182.912,243.090173276
182.927,243.010947973
182.942,242.931981706
182.957,242.853214798
182.972,242.774571015
182.987,242.695954345
183.002,242.617245061
183.017,242.538294887
183.032,242.458921008
183.047,242.378898598
183.062,242.297951439
183.077,242.215740078
183.092,242.131846805
183.107,242.045756567
183.122,241.956832797
183.137,241.864287111
183.152,241.767142297
183.167,241.664189692
183.182,241.553946888
183.197,241.434634598
183.212,241.30422464
183.227,241.160693391
183.242,241.002808079
183.257,240.832154134
183.367,240.863818173
183.382,241.028586289
183.397,241.179779887
183.412,241.316816064
183.427,241.441245321
183.442,241.55513177
183.457,241.660449106
183.472,241.758899185
183.487,241.851889825
183.502,241.940565611
183.517,242.025851172
183.532,242.10849256
183.547,242.189092496
183.562,242.268138976
183.577,242.346028024
183.592,242.423081626
183.607,242.499561846
183.622,242.575681979
183.637,242.651615384
183.652,242.727502535
183.667,242.803456688
183.682,242.87956846
183.697,242.955909564
183.712,243.032535868
183.727,243.109489932
183.742,243.186803106
183.757,243.264497295
183.772,243.342586436
183.787,243.421077753
183.802,243.49997282
183.817,243.579268466
183.832,243.658957555
183.847,243.739029651
183.862,243.819471593
183.877,243.900267989
183.892,243.981401647
183.907,244.06285394
183.922,244.144605132
183.937,244.22663465
183.952,244.30892133
183.967,244.391443618
183.982,244.47417975
183.997,244.557107909
184.012,244.640206355
184.027,244.723453536
184.042,244.806828184
184.057,244.890309401
184.072,244.973876718
184.087,245.05751016
184.102,245.141190284
184.117,245.224898222
184.132,245.30861571
184.147,245.392325104
184.162,245.476009405
184.177,245.559652262
184.192,245.643237984
184.207,245.726751539
184.222,245.810178553
184.237,245.893505307
184.252,245.976718729
184.267,246.059806384
184.282,246.142756466
184.297,246.225557779
184.312,246.308199732
184.327,246.390672315
184.342,246.472966088
184.357,246.555072164
184.372,246.636982191
184.387,246.718688332
184.402,246.800183252
184.417,246.881460097
184.432,246.962512475
184.447,247.043334441
184.462,247.123920478
184.477,247.204265478
184.492,247.284364725
184.507,247.36421388
184.522,247.443808962
184.537,247.523146333
184.552,247.60222268
184.56,247.644288953
184.567,247.681035001
184.582,247.759580591
184.597,247.837857025
184.612,247.915862143
184.627,247.993594042
184.642,248.071051053
184.657,248.148231738
184.672,248.225134873
184.687,248.301759434
184.702,248.37810459
184.717,248.45416969
184.732,248.529954251
184.747,248.605457952
184.762,248.68068062
184.777,248.755622222
184.792,248.830282859
184.807,248.904662754
184.822,248.978762246
184.837,249.05258178
184.852,249.126121904
184.867,249.199383257
184.882,249.272366567
184.897,249.345072642
184.912,249.417502364
184.927,249.489656685
184.942,249.56153662
184.957,249.633143245
184.972,249.704477686
184.987,249.775541122
185.002,249.846334775
185.017,249.916859909
185.032,249.987117826
185.047,250.05710986
185.062,250.126837376
185.077,250.196301767
185.092,250.265504449
185.107,250.33444686
185.122,250.403130456
185.137,250.471556711
185.152,250.539727109
185.167,250.60764315
185.182,250.67530634
185.197,250.742718195
185.212,250.809880237
185.227,250.876793989
185.242,250.943460981
185.257,251.009882741
185.272,251.076060798
185.287,251.14199668
185.302,251.207691909
185.31,251.242631491
185.317,251.273148009
185.332,251.338366494
185.347,251.403348876
185.362,251.468096657
185.377,251.532611334
185.392,251.596894396
185.407,251.660947321
185.422,251.724771579
185.437,251.78836863
185.452,251.851739924
185.467,251.914886898
185.482,251.977810978
185.497,252.04051358
185.512,252.102996106
185.527,252.165259945
185.542,252.227306473
185.557,252.289137055
185.572,252.35075304
185.587,252.412155765
185.602,252.47334655
185.617,252.534326706
185.632,252.595097525
185.647,252.655660287
185.662,252.716016257
185.677,252.776166685
185.692,252.836112808
185.707,252.895855845
185.722,252.955397004
185.737,253.014737474
185.752,253.073878433
185.767,253.132821041
185.782,253.191566444
185.797,253.250115774
185.812,253.308470147
185.827,253.366630664
185.842,253.42459841
185.857,253.482374458
185.872,253.539959862
185.887,253.597355664
185.902,253.65456289
185.917,253.711582551
185.932,253.768415643
185.947,253.825063147
185.96,253.874008278
185.962,253.88152603
185.977,253.937805243
185.992,253.993901723
186.007,254.049816391
186.022,254.105550155
186.037,254.161103908
186.052,254.216478526
186.06,254.245938709
186.067,254.271674874
186.082,254.326693799
186.097,254.381536136
186.112,254.436202704
186.127,254.490694309
186.142,254.545011739
186.157,254.599155772
186.172,254.653127169
186.187,254.706926678
186.202,254.760555031
186.217,254.814012946
186.232,254.867301129
186.247,254.920420269
186.262,254.973371042
186.277,255.026154109
186.292,255.078770119
186.307,255.131219703
186.322,255.183503482
186.337,255.235622061
186.352,255.28757603
186.367,255.339365967
186.382,255.390992434
186.397,255.44245598
186.412,255.493757139
186.427,255.544896434
186.442,255.59587437
186.457,255.646691441
186.472,255.697348125
186.487,255.747844887
186.502,255.79818218
186.517,255.848360439
186.532,255.898380089
186.547,255.948241539
186.562,255.997945184
186.577,256.047491407
186.592,256.096880576
186.607,256.146113045
186.622,256.195189155
186.637,256.244109232
186.652,256.29287359
186.667,256.341482528
186.682,256.389936332
186.697,256.438235274
186.71,256.479969291
186.712,256.486379613
186.727,256.534369592
186.742,256.582205444
186.757,256.629887387
186.772,256.677415624
186.787,256.724790346
186.802,256.772011731
186.817,256.819079943
186.832,256.865995131
186.847,256.912757434
186.862,256.959366974
186.877,257.005823863
186.892,257.052128198
186.907,257.098280064
186.922,257.14427953
186.937,257.190126656
186.952,257.235821487
186.967,257.281364054
186.982,257.326754377
186.997,257.371992463
187.012,257.417078304
187.027,257.462011882
187.042,257.506793166
187.057,257.551422111
187.072,257.59589866
187.087,257.640222745
187.102,257.684394285
187.117,257.728413186
187.132,257.772279342
187.147,257.815992636
187.162,257.859552939
187.177,257.902960109
187.192,257.946213993
187.207,257.989314427
187.222,258.032261234
187.237,258.075054228
187.252,258.11769321
187.267,258.160177969
187.282,258.202508285
187.297,258.244683926
187.312,258.286704651
187.327,258.328570205
187.342,258.370280325
187.357,258.411834738
187.372,258.45323316
187.387,258.494475296
187.402,258.535560843
187.417,258.576489487
187.432,258.617260904
187.447,258.657874763
187.46,258.692945729
187.462,258.698330721
187.477,258.738628428
187.492,258.778767523
187.507,258.818747637
187.522,258.858568395
187.537,258.898229411
187.552,258.937730289
187.567,258.97707063
187.582,259.016250023
187.597,259.055268051
187.612,259.094124291
187.627,259.132818308
187.642,259.171349666
187.657,259.209717918
187.672,259.24792261
187.687,259.285963287
187.702,259.32383948
187.717,259.36155072
187.732,259.399096529
187.747,259.436476425
187.762,259.47368992
187.777,259.51073652
187.792,259.547615727
187.807,259.584327038
187.822,259.620869947
187.837,259.657243939
187.852,259.693448501
187.867,259.729483111
187.882,259.765347247
187.897,259.80104038
187.912,259.836561982
187.927,259.871911517
187.942,259.907088452
187.957,259.942092247
187.972,259.976922361
187.987,260.01157825
188.002,260.04605937
188.017,260.080365174
188.032,260.114495115
188.047,260.148448643
188.062,260.182225206
188.077,260.215824255
188.092,260.249245238
188.107,260.282487603
188.122,260.315550798
188.137,260.348434269
188.152,260.381137468
188.167,260.41365984
188.182,260.446000838
188.197,260.47815991
188.21,260.505883526
188.212,260.51013651
188.227,260.54193009
188.242,260.573540104
188.257,260.60496601
188.272,260.636207267
188.287,260.667263334
188.302,260.698133676
188.317,260.728817759
188.332,260.759315051
188.347,260.789625024
188.362,260.819747153
188.377,260.849680918
188.392,260.8794258
188.407,260.908981285
188.422,260.938346863
188.437,260.967522028
188.452,260.99650628
188.467,261.025299122
188.482,261.053900059
188.497,261.082308608
188.512,261.110524285
188.527,261.138546612
188.542,261.166375119
188.557,261.19400934
188.572,261.221448816
188.587,261.248693091
188.602,261.275741718
188.617,261.302594255
188.632,261.329250267
188.647,261.355709325
188.66,261.378480868
188.662,261.381971006
188.677,261.408034895
188.692,261.433900584
188.707,261.459567671
188.722,261.485035763
188.737,261.510304472
188.752,261.535373419
