# 78954 TBPB Grantley Adams Observations at 12Z 17 Mar 2019
Frequency [GHz],TB
175.31,277.540592892
175.322,277.522141858
175.337,277.499019252
175.352,277.475831113
175.367,277.452577245
175.382,277.429257449
175.397,277.405871522
175.412,277.382419263
175.427,277.358900467
175.442,277.335314929
175.457,277.31166244
175.472,277.287942792
175.487,277.264155773
175.502,277.240301169
175.517,277.216378769
175.532,277.192388353
175.547,277.168329705
175.562,277.144202604
175.577,277.120006829
175.592,277.095742157
175.607,277.071408361
175.622,277.047005216
175.637,277.022532492
175.652,276.997989957
175.667,276.97337738
175.682,276.948694526
175.697,276.923941158
175.712,276.899117039
175.727,276.874221926
175.742,276.84925558
175.757,276.824217755
175.772,276.799108205
175.787,276.773926682
175.802,276.748672936
175.817,276.723346715
175.832,276.697947765
175.847,276.672475829
175.862,276.646930651
175.877,276.621311969
175.892,276.595619521
175.907,276.569853044
175.922,276.544012271
175.937,276.518096932
175.952,276.492106759
175.967,276.466041478
175.982,276.439900815
175.997,276.413684492
176.012,276.387392231
176.027,276.36102375
176.042,276.334578767
176.057,276.308056995
176.072,276.281458147
176.087,276.254781933
176.102,276.22802806
176.117,276.201196235
176.132,276.174286161
176.147,276.147297539
176.162,276.120230068
176.177,276.093083444
176.192,276.065857362
176.207,276.038551514
176.222,276.011165589
176.237,275.983699276
176.252,275.956152258
176.267,275.92852422
176.282,275.90081484
176.297,275.873023798
176.31,275.848871921
176.312,275.845150768
176.327,275.817195424
176.342,275.789157438
176.357,275.761036477
176.372,275.732832208
176.387,275.704544293
176.402,275.676172395
176.417,275.647716172
176.432,275.61917528
176.447,275.590549373
176.46,275.565671217
176.462,275.561838103
176.477,275.533041118
176.492,275.504158064
176.507,275.475188586
176.522,275.446132324
176.537,275.416988917
176.552,275.387758002
176.567,275.358439212
176.582,275.329032179
176.597,275.29953653
176.612,275.269951891
176.627,275.240277886
176.642,275.210514136
176.657,275.180660259
176.672,275.15071587
176.687,275.120680581
176.702,275.090554003
176.717,275.060335744
176.732,275.030025408
176.747,274.999622598
176.762,274.969126913
176.777,274.938537949
176.792,274.9078553
176.807,274.877078559
176.822,274.846207313
176.837,274.815241148
176.852,274.784179648
176.867,274.753022393
176.882,274.72176896
176.897,274.690418923
176.912,274.658971857
176.927,274.627427328
176.942,274.595784903
176.957,274.564044147
176.972,274.53220462
176.987,274.50026588
177.002,274.468227481
177.017,274.436088976
177.032,274.403849915
177.047,274.371509843
177.062,274.339068304
177.077,274.306524839
177.092,274.273878986
177.107,274.241130279
177.122,274.208278251
177.137,274.17532243
177.152,274.142262342
177.167,274.10909751
177.182,274.075827456
177.197,274.042451694
177.21,274.013440155
177.212,274.008969741
177.227,273.975381107
177.242,273.9416853
177.257,273.907881825
177.272,273.873970185
177.287,273.839949878
177.302,273.805820401
177.31,273.7875732
177.317,273.771581247
177.332,273.737231906
177.347,273.702771864
177.362,273.668200606
177.377,273.633517612
177.392,273.598722361
177.407,273.563814327
177.422,273.52879298
177.437,273.49365779
177.452,273.458408223
177.467,273.423043739
177.482,273.387563799
177.497,273.351967858
177.512,273.316255368
177.527,273.28042578
177.542,273.244478539
177.557,273.20841309
177.572,273.172228871
177.587,273.135925321
177.602,273.099501871
177.617,273.062957954
177.632,273.026292996
177.647,272.989506421
177.66,272.9575259
177.662,272.95259765
177.677,272.9155661
177.692,272.878411186
177.707,272.841132319
177.722,272.803728907
177.737,272.766200353
177.752,272.72854606
177.767,272.690765426
177.782,272.652857844
177.797,272.614822706
177.812,272.576659402
177.827,272.538367314
177.842,272.499945825
177.857,272.461394313
177.872,272.422712154
177.887,272.383898717
177.902,272.344953372
177.917,272.305875483
177.932,272.266664412
177.947,272.227319518
177.96,272.193111862
177.962,272.187840154
177.977,272.148225673
177.992,272.108475423
178.007,272.068588748
178.022,272.02856499
178.037,271.988403486
178.052,271.948103573
178.067,271.90766458
178.082,271.867085836
178.097,271.826366666
178.112,271.78550639
178.127,271.744504327
178.142,271.703359791
178.157,271.662072093
178.172,271.62064054
178.187,271.579064438
178.202,271.537343087
178.217,271.495475785
178.232,271.453461826
178.247,271.4113005
178.262,271.368991097
178.277,271.326532898
178.292,271.283925186
178.307,271.241167238
178.322,271.198258329
178.337,271.155197728
178.352,271.111984703
178.367,271.068618519
178.382,271.025098436
178.397,270.981423712
178.41,270.943446621
178.412,270.937593602
178.427,270.893607356
178.442,270.849464221
178.457,270.805163443
178.472,270.760704263
178.487,270.716085919
178.502,270.671307645
178.517,270.626368674
178.532,270.581268233
178.547,270.536005548
178.562,270.490579842
178.577,270.444990332
178.592,270.399236236
178.607,270.353316767
178.622,270.307231133
178.637,270.260978543
178.652,270.2145582
178.667,270.167969304
178.682,270.121211055
178.697,270.074282647
178.712,270.027183273
178.727,269.979912122
178.742,269.93246838
178.757,269.884851233
178.772,269.837059861
178.787,269.789093444
178.802,269.740951156
178.817,269.692632173
178.832,269.644135664
178.847,269.595460799
178.862,269.546606744
178.877,269.497572663
178.892,269.448357717
178.907,269.398961067
178.922,269.349381869
178.937,269.299619279
178.952,269.24967245
178.967,269.199540534
178.982,269.149222681
178.997,269.098718038
179.012,269.048025751
179.027,268.997144965
179.042,268.946074823
179.057,268.894814467
179.072,268.843363038
179.087,268.791719675
179.102,268.739883516
179.117,268.687853699
179.132,268.635629359
179.147,268.583209633
179.16,268.537620489
179.162,268.530593655
179.177,268.477780562
179.192,268.424769485
179.207,268.371559561
179.222,268.318149923
179.237,268.264539705
179.252,268.210728042
179.267,268.156714069
179.282,268.10249692
179.297,268.048075733
179.312,267.993449644
179.327,267.938617792
179.342,267.883579316
179.357,267.828333357
179.372,267.772879059
179.387,267.717215566
179.402,267.661342024
179.417,267.605257583
179.432,267.548961394
179.447,267.492452613
179.462,267.435730397
179.477,267.378793906
179.492,267.321642306
179.507,267.264274764
179.522,267.206690454
179.537,267.148888552
179.552,267.09086824
179.567,267.032628705
179.582,266.974169138
179.597,266.915488737
179.612,266.856586707
179.627,266.797462255
179.642,266.7381146
179.657,266.678542965
179.672,266.618746581
179.687,266.558724686
179.702,266.498476528
179.717,266.438001362
179.732,266.377298452
179.747,266.316367072
179.762,266.255206506
179.777,266.193816048
179.792,266.132195002
179.807,266.070342684
179.822,266.008258422
179.837,265.945941556
179.852,265.883391437
179.867,265.820607432
179.882,265.757588919
179.897,265.694335292
179.91,265.639324844
179.912,265.63084596
179.927,265.567120345
179.942,265.503157888
179.957,265.438958044
179.972,265.374520287
179.987,265.309844107
180.002,265.244929015
180.017,265.179774538
180.032,265.114380225
180.047,265.048745643
180.062,264.982870383
180.077,264.916754056
180.092,264.850396294
180.107,264.783796755
180.122,264.716955119
180.137,264.649871092
180.152,264.582544404
180.167,264.514974811
180.182,264.447162098
180.197,264.379106076
180.212,264.310806585
180.227,264.242263494
180.242,264.173476702
180.257,264.104446141
180.272,264.035171772
180.287,263.96565359
180.302,263.895891625
180.317,263.825885939
180.332,263.755636632
180.347,263.685143838
180.362,263.614407728
180.377,263.543428515
180.392,263.472206445
180.407,263.40074181
180.422,263.329034938
180.437,263.257086202
180.452,263.184896016
180.467,263.112464839
180.482,263.039793174
180.497,262.966881568
180.512,262.893730617
180.527,262.820340964
180.542,262.7467133
180.557,262.672848364
180.56,262.658046973
180.572,262.598746947
180.587,262.52440989
180.602,262.449838088
180.617,262.375032486
180.632,262.299994086
180.647,262.224723942
180.66,262.159303219
180.662,262.149223164
180.677,262.073492921
180.692,261.997534435
180.707,261.92134899
180.722,261.844937925
180.737,261.768302641
180.752,261.691444599
180.767,261.61436532
180.782,261.537066385
180.797,261.459549441
180.812,261.381816193
180.827,261.303868412
180.842,261.225707932
180.857,261.14733665
180.872,261.068756528
180.887,260.989969591
180.902,260.910977931
180.917,260.831783703
180.932,260.752389127
180.947,260.672796489
180.962,260.593008139
180.977,260.513026491
180.992,260.432854024
181.007,260.352493281
181.022,260.271946867
181.037,260.191217452
181.052,260.110307765
181.067,260.029220601
181.082,259.94795881
181.097,259.866525305
181.112,259.784923055
181.127,259.703155087
181.142,259.621224481
181.157,259.539134372
181.172,259.456887947
181.187,259.374488441
181.202,259.291939138
181.217,259.209243364
181.232,259.12640449
181.247,259.043425926
181.262,258.960311117
181.277,258.877063542
181.292,258.793686712
181.307,258.710184159
181.31,258.693468875
181.322,258.626559442
181.337,258.542816135
181.352,258.458957826
181.367,258.374988111
181.382,258.290910592
181.397,258.206728866
181.412,258.122446524
181.427,258.038067143
181.442,257.953594281
181.457,257.86903147
181.472,257.784382207
181.487,257.699649949
181.502,257.614838104
181.517,257.529950026
181.532,257.444989001
181.547,257.359958243
181.562,257.274860881
181.577,257.189699953
181.592,257.104478393
181.607,257.019199022
181.622,256.933864535
181.637,256.848477492
181.652,256.763040304
181.667,256.677555221
181.682,256.592024319
181.697,256.506449488
181.712,256.420832414
181.727,256.335174569
181.742,256.249477191
181.757,256.163741273
181.772,256.077967543
181.787,255.992156448
181.802,255.906308137
181.817,255.82042244
181.832,255.734498853
181.847,255.648536516
181.862,255.562534192
181.877,255.476490246
181.892,255.390402624
181.907,255.304268828
181.922,255.218085896
181.937,255.131850372
181.952,255.045558286
181.967,254.959205125
181.982,254.872785803
181.997,254.786294636
182.012,254.699725311
182.027,254.613070856
182.042,254.526323604
182.057,254.439475164
182.06,254.422092542
182.072,254.352516383
182.087,254.265437311
182.102,254.178227161
182.117,254.09087427
182.132,254.003366055
182.147,253.915688973
182.162,253.827828468
182.177,253.739768929
182.192,253.651493632
182.207,253.56298469
182.222,253.474222989
182.237,253.385188133
182.252,253.295858373
182.267,253.20621054
182.282,253.116219967
182.297,253.025860408
182.312,252.935103955
182.327,252.84392094
182.342,252.752279834
182.357,252.66014714
182.372,252.567487269
182.387,252.474262413
182.402,252.380432399
182.417,252.285954534
182.432,252.190783428
182.447,252.094870812
182.462,251.998165318
182.477,251.900612247
182.492,251.802153313
182.507,251.702726343
182.522,251.602264959
182.537,251.500698208
182.552,251.397950149
182.567,251.29393939
182.582,251.188578562
182.597,251.08177372
182.612,250.973423663
182.627,250.863419163
182.642,250.751642076
182.657,250.637964326
182.672,250.522246743
182.687,250.404337713
182.702,250.284071627
182.717,250.161267089
182.732,250.035724824
182.747,249.907225254
182.762,249.775525666
182.777,249.640356905
182.792,249.501419488
182.807,249.358379045
182.822,249.210860939
182.837,249.058443909
182.852,248.900652536
182.867,248.73694829
182.882,248.566718847
182.897,248.389265322
182.912,248.203786951
182.927,248.009362655
182.942,247.804928775
182.957,247.589252102
182.972,247.360897073
182.987,247.118185755
183.002,246.859148844
183.017,246.581465457
183.032,246.282388936
183.047,245.958655134
183.062,245.606368863
183.077,245.220863182
183.092,244.79652532
183.107,244.326582441
183.122,243.802841012
183.137,243.2153769
183.152,242.552183094
183.167,241.798805783
183.182,240.938053425
183.197,239.94998114
183.212,238.812607202
183.227,237.504374878
183.242,236.010636711
183.257,234.339463314
183.367,234.760466871
183.382,236.385745578
183.397,237.828284613
183.412,239.088124648
183.427,240.182603964
183.442,241.133728478
183.457,241.963051693
183.472,242.689805285
183.487,243.330434534
183.502,243.898712539
183.517,244.406061362
183.532,244.861916981
183.547,245.274071461
183.562,245.64896968
183.577,245.991957089
183.592,246.307482631
183.607,246.599263355
183.622,246.870417388
183.637,247.123571269
183.652,247.360946668
183.667,247.584430607
183.682,247.795632482
183.697,247.995930519
183.712,248.186509755
183.727,248.368393193
183.742,248.54246745
183.757,248.709503954
183.772,248.870176503
183.787,249.025075875
183.802,249.174722017
183.817,249.319574247
183.832,249.460039818
183.847,249.596481122
183.862,249.72922179
183.877,249.858551834
183.892,249.984732036
183.907,250.107997662
183.922,250.228561654
183.937,250.346617342
183.952,250.462340783
183.967,250.575892769
183.982,250.687420558
183.997,250.797059369
184.012,250.90493368
184.027,251.011158352
184.042,251.115839615
184.057,251.219075917
184.072,251.320958678
184.087,251.421572947
184.102,251.520997978
184.117,251.619307742
184.132,251.716571375
184.147,251.812853582
184.162,251.908214986
184.177,252.002712453
184.192,252.096399365
184.207,252.189325882
184.222,252.281539165
184.237,252.373083581
184.252,252.464000893
184.267,252.554330422
184.282,252.644109205
184.297,252.733372131
184.312,252.822152067
184.327,252.910479981
184.342,252.998385041
184.357,253.085894718
184.372,253.173034878
184.387,253.259829863
184.402,253.346302574
184.417,253.43247454
184.432,253.518365988
184.447,253.603995907
184.462,253.689382108
184.477,253.774541278
184.492,253.859489038
184.507,253.944239989
184.522,254.028807759
184.537,254.113205051
184.552,254.197443684
184.56,254.242309904
184.567,254.281534633
184.582,254.365488069
184.597,254.449313394
184.612,254.533019277
184.627,254.616613691
184.642,254.700103938
184.657,254.783496687
184.672,254.866797998
184.687,254.950013355
184.702,255.033147692
184.717,255.116205415
184.732,255.199190434
184.747,255.282106183
184.762,255.364955645
184.777,255.447741373
184.792,255.530465514
184.807,255.613129826
184.822,255.695735705
184.837,255.778284196
184.852,255.860776018
184.867,255.943211581
184.882,256.025590999
184.897,256.107914114
184.912,256.190180505
184.927,256.272389509
184.942,256.354540233
184.957,256.436631568
184.972,256.518662206
184.987,256.600630651
185.002,256.682535231
185.017,256.764374113
185.032,256.846145313
185.047,256.927846707
185.062,257.009476045
185.077,257.091030957
185.092,257.172508967
185.107,257.253907499
185.122,257.335223891
185.137,257.416455398
185.152,257.497599207
185.167,257.578652438
185.182,257.659612157
185.197,257.740475383
185.212,257.821239092
185.227,257.901900225
185.242,257.982455695
185.257,258.062902395
185.272,258.143237198
185.287,258.223456969
185.302,258.303558566
185.31,258.346230011
185.317,258.383538844
185.332,258.463394665
185.347,258.543122898
185.362,258.622720423
185.377,258.702184137
185.392,258.781510957
185.407,258.860697821
185.422,258.939741696
185.437,259.018639578
185.452,259.097388493
185.467,259.175985503
185.482,259.254427708
185.497,259.332712247
185.512,259.410836299
185.527,259.488797088
185.542,259.566591883
185.557,259.644218
185.572,259.721672801
185.587,259.7989537
185.602,259.876058162
185.617,259.952983701
185.632,260.029727888
185.647,260.106288343
185.662,260.182662744
185.677,260.258848822
185.692,260.334844364
185.707,260.410647214
185.722,260.486255269
185.737,260.561666486
185.752,260.636878878
185.767,260.711890514
185.782,260.786699518
185.797,260.861304075
185.812,260.935702424
185.827,261.00989286
185.842,261.083873736
185.857,261.15764346
185.872,261.231200496
185.887,261.304543363
185.902,261.377670635
185.917,261.450580941
185.932,261.523272963
185.947,261.595745437
185.96,261.658376388
185.962,261.667997153
185.977,261.740026951
185.992,261.811833723
186.007,261.883416415
186.022,261.95477402
186.037,262.025905581
186.052,262.096810192
186.06,262.134532889
186.067,262.167486994
186.082,262.237935175
186.097,262.30815397
186.112,262.378142662
186.127,262.447900575
186.142,262.517427082
186.157,262.586721598
186.172,262.655783578
186.187,262.724612523
186.202,262.793207974
186.217,262.861569512
186.232,262.929696758
186.247,262.99758937
186.262,263.065247048
186.277,263.132669525
186.292,263.199856573
186.307,263.266807999
186.322,263.333523644
186.337,263.400003384
186.352,263.466247127
186.367,263.532254814
186.382,263.59802642
186.397,263.663561946
186.412,263.728861427
186.427,263.793924926
186.442,263.858752535
186.457,263.923344372
186.472,263.987700586
186.487,264.051821348
186.502,264.115706857
186.517,264.179357337
186.532,264.242773037
186.547,264.305954226
186.562,264.368901201
186.577,264.431614277
186.592,264.494093792
186.607,264.556340107
186.622,264.6183536
186.637,264.680134671
186.652,264.741683737
186.667,264.803001236
186.682,264.864087622
186.697,264.924943368
186.71,264.977498828
186.712,264.985568961
186.727,265.045964907
186.742,265.106131727
186.757,265.166069955
186.772,265.225780142
186.787,265.285262853
186.802,265.344518665
186.817,265.403548169
186.832,265.462351968
186.847,265.520930678
186.862,265.579284927
186.877,265.637415353
186.892,265.695322604
186.907,265.753007342
186.922,265.810470234
186.937,265.86771196
186.952,265.924733208
186.967,265.981534675
186.982,266.038117066
186.997,266.094481094
187.012,266.15062748
187.027,266.206556951
187.042,266.262270243
187.057,266.317768096
187.072,266.373051259
187.087,266.428120485
187.102,266.482976533
187.117,266.537620168
187.132,266.592052158
187.147,266.646273279
187.162,266.700284308
187.177,266.754086029
187.192,266.807679228
187.207,266.861064696
187.222,266.914243226
187.237,266.967215615
187.252,267.019982664
187.267,267.072545174
187.282,267.124903951
187.297,267.177059802
187.312,267.229013537
187.327,267.280765966
187.342,267.332317903
187.357,267.383670162
187.372,267.434823559
187.387,267.48577891
187.402,267.536537034
187.417,267.587098748
187.432,267.637464873
187.447,267.687636226
187.46,267.730961152
187.462,267.737613629
187.477,267.787397901
187.492,267.836989863
187.507,267.886390333
187.522,267.935600133
187.537,267.984620081
187.552,268.033450995
187.567,268.082093695
187.582,268.130548997
187.597,268.178817718
187.612,268.226900674
187.627,268.274798678
187.642,268.322512545
187.657,268.370043086
187.672,268.417391113
187.687,268.464557433
187.702,268.511542856
187.717,268.558348187
187.732,268.60497423
187.747,268.651421789
187.762,268.697691664
187.777,268.743784653
187.792,268.789701555
187.807,268.835443163
187.822,268.881010271
187.837,268.926403668
187.852,268.971624144
187.867,269.016672484
187.882,269.061549472
187.897,269.10625589
187.912,269.150792516
187.927,269.195160126
187.942,269.239359495
187.957,269.283391394
187.972,269.327256592
187.987,269.370955853
188.002,269.414489943
188.017,269.457859621
188.032,269.501065646
188.047,269.544108772
188.062,269.586989752
188.077,269.629709335
188.092,269.672268268
188.107,269.714667294
188.122,269.756907154
188.137,269.798988587
188.152,269.840912326
188.167,269.882679104
188.182,269.92428965
188.197,269.965744689
188.21,270.00154716
188.212,270.007044944
188.227,270.048191135
188.242,270.08918398
188.257,270.13002419
188.272,270.170712478
188.287,270.211249549
188.302,270.25163611
188.317,270.29187286
188.332,270.331960499
188.347,270.371899721
188.362,270.411691217
188.377,270.451335677
188.392,270.490833786
188.407,270.530186226
188.422,270.569393677
188.437,270.608456815
188.452,270.647376312
188.467,270.686152838
188.482,270.72478706
188.497,270.763279642
188.512,270.801631242
188.527,270.83984252
188.542,270.877914127
188.557,270.915846716
188.572,270.953640933
188.587,270.991297423
188.602,271.028816827
188.617,271.066199784
188.632,271.103446928
188.647,271.140558891
188.66,271.172613732
188.662,271.177536302
188.677,271.214379786
188.692,271.251089965
188.707,271.28766746
188.722,271.324112885
188.737,271.360426854
