# 48698 WSSS Singapore Observations at 12Z 26 Oct 2019
Frequency [GHz],TB
175.31,272.023018005
175.322,271.999712116
175.337,271.970514974
175.352,271.941245655
175.367,271.911903954
175.382,271.882489653
175.397,271.85300254
175.412,271.823442403
175.427,271.793809024
175.442,271.764102189
175.457,271.73432168
175.472,271.704467279
175.487,271.674538769
175.502,271.644535927
175.517,271.614458535
175.532,271.584306374
175.547,271.554079219
175.562,271.523776844
175.577,271.493399027
175.592,271.462945547
175.607,271.432416174
175.622,271.401810681
175.637,271.37112884
175.652,271.340370424
175.667,271.309535201
175.682,271.278622942
175.697,271.247633415
175.712,271.216566386
175.727,271.185421623
175.742,271.154198891
175.757,271.122897954
175.772,271.091518576
175.787,271.060060517
175.802,271.028523543
175.817,270.996907411
175.832,270.965211881
175.847,270.933436715
175.862,270.901581664
175.877,270.869646489
175.892,270.837630943
175.907,270.805534784
175.922,270.773357761
175.937,270.741099628
175.952,270.708760138
175.967,270.676339038
175.982,270.64383608
175.997,270.61125101
176.012,270.578583577
176.027,270.545833526
176.042,270.513000602
176.057,270.480084549
176.072,270.447085109
176.087,270.414002024
176.102,270.380835036
176.117,270.347583883
176.132,270.314248302
176.147,270.280828033
176.162,270.247322811
176.177,270.213732369
176.192,270.180056446
176.207,270.14629477
176.222,270.112447074
176.237,270.078513089
176.252,270.044492544
176.267,270.010385167
176.282,269.976190684
176.297,269.941908823
176.31,269.912126984
176.312,269.907539306
176.327,269.873081859
176.342,269.838536203
176.357,269.803902059
176.372,269.769179146
176.387,269.734367184
176.402,269.699465889
176.417,269.66447498
176.432,269.629394168
176.447,269.59422317
176.46,269.563668464
176.462,269.558961696
176.477,269.523609458
176.492,269.488166167
176.507,269.45263153
176.522,269.417005257
176.537,269.38128705
176.552,269.345476617
176.567,269.309573662
176.582,269.273577884
176.597,269.237488987
176.612,269.201306668
176.627,269.165030628
176.642,269.128660561
176.657,269.092196164
176.672,269.055637132
176.687,269.018983156
176.702,268.98223393
176.717,268.945389142
176.732,268.90844848
176.747,268.871411634
176.762,268.834278287
176.777,268.797048126
176.792,268.759720834
176.807,268.722296089
176.822,268.684773576
176.837,268.647152971
176.852,268.609433951
176.867,268.571616194
176.882,268.533699373
176.897,268.495683161
176.912,268.457567228
176.927,268.419351246
176.942,268.381034882
176.957,268.342617804
176.972,268.304099676
176.987,268.265480161
177.002,268.226758924
177.017,268.187935624
177.032,268.14900992
177.047,268.109981469
177.062,268.070849928
177.077,268.03161495
177.092,267.992276187
177.107,267.952833294
177.122,267.913285915
177.137,267.873633702
177.152,267.833876298
177.167,267.794013348
177.182,267.754044497
177.197,267.713969382
177.21,267.679151383
177.212,267.673787645
177.227,267.633498923
177.242,267.593102852
177.257,267.552599064
177.272,267.511987195
177.287,267.471266871
177.302,267.430437724
177.31,267.408617553
177.317,267.389499378
177.332,267.348451461
177.347,267.307293595
177.362,267.266025401
177.377,267.224646499
177.392,267.183156506
177.407,267.141555039
177.422,267.09984171
177.437,267.058016133
177.452,267.016077915
177.467,266.974026667
177.482,266.931861993
177.497,266.889583498
177.512,266.847190784
177.527,266.804683451
177.542,266.762061098
177.557,266.719323318
177.572,266.676469708
177.587,266.633499859
177.602,266.59041336
177.617,266.5472098
177.632,266.503888763
177.647,266.460449832
177.66,266.422707074
177.662,266.41689259
177.677,266.373216617
177.692,266.329421486
177.707,266.285506774
177.722,266.241472052
177.737,266.197316891
177.752,266.153040859
177.767,266.108643521
177.782,266.06412444
177.797,266.019483178
177.812,265.974719292
177.827,265.929832338
177.842,265.88482187
177.857,265.83968744
177.872,265.794428595
177.887,265.749044884
177.902,265.703535848
177.917,265.657901029
177.932,265.612139967
177.947,265.566252197
177.96,265.526379944
177.962,265.520237254
177.977,265.474094666
177.992,265.427823964
178.007,265.381424671
178.022,265.334896314
178.037,265.288238409
178.052,265.241450476
178.067,265.194532029
178.082,265.147482578
178.097,265.100301636
178.112,265.052988705
178.127,265.005543293
178.142,264.957964895
178.157,264.910253013
178.172,264.862407138
178.187,264.814426763
178.202,264.766311376
178.217,264.718060464
178.232,264.669673507
178.247,264.621149984
178.262,264.572489374
178.277,264.523691146
178.292,264.474754771
178.307,264.425679716
178.322,264.376465443
178.337,264.32711141
178.352,264.277617076
178.367,264.227981893
178.382,264.178205309
178.397,264.12828677
178.41,264.084908779
178.412,264.078225718
178.427,264.028021594
178.442,263.97767383
178.457,263.927181859
178.472,263.876545108
178.487,263.825763001
178.502,263.774834958
178.517,263.723760395
178.532,263.672538726
178.547,263.621169358
178.562,263.569651694
178.577,263.517985138
178.592,263.466169084
178.607,263.414202923
178.622,263.362086045
178.637,263.309817834
178.652,263.257397669
178.667,263.204824924
178.682,263.152098971
178.697,263.099219177
178.712,263.046184902
178.727,262.992995504
178.742,262.939650336
178.757,262.886148744
178.772,262.832490074
178.787,262.778673663
178.802,262.724698844
178.817,262.670564946
178.832,262.616271292
178.847,262.561817201
178.862,262.507201986
178.877,262.452424953
178.892,262.397485408
178.907,262.342382647
178.922,262.287115962
178.937,262.231684638
178.952,262.176087956
178.967,262.120325193
178.982,262.064395616
178.997,262.008298489
179.012,261.952033069
179.027,261.895598608
179.042,261.838994352
179.057,261.782219537
179.072,261.725273398
179.087,261.668155161
179.102,261.610864045
179.117,261.553399264
179.132,261.495760021
179.147,261.43794552
179.16,261.387697229
179.162,261.379954951
179.177,261.3217875
179.192,261.263442344
179.207,261.204918655
179.222,261.146215597
179.237,261.087332324
179.252,261.028267986
179.267,260.969021724
179.282,260.909592668
179.297,260.849979944
179.312,260.790182668
179.327,260.730199949
179.342,260.670030884
179.357,260.609674565
179.372,260.549130074
179.387,260.488396484
179.402,260.427472858
179.417,260.366358251
179.432,260.305051707
179.447,260.243552263
179.462,260.181858944
179.477,260.119970764
179.492,260.05788673
179.507,259.995605836
179.522,259.933127068
179.537,259.870449396
179.552,259.807571787
179.567,259.744493189
179.582,259.681212543
179.597,259.617728777
179.612,259.554040809
179.627,259.490147541
179.642,259.426047866
179.657,259.361740663
179.672,259.297224798
179.687,259.232499126
179.702,259.167562485
179.717,259.102413702
179.732,259.03705159
179.747,258.971474946
179.762,258.905682554
179.777,258.839673182
179.792,258.773445586
179.807,258.706998501
179.822,258.640330652
179.837,258.573440744
179.852,258.506327467
179.867,258.438989495
179.882,258.371425483
179.897,258.30363407
179.91,258.244696503
179.912,258.235613875
179.927,258.167363502
179.942,258.098881534
179.957,258.030166535
179.972,257.961217051
179.987,257.892031607
180.002,257.822608708
180.017,257.752946837
180.032,257.683044458
180.047,257.612900013
180.062,257.542511919
180.077,257.471878574
180.092,257.400998351
180.107,257.329869601
180.122,257.258490647
180.137,257.186859793
180.152,257.114975314
180.167,257.042835461
180.182,256.970438456
180.197,256.897782499
180.212,256.824865758
180.227,256.751686376
180.242,256.678242466
180.257,256.604532113
180.272,256.530553371
180.287,256.456304265
180.302,256.381782788
180.317,256.306986901
180.332,256.231914534
180.347,256.156563584
180.362,256.080931913
180.377,256.00501735
180.392,255.928817688
180.407,255.852330686
180.422,255.775554064
180.437,255.698485508
180.452,255.621122664
180.467,255.543463141
180.482,255.465504506
180.497,255.387244289
180.512,255.308679979
180.527,255.229809022
180.542,255.150628822
180.557,255.071136741
180.56,255.055200664
180.572,254.991330097
180.587,254.911206163
180.602,254.830762167
180.617,254.749995292
180.632,254.668902671
180.647,254.587481394
180.66,254.516648153
180.662,254.5057285
180.677,254.423640978
180.692,254.34121577
180.707,254.258449766
180.722,254.175339805
180.737,254.091882672
180.752,254.008075104
180.767,253.923913781
180.782,253.839395329
180.797,253.754516321
180.812,253.669273272
180.827,253.583662646
180.842,253.497680843
180.857,253.411324212
180.872,253.324589042
180.887,253.237471563
180.902,253.149967947
180.917,253.062074305
180.932,252.973786691
180.947,252.885101096
180.962,252.796013452
180.977,252.706519629
180.992,252.616615436
181.007,252.52629662
181.022,252.435558866
181.037,252.344397798
181.052,252.252808977
181.067,252.160787901
181.082,252.068330008
181.097,251.975430669
181.112,251.882085198
181.127,251.788288844
181.142,251.694036793
181.157,251.599324172
181.172,251.504146046
181.187,251.408497415
181.202,251.312373225
181.217,251.215768357
181.232,251.118677634
181.247,251.021095819
181.262,250.92301762
181.277,250.824437686
181.292,250.725350607
181.307,250.625750923
181.31,250.605768989
181.322,250.525633116
181.337,250.424991616
181.352,250.323820801
181.367,250.222114999
181.382,250.119868489
181.397,250.017075502
181.412,249.913730223
181.427,249.809826794
181.442,249.705359315
181.457,249.600321843
181.472,249.4947084
181.487,249.38851297
181.502,249.281729503
181.517,249.174351919
181.532,249.066374107
181.547,248.957789931
181.562,248.84859323
181.577,248.738777822
181.592,248.628337509
181.607,248.517266074
181.622,248.405557291
181.637,248.293204925
181.652,248.180202734
181.667,248.066544476
181.682,247.952223909
181.697,247.837234798
181.712,247.721570917
181.727,247.605226052
181.742,247.488194009
181.757,247.370468615
181.772,247.252043724
181.787,247.132913219
181.802,247.013071022
181.817,246.892511094
181.832,246.771227443
181.847,246.64921413
181.862,246.52646527
181.877,246.402975044
181.892,246.278737701
181.907,246.153747565
181.922,246.027999044
181.937,245.901486633
181.952,245.774204925
181.967,245.646148616
181.982,245.517312512
181.997,245.387691543
182.012,245.257280764
182.027,245.12607537
182.042,244.994070701
182.057,244.861262259
182.06,244.834603733
182.072,244.727645708
182.087,244.593216898
182.102,244.457971864
182.117,244.321906851
182.132,244.185018316
182.147,244.047302951
182.162,243.908757693
182.177,243.76937974
182.192,243.629166572
182.207,243.488115963
182.222,243.346226004
182.237,243.203495125
182.252,243.059922109
182.267,242.915506126
182.282,242.770246747
182.297,242.624143978
182.312,242.477198283
182.327,242.329410619
182.342,242.180782463
182.357,242.031315846
182.372,241.881013397
182.387,241.729878372
182.402,241.577914703
182.417,241.425127037
182.432,241.271520789
182.447,241.117102188
182.462,240.961878333
182.477,240.805857253
182.492,240.649047963
182.507,240.491460535
182.522,240.333106163
182.537,240.17399724
182.552,240.014147436
182.567,239.85357178
182.582,239.692286748
182.597,239.530310354
182.612,239.367662248
182.627,239.204363818
182.642,239.040438293
182.657,238.875910852
182.672,238.710808735
182.687,238.54516136
182.702,238.379000429
182.717,238.212360051
182.732,238.04527684
182.747,237.877790028
182.762,237.709941551
182.777,237.541776131
182.792,237.373341335
182.807,237.204687603
182.822,237.035868247
182.837,236.866939401
182.852,236.697959908
182.867,236.528991139
182.882,236.360096713
182.897,236.191342105
182.912,236.022794112
182.927,235.85452015
182.942,235.686587345
182.957,235.519061387
182.972,235.352005114
182.987,235.185476797
183.002,235.019528115
183.017,234.85420187
183.032,234.689529536
183.047,234.525528945
183.062,234.36220267
183.077,234.199538264
183.092,234.037512569
183.107,233.876104364
183.122,233.715323574
183.137,233.555273047
183.152,233.396274655
183.167,233.239124086
183.182,233.085608354
183.197,232.939573536
183.212,232.809177735
183.227,232.71175924
183.242,232.684490957
183.257,232.806898039
183.367,232.746155046
183.382,232.668933562
183.397,232.715477838
183.412,232.82006484
183.427,232.95205461
183.442,233.097113016
183.457,233.248477192
183.472,233.402958932
183.487,233.559083686
183.502,233.716202726
183.517,233.874060537
183.532,234.032581126
183.547,234.191762255
183.562,234.351623851
183.577,234.512183942
183.592,234.673448568
183.607,234.835408719
183.622,234.99804066
183.637,235.161307759
183.652,235.325162844
183.667,235.489550605
183.682,235.654409806
183.697,235.819675215
183.712,235.985279233
183.727,236.151153233
183.742,236.317228635
183.757,236.483437753
183.772,236.64971445
183.787,236.815994629
183.802,236.982216593
183.817,237.148321288
183.832,237.314252473
183.847,237.479956801
183.862,237.645383862
183.877,237.810486167
183.892,237.975219114
183.907,238.139540915
183.922,238.303412512
183.937,238.466797482
183.952,238.629661925
183.967,238.791974354
183.982,238.953705577
183.997,239.114828586
184.012,239.275318436
184.027,239.435152135
184.042,239.594308534
184.057,239.75276822
184.072,239.910513417
184.087,240.067527883
184.102,240.223796822
184.117,240.379306796
184.132,240.534045638
184.147,240.688002376
184.162,240.841167158
184.177,240.993531181
184.192,241.145086627
184.207,241.295826603
184.222,241.445745075
184.237,241.594836824
184.252,241.743097388
184.267,241.890523016
184.282,242.037110626
184.297,242.18285776
184.312,242.327762544
184.327,242.471823654
184.342,242.615040283
184.357,242.757412103
184.372,242.898939241
184.387,243.039622247
184.402,243.17946207
184.417,243.318460032
184.432,243.456617804
184.447,243.593937386
184.462,243.730421086
184.477,243.8660715
184.492,244.000891495
184.507,244.134884192
184.522,244.26805295
184.537,244.400401351
184.552,244.531933184
184.56,244.601750979
184.567,244.662652436
184.582,244.792563276
184.597,244.921670045
184.612,245.049977242
184.627,245.177489517
184.642,245.30421166
184.657,245.430148589
184.672,245.555305346
184.687,245.679687083
184.702,245.803299057
184.717,245.926146623
184.732,246.048235223
184.747,246.169570383
184.762,246.290157705
184.777,246.41000286
184.792,246.529111582
184.807,246.647489662
184.822,246.765142944
184.837,246.882077317
184.852,246.998298714
184.867,247.113813103
184.882,247.228626482
184.897,247.34274488
184.912,247.456174347
184.927,247.568920951
184.942,247.680990775
184.957,247.792389915
184.972,247.903124471
184.987,248.01320055
185.002,248.122624255
185.017,248.23140169
185.032,248.339538949
185.047,248.447042118
185.062,248.553917272
185.077,248.660170467
185.092,248.765807745
185.107,248.870835125
185.122,248.975258603
185.137,249.07908415
185.152,249.182317709
185.167,249.284965191
185.182,249.387032478
185.197,249.488525416
185.212,249.589449815
185.227,249.689811446
185.242,249.789616041
185.257,249.888869291
185.272,249.987576845
185.287,250.085744304
185.302,250.183377227
185.31,250.235231458
185.317,250.280481124
185.332,250.377061456
185.347,250.473123635
185.362,250.568673023
185.377,250.66371493
185.392,250.758254613
185.407,250.852297277
185.422,250.945848071
185.437,251.038912089
185.452,251.131494373
185.467,251.223599904
185.482,251.315233609
185.497,251.406400359
185.512,251.497104966
185.527,251.587352184
185.542,251.67714671
185.557,251.766493183
185.572,251.855396182
185.587,251.94386023
185.602,252.03188979
185.617,252.119489266
185.632,252.206663006
185.647,252.293415296
185.662,252.379750366
185.677,252.465672389
185.692,252.551185478
185.707,252.63629369
185.722,252.721001024
185.737,252.805311421
185.752,252.889228768
185.767,252.972756893
185.782,253.05589957
185.797,253.138660517
185.812,253.221043396
185.827,253.303051818
185.842,253.384689335
185.857,253.46595945
185.872,253.54686561
185.887,253.627411213
185.902,253.707599602
185.917,253.78743407
185.932,253.866917861
185.947,253.946054166
185.96,254.014360319
185.962,254.024846131
185.977,254.103296848
185.992,254.181409366
186.007,254.259186684
186.022,254.336631755
186.037,254.413747485
186.052,254.490536737
186.06,254.531358485
186.067,254.567002327
186.082,254.643147028
186.097,254.71897357
186.112,254.79448464
186.127,254.869682882
186.142,254.944570901
186.157,255.019151261
186.172,255.093426484
186.187,255.167399054
186.202,255.241071417
186.217,255.314445981
186.232,255.387525116
186.247,255.460311157
186.262,255.5328064
186.277,255.605013109
186.292,255.676933511
186.307,255.748569801
186.322,255.819924139
186.337,255.890998653
186.352,255.96179544
186.367,256.032316563
186.382,256.102564055
186.397,256.17253992
186.412,256.24224613
186.427,256.311684631
186.442,256.380857337
186.457,256.449766134
186.472,256.518412885
186.487,256.58679942
186.502,256.654927547
186.517,256.722799046
186.532,256.790415672
186.547,256.857779155
186.562,256.924891202
186.577,256.991753494
186.592,257.058367689
186.607,257.124735422
186.622,257.190858308
186.637,257.256737936
186.652,257.322375876
186.667,257.387773676
186.682,257.452932864
186.697,257.517854945
186.71,257.573930107
186.712,257.582541409
186.727,257.646993721
186.742,257.71121333
186.757,257.775201667
186.772,257.838960141
186.787,257.902490148
186.802,257.965793061
186.817,258.02887024
186.832,258.091723026
186.847,258.154352744
186.862,258.216760701
186.877,258.278948191
186.892,258.34091649
186.907,258.402666861
186.922,258.464200548
186.937,258.525518786
186.952,258.586622789
186.967,258.647513762
186.982,258.708192895
186.997,258.768661362
187.012,258.828920325
187.027,258.888970933
187.042,258.948814324
187.057,259.008451621
187.072,259.067883934
187.087,259.127112364
187.102,259.186137997
187.117,259.244961909
187.132,259.303585164
187.147,259.362008814
187.162,259.420233902
187.177,259.478261457
187.192,259.536092501
187.207,259.593728044
187.222,259.651169084
187.237,259.708416612
187.252,259.765471606
187.267,259.822335036
187.282,259.879007862
187.297,259.935491037
187.312,259.9917855
187.327,260.047892184
187.342,260.103812014
187.357,260.159545904
187.372,260.21509476
187.387,260.270459479
187.402,260.325640953
187.417,260.38064006
187.432,260.435457676
187.447,260.490094665
187.46,260.537301278
187.462,260.544551884
187.477,260.598830184
187.492,260.652930408
187.507,260.706853388
187.522,260.760599955
187.537,260.814170927
187.552,260.867567117
187.567,260.920789334
187.582,260.973838376
187.597,261.026715036
187.612,261.0794201
187.627,261.131954347
187.642,261.184318552
187.657,261.236513481
187.672,261.288539894
187.687,261.340398547
187.702,261.392090186
187.717,261.443615556
187.732,261.494975392
187.747,261.546170424
187.762,261.597201378
187.777,261.648068974
187.792,261.698773926
187.807,261.74931694
187.822,261.799698721
187.837,261.849919966
187.852,261.899981367
187.867,261.949883611
187.882,261.999627381
187.897,262.049213353
187.912,262.0986422
187.927,262.147914588
187.942,262.197031179
187.957,262.245992632
187.972,262.294799598
187.987,262.343452727
188.002,262.39195266
188.017,262.440300037
188.032,262.488495494
188.047,262.536539658
188.062,262.584433158
188.077,262.632176611
188.092,262.679770637
188.107,262.72721585
188.122,262.774512855
188.137,262.821662259
188.152,262.868664662
188.167,262.91552066
188.182,262.962230846
188.197,263.008795808
188.21,263.04903509
188.212,263.055216131
188.227,263.101492395
188.242,263.147625179
188.257,263.193615055
188.272,263.239462593
188.287,263.285168358
188.302,263.330732913
188.317,263.376156818
188.332,263.421440626
188.347,263.466584891
188.362,263.511590159
188.377,263.556456976
188.392,263.601185885
188.407,263.645777421
188.422,263.690232121
188.437,263.734550516
188.452,263.778733135
188.467,263.822780501
188.482,263.866693139
188.497,263.910471565
188.512,263.954116296
188.527,263.997627844
188.542,264.04100672
188.557,264.084253429
188.572,264.127368475
188.587,264.17035236
188.602,264.213205579
188.617,264.25592863
188.632,264.298522003
188.647,264.340986187
188.66,264.377684356
188.662,264.383321669
188.677,264.425528932
188.692,264.467608458
188.707,264.509560724
188.722,264.551386206
188.737,264.593085376
