# 10410 EDZE Essen Observations at 12Z 02 May 2019
Frequency [GHz],TB
175.31,267.190969871
175.322,267.186874119
175.337,267.181573607
175.352,267.176071677
175.367,267.17036779
175.382,267.164461413
175.397,267.158352016
175.412,267.152039072
175.427,267.145522063
175.442,267.138800475
175.457,267.131873803
175.472,267.124741538
175.487,267.117403184
175.502,267.109858252
175.517,267.102106252
175.532,267.094146706
175.547,267.08597914
175.562,267.077603082
175.577,267.069018071
175.592,267.060223649
175.607,267.051219366
175.622,267.042004773
175.637,267.032579434
175.652,267.022942923
175.667,267.013094807
175.682,267.003034661
175.697,266.992762081
175.712,266.982276657
175.727,266.971577985
175.742,266.96066568
175.757,266.949539345
175.772,266.938198604
175.787,266.926643087
175.802,266.914872423
175.817,266.902886251
175.832,266.890684221
175.847,266.878265989
175.862,266.865631211
175.877,266.852779562
175.892,266.839710716
175.907,266.826424355
175.922,266.812920164
175.937,266.799197847
175.952,266.78525711
175.967,266.771097663
175.982,266.756719225
175.997,266.742121527
176.012,266.727304304
176.027,266.712267292
176.042,266.697010251
176.057,266.681532937
176.072,266.665835115
176.087,266.649916556
176.102,266.633777047
176.117,266.617416375
176.132,266.600834341
176.147,266.584030745
176.162,266.567005407
176.177,266.549758146
176.192,266.532288792
176.207,266.514597185
176.222,266.496683169
176.237,266.478546603
176.252,266.460187346
176.267,266.441605264
176.282,266.422800249
176.297,266.403772179
176.31,266.38710068
176.312,266.38452095
176.327,266.365046478
176.342,266.34534866
176.357,266.325427429
176.372,266.305282707
176.387,266.284914436
176.402,266.264322567
176.417,266.24350704
176.432,266.222467834
176.447,266.201204915
176.46,266.182596075
176.462,266.17971826
176.477,266.158007859
176.492,266.136073719
176.507,266.113915832
176.522,266.091534222
176.537,266.068928906
176.552,266.046099914
176.567,266.023047292
176.582,265.999771085
176.597,265.976271351
176.612,265.952548154
176.627,265.928601561
176.642,265.904431665
176.657,265.880038549
176.672,265.855422319
176.687,265.830583073
176.702,265.805520931
176.717,265.780236013
176.732,265.754728457
176.747,265.728998399
176.762,265.703045986
176.777,265.676871377
176.792,265.650474737
176.807,265.623856234
176.822,265.597016057
176.837,265.569954387
176.852,265.54267142
176.867,265.515167369
176.882,265.487442436
176.897,265.459496848
176.912,265.431330833
176.927,265.402944625
176.942,265.374338462
176.957,265.345512601
176.972,265.3164673
176.987,265.287202822
177.002,265.257719437
177.017,265.228017431
177.032,265.198097089
177.047,265.167958712
177.062,265.137602587
177.077,265.107029033
177.092,265.076238363
177.107,265.045230897
177.122,265.014006967
177.137,264.982566909
177.152,264.950911059
177.167,264.919039771
177.182,264.886953395
177.197,264.854652298
177.21,264.826484607
177.212,264.822136841
177.227,264.789407399
177.242,264.756464351
177.257,264.723308077
177.272,264.689938977
177.287,264.65635744
177.302,264.622563864
177.31,264.604454068
177.317,264.58855866
177.332,264.554342246
177.347,264.519915028
177.362,264.485277431
177.377,264.450429877
177.392,264.415372808
177.407,264.380106652
177.422,264.34463185
177.437,264.308948847
177.452,264.273058094
177.467,264.236960034
177.482,264.20065514
177.497,264.164143856
177.512,264.127426654
177.527,264.090503999
177.542,264.053376358
177.557,264.016044211
177.572,263.978508029
177.587,263.940768297
177.602,263.90282549
177.617,263.864680099
177.632,263.826332607
177.647,263.787783498
177.66,263.754211577
177.662,263.749033277
177.677,263.710082422
177.692,263.670931436
177.707,263.631580819
177.722,263.592031058
177.737,263.552282655
177.752,263.512336113
177.767,263.472191933
177.782,263.431850613
177.797,263.391312656
177.812,263.350578567
177.827,263.309648844
177.842,263.268523991
177.857,263.227204515
177.872,263.185690911
177.887,263.143983689
177.902,263.10208334
177.917,263.059990375
177.932,263.017705288
177.947,262.975228575
177.96,262.938260806
177.962,262.932560735
177.977,262.889702265
177.992,262.846653654
178.007,262.803415401
178.022,262.75998799
178.037,262.716371908
178.052,262.67256764
178.067,262.628575674
178.082,262.584396488
178.097,262.540030552
178.112,262.495478351
178.127,262.45074035
178.142,262.405817017
178.157,262.360708816
178.172,262.315416207
178.187,262.269939648
178.202,262.22427959
178.217,262.178436478
178.232,262.132410769
178.247,262.086202885
178.262,262.039813268
178.277,261.993242353
178.292,261.946490561
178.307,261.899558309
178.322,261.852446011
178.337,261.805154087
178.352,261.757682929
178.367,261.710032941
178.382,261.662204514
178.397,261.614198032
178.41,261.572448683
178.412,261.566013876
178.427,261.517652425
178.442,261.46911404
178.457,261.420399085
178.472,261.371507913
178.487,261.322440873
178.502,261.27319831
178.517,261.223780552
178.532,261.174187923
178.547,261.124420747
178.562,261.074479337
178.577,261.024364001
178.592,260.974075028
178.607,260.923612712
178.622,260.872977333
178.637,260.822169166
178.652,260.771188478
178.667,260.720035524
178.682,260.668710556
178.697,260.617213818
178.712,260.565545539
178.727,260.513705944
178.742,260.461695253
178.757,260.409513673
178.772,260.3571614
178.787,260.304638624
178.802,260.251945532
178.817,260.199082291
178.832,260.146049074
178.847,260.092846027
178.862,260.039473298
178.877,259.985931029
178.892,259.932219343
178.907,259.878338361
178.922,259.82428819
178.937,259.770068935
178.952,259.715680682
178.967,259.661123515
178.982,259.60639751
178.997,259.551502722
179.012,259.496439207
179.027,259.441207015
179.042,259.385806178
179.057,259.330236714
179.072,259.274498646
179.087,259.218591975
179.102,259.162516705
179.117,259.106272813
179.132,259.049860281
179.147,258.993279077
179.16,258.944105564
179.162,258.936529156
179.177,258.879610465
179.192,258.822522947
179.207,258.765266526
179.222,258.707841124
179.237,258.65024665
179.252,258.592482997
179.267,258.534550064
179.282,258.476447723
179.297,258.418175845
179.312,258.359734295
179.327,258.301122918
179.342,258.242341559
179.357,258.183390046
179.372,258.1242682
179.387,258.064975829
179.402,258.005512741
179.417,257.945878722
179.432,257.886073553
179.447,257.826097012
179.462,257.765948855
179.477,257.705628831
179.492,257.64513669
179.507,257.584472158
179.522,257.523634962
179.537,257.462624804
179.552,257.401441396
179.567,257.34008442
179.582,257.27855357
179.597,257.216848509
179.612,257.154968902
179.627,257.092914394
179.642,257.030684638
179.657,256.968279253
179.672,256.905697864
179.687,256.842940085
179.702,256.780005515
179.717,256.71689374
179.732,256.653604342
179.747,256.590136887
179.762,256.526490934
179.777,256.462666033
179.792,256.398661717
179.807,256.334477515
179.822,256.270112942
179.837,256.205567501
179.852,256.140840687
179.867,256.075931981
179.882,256.010840856
179.897,255.945566769
179.91,255.888847474
179.912,255.880109169
179.927,255.814467495
179.942,255.748641172
179.957,255.68262962
179.972,255.616432229
179.987,255.550048401
180.002,255.483477507
180.017,255.416718921
180.032,255.349771994
180.047,255.282636068
180.062,255.215310471
180.077,255.14779453
180.092,255.080087538
180.107,255.012188792
180.122,254.944097576
180.137,254.875813149
180.152,254.807334767
180.167,254.738661676
180.182,254.669793092
180.197,254.600728238
180.212,254.531466307
180.227,254.462006483
180.242,254.392347945
180.257,254.322489849
180.272,254.252431332
180.287,254.182171528
180.302,254.11170955
180.317,254.041044496
180.332,253.97017546
180.347,253.899101499
180.362,253.827821675
180.377,253.756335035
180.392,253.684640587
180.407,253.61273735
180.422,253.540624318
180.437,253.468300468
180.452,253.395764759
180.467,253.323016139
180.482,253.250053539
180.497,253.176875877
180.512,253.103482042
180.527,253.02987092
180.542,252.956041378
180.557,252.881992262
180.56,252.86715599
180.572,252.80772241
180.587,252.733230629
180.602,252.658515725
180.617,252.583576485
180.632,252.508411666
180.647,252.43302002
180.66,252.367496145
180.662,252.357400291
180.677,252.281551179
180.692,252.2054714
180.707,252.129159628
180.722,252.052614536
180.737,251.975834775
180.752,251.898818979
180.767,251.821565771
180.782,251.744073754
180.797,251.666341519
180.812,251.588367637
180.827,251.510150666
180.842,251.431689153
180.857,251.352981623
180.872,251.274026596
180.887,251.194822571
180.902,251.115368037
180.917,251.035661469
180.932,250.95570133
180.947,250.875486072
180.962,250.795014127
180.977,250.714283934
180.992,250.633293903
181.007,250.552042448
181.022,250.470527971
181.037,250.388748858
181.052,250.306703495
181.067,250.224390261
181.082,250.141807529
181.097,250.058953667
181.112,249.975827038
181.127,249.89242601
181.142,249.808748937
181.157,249.724794181
181.172,249.640560111
181.187,249.556045088
181.202,249.471247485
181.217,249.386165666
181.232,249.300798023
181.247,249.215142946
181.262,249.129198834
181.277,249.042964104
181.292,248.956437183
181.307,248.869616517
181.31,248.852217
181.322,248.782500571
181.337,248.695087828
181.352,248.607376803
181.367,248.519366022
181.382,248.431054052
181.397,248.342439493
181.412,248.253520965
181.427,248.164297142
181.442,248.074766723
181.457,247.984928464
181.472,247.894781157
181.487,247.804323653
181.502,247.713554853
181.517,247.622473719
181.532,247.531079271
181.547,247.439370605
181.562,247.347346878
181.577,247.255007331
181.592,247.162351281
181.607,247.069378137
181.622,246.976087393
181.637,246.88247864
181.652,246.788551582
181.667,246.694306019
181.682,246.599741879
181.697,246.5048592
181.712,246.409658156
181.727,246.314139053
181.742,246.21830235
181.757,246.122148652
181.772,246.025678714
181.787,245.928893471
181.802,245.83179403
181.817,245.73438169
181.832,245.636657931
181.847,245.538624459
181.862,245.440283166
181.877,245.341636205
181.892,245.242685933
181.907,245.143434982
181.922,245.043886221
181.937,244.944042807
181.952,244.843908177
181.967,244.743486065
181.982,244.642780518
181.997,244.541795906
182.012,244.44053693
182.027,244.339008669
182.042,244.237216545
182.057,244.135166382
182.06,244.114725922
182.072,244.032864395
182.087,243.930317223
182.102,243.827531938
182.117,243.724516062
182.132,243.621277584
182.147,243.517824986
182.162,243.41416725
182.177,243.310313883
182.192,243.20627494
182.207,243.102061023
182.222,242.997683334
182.237,242.893153662
182.252,242.788484419
182.267,242.683688658
182.282,242.578780081
182.297,242.473773074
182.312,242.368682719
182.327,242.263524804
182.342,242.158315853
182.357,242.053073131
182.372,241.947814673
182.387,241.842559276
182.402,241.737326541
182.417,241.632136862
182.432,241.527011451
182.447,241.421972316
182.462,241.317042312
182.477,241.2122451
182.492,241.107605162
182.507,241.003147802
182.522,240.898899104
182.537,240.794885959
182.552,240.691136017
182.567,240.587677637
182.582,240.484539898
182.597,240.381752508
182.612,240.279345765
182.627,240.177350493
182.642,240.07579793
182.657,239.974719664
182.672,239.874147497
182.687,239.774113299
182.702,239.674648865
182.717,239.575785706
182.732,239.477554845
182.747,239.379986546
182.762,239.283110024
182.777,239.186953094
182.792,239.09154176
182.807,238.996899742
182.822,238.90304793
182.837,238.810003739
182.852,238.717780335
182.867,238.62638578
182.882,238.535821953
182.897,238.446083339
182.912,238.357155555
182.927,238.269013625
182.942,238.181619888
182.957,238.094921525
182.972,238.008847556
182.987,237.923305252
183.002,237.838175714
183.017,237.753308586
183.032,237.668515536
183.047,237.583562368
183.062,237.498159354
183.077,237.411949626
183.092,237.324495145
183.107,237.235260362
183.122,237.143593814
183.137,237.048709081
183.152,236.9496688
183.167,236.845380045
183.182,236.734618897
183.197,236.616120486
183.212,236.488805687
183.227,236.352275302
183.242,236.20778339
183.257,236.059932008
183.367,236.08484065
183.382,236.229394773
183.397,236.369023885
183.412,236.500170157
183.427,236.622119792
183.442,236.735507765
183.457,236.841489616
183.472,236.941331424
183.487,237.036226942
183.502,237.127228919
183.517,237.215234288
183.532,237.300992731
183.547,237.385123914
183.562,237.468136541
183.577,237.550446278
183.592,237.632391496
183.607,237.714246623
183.622,237.796233229
183.637,237.878529213
183.652,237.961276294
183.667,238.044586192
183.682,238.128545676
183.697,238.213220749
183.712,238.298660066
183.727,238.384897807
183.742,238.471956032
183.757,238.559846672
183.772,238.648573189
183.787,238.73813197
183.802,238.828513521
183.817,238.919703443
183.832,239.011683323
183.847,239.104431424
183.862,239.197923322
183.877,239.29213243
183.892,239.387030466
183.907,239.482587823
183.922,239.578773933
183.937,239.675557516
183.952,239.772906866
183.967,239.870790052
183.982,239.969175086
183.997,240.068030088
184.012,240.167323432
184.027,240.267023834
184.042,240.367100474
184.057,240.467523053
184.072,240.568261878
184.087,240.669287905
184.102,240.770572796
184.117,240.872088942
184.132,240.973809496
184.147,241.07570841
184.162,241.177760429
184.177,241.279941106
184.192,241.382226814
184.207,241.484594753
184.222,241.587022933
184.237,241.689490181
184.252,241.791976128
184.267,241.894461196
184.282,241.996926603
184.297,242.099354332
184.312,242.201727121
184.327,242.304028455
184.342,242.406242542
184.357,242.508354298
184.372,242.610349326
184.387,242.712213903
184.402,242.813934961
184.417,242.915500062
184.432,243.016897378
184.447,243.118115696
184.462,243.219144354
184.477,243.319973266
184.492,243.42059288
184.507,243.520994163
184.522,243.621168579
184.537,243.721108086
184.552,243.820805097
184.56,243.873875206
184.567,243.920252488
184.582,244.019443554
184.597,244.118372003
184.612,244.217031957
184.627,244.315417907
184.642,244.413524717
184.657,244.511347595
184.672,244.608882107
184.687,244.706124124
184.702,244.803069828
184.717,244.899715705
184.732,244.996058521
184.747,245.092095317
184.762,245.187823384
184.777,245.283240275
184.792,245.378343763
184.807,245.473131859
184.822,245.56760278
184.837,245.661754961
184.852,245.755587019
184.867,245.849097757
184.882,245.942286169
184.897,246.035151405
184.912,246.127692774
184.927,246.219909748
184.942,246.311801929
184.957,246.403369074
184.972,246.49461105
184.987,246.585527861
185.002,246.676119623
185.017,246.766386558
185.032,246.856329003
185.047,246.945947385
185.062,247.035242223
185.077,247.124214127
185.092,247.212863798
185.107,247.301191995
185.122,247.389199568
185.137,247.476887428
185.152,247.56425655
185.167,247.651307975
185.182,247.738042793
185.197,247.824462151
185.212,247.91056724
185.227,247.996359305
185.242,248.081839633
185.257,248.16700954
185.272,248.25187039
185.287,248.336423575
185.302,248.420670514
185.31,248.465477499
185.317,248.504612666
185.332,248.588251499
185.347,248.671588525
185.362,248.754625256
185.377,248.83736324
185.392,248.919804031
185.407,249.001949206
185.422,249.083800352
185.437,249.165359056
185.452,249.24662694
185.467,249.327605609
185.482,249.408296691
185.497,249.488701811
185.512,249.568822605
185.527,249.648660699
185.542,249.728217729
185.557,249.807495338
185.572,249.886495153
185.587,249.965218808
185.602,250.043667931
185.617,250.121844158
185.632,250.199749089
185.647,250.277384363
185.662,250.354751568
185.677,250.431852313
185.692,250.508688198
185.707,250.585260801
185.722,250.661571696
185.737,250.737622455
185.752,250.813414636
185.767,250.888949779
185.782,250.964229421
185.797,251.039255082
185.812,251.114028283
185.827,251.18855051
185.842,251.262823257
185.857,251.336847995
185.872,251.410626183
185.887,251.484159274
185.902,251.557448689
185.917,251.630495857
185.932,251.703302187
185.947,251.775869057
185.96,251.83856772
185.962,251.848197853
185.977,251.920289932
185.992,251.992146644
186.007,252.063769323
186.022,252.135159281
186.037,252.206317827
186.052,252.277246252
186.06,252.314981087
186.067,252.347945824
186.082,252.4184178
186.097,252.48866343
186.112,252.55868394
186.127,252.628480541
186.142,252.698054438
186.157,252.767406809
186.172,252.836538834
186.187,252.905451656
186.202,252.974146424
186.217,253.042624258
186.232,253.110886277
186.247,253.17893357
186.262,253.246767227
186.277,253.314388313
186.292,253.381797883
186.307,253.44899698
186.322,253.515986631
186.337,253.582767845
186.352,253.649341627
186.367,253.715708964
186.382,253.781870824
186.397,253.847828171
186.412,253.913581954
186.427,253.979133097
186.442,254.044482533
186.457,254.109631165
186.472,254.174579895
186.487,254.2393296
186.502,254.30388115
186.517,254.368235407
186.532,254.432393226
186.547,254.496355436
186.562,254.560122864
186.577,254.62369632
186.592,254.687076608
186.607,254.750264517
186.622,254.813260826
186.637,254.876066307
186.652,254.938681708
186.667,255.001107788
186.682,255.063345277
186.697,255.125394899
186.71,255.179019834
186.712,255.187257375
186.727,255.248933409
186.742,255.310423693
186.757,255.371728915
186.772,255.432849751
186.787,255.493786869
186.802,255.554540926
186.817,255.615112566
186.832,255.675502428
186.847,255.735711145
186.862,255.795739329
186.877,255.8555876
186.892,255.915256549
186.907,255.97474678
186.922,256.034058875
186.937,256.093193401
186.952,256.152150939
186.967,256.210932043
186.982,256.26953726
186.997,256.327967139
187.012,256.386222209
187.027,256.444303001
187.042,256.502210032
187.057,256.559943811
187.072,256.617504847
187.087,256.674893628
187.102,256.732110644
187.117,256.789156379
187.132,256.846031305
187.147,256.902735883
187.162,256.95927057
187.177,257.015635827
187.192,257.071832086
187.207,257.127859787
187.222,257.183719362
187.237,257.239411233
187.252,257.29493581
187.267,257.350293503
187.282,257.405484718
187.297,257.46050984
187.312,257.515369263
187.327,257.570063367
187.342,257.624592528
187.357,257.678957113
187.372,257.733157475
187.387,257.787193972
187.402,257.841066958
187.417,257.894776769
187.432,257.948323737
187.447,258.001708196
187.46,258.047843517
187.462,258.054930464
187.477,258.107990858
187.492,258.160889685
187.507,258.213627249
187.522,258.266203849
187.537,258.31861977
187.552,258.370875305
187.567,258.422970719
187.582,258.474906295
187.597,258.526682292
187.612,258.578298976
187.627,258.629756596
187.642,258.681055405
187.657,258.732195637
187.672,258.783177531
187.687,258.834001319
187.702,258.884667229
187.717,258.935175472
187.732,258.985526264
187.747,259.035719808
187.762,259.085756314
187.777,259.135635969
187.792,259.185358961
187.807,259.234925489
187.822,259.284335713
187.837,259.333589822
187.852,259.382687972
187.867,259.431630333
187.882,259.480417057
187.897,259.529048296
187.912,259.577524199
187.927,259.625844905
187.942,259.674010549
187.957,259.722021263
187.972,259.769877175
187.987,259.817578396
188.002,259.865125047
188.017,259.912517237
188.032,259.959755078
188.047,260.006838653
188.062,260.053768075
188.077,260.100543426
188.092,260.147164792
188.107,260.193632259
188.122,260.239945897
188.137,260.286105782
188.152,260.332111976
188.167,260.377964543
188.182,260.423663544
188.197,260.469209032
188.21,260.508557648
188.212,260.514601054
188.227,260.559839658
188.242,260.604924885
188.257,260.649856767
188.272,260.694635339
188.287,260.739260636
188.302,260.783732674
188.317,260.828051476
188.332,260.872217062
188.347,260.916229443
188.362,260.96008863
188.377,261.003794628
188.392,261.047347435
188.407,261.090747053
188.422,261.133993486
188.437,261.177086715
188.452,261.220026732
188.467,261.262813517
188.482,261.305447061
188.497,261.347927342
188.512,261.390254337
188.527,261.432428015
188.542,261.474448353
188.557,261.516315312
188.572,261.558028865
188.587,261.599588967
188.602,261.640995581
188.617,261.682248673
188.632,261.723348187
188.647,261.76429408
188.66,261.799656228
188.662,261.805086309
188.677,261.845724815
188.692,261.886209551
188.707,261.926540458
188.722,261.96671748
188.737,262.006740563
