# 01004 ENAS Ny-Alesund Ii Observations at 12Z 29 Jun 2019
Frequency [GHz],TB
175.31,258.100340357
175.322,258.132225001
175.337,258.17193076
175.352,258.211468304
175.367,258.250836009
175.382,258.290032254
175.397,258.329055413
175.412,258.367903852
175.427,258.406575938
175.442,258.445070024
175.457,258.483384468
175.472,258.521517615
175.487,258.559467815
175.502,258.597233402
175.517,258.634812713
175.532,258.672204082
175.547,258.709405836
175.562,258.7464163
175.577,258.783233788
175.592,258.81985662
175.607,258.856283108
175.622,258.892511558
175.637,258.928540277
175.652,258.964367564
175.667,258.999991721
175.682,259.035411041
175.697,259.070623817
175.712,259.105628335
175.727,259.140422884
175.742,259.175005746
175.757,259.209375204
175.772,259.243529536
175.787,259.277467017
175.802,259.311185924
175.817,259.344684527
175.832,259.377961095
175.847,259.411013899
175.862,259.443841204
175.877,259.476441276
175.892,259.508812379
175.907,259.540952775
175.922,259.572860729
175.937,259.604534498
175.952,259.635972344
175.967,259.667172527
175.982,259.698133304
175.997,259.728852935
176.012,259.759329681
176.027,259.789561798
176.042,259.819547545
176.057,259.849285186
176.072,259.878772975
176.087,259.908009176
176.102,259.936992049
176.117,259.96571986
176.132,259.994190872
176.147,260.022403348
176.162,260.050355558
176.177,260.078045772
176.192,260.105472258
176.207,260.132633291
176.222,260.159527151
176.237,260.186152108
176.252,260.21250645
176.267,260.238588458
176.282,260.264396423
176.297,260.289928634
176.31,260.311832175
176.312,260.315183383
176.327,260.340158972
176.342,260.364853703
176.357,260.389265884
176.372,260.413393823
176.387,260.437235842
176.402,260.460790255
176.417,260.484055395
176.432,260.507029585
176.447,260.529711174
176.46,260.54913058
176.462,260.552098495
176.477,260.574189902
176.492,260.595983752
176.507,260.617478404
176.522,260.638672229
176.537,260.659563604
176.552,260.680150908
176.567,260.700432536
176.582,260.720406887
176.597,260.740072363
176.612,260.759427386
176.627,260.778470374
176.642,260.797199762
176.657,260.815613994
176.672,260.833711514
176.687,260.851490787
176.702,260.868950285
176.717,260.886088485
176.732,260.902903878
176.747,260.919394969
176.762,260.935560263
176.777,260.951398291
176.792,260.966907584
176.807,260.982086689
176.822,260.996934164
176.837,261.011448582
176.852,261.025628524
176.867,261.039472587
176.882,261.052979383
176.897,261.06614753
176.912,261.078975667
176.927,261.091462444
176.942,261.103606526
176.957,261.115406589
176.972,261.126861332
176.987,261.137969459
177.002,261.148729696
177.017,261.159140783
177.032,261.169201475
177.047,261.178910543
177.062,261.188266779
177.077,261.197268983
177.092,261.205915982
177.107,261.214206611
177.122,261.22213973
177.137,261.229714212
177.152,261.236928953
177.167,261.243782862
177.182,261.250274871
177.197,261.256403928
177.21,261.261421392
177.212,261.262169001
177.227,261.26756908
177.242,261.272603174
177.257,261.277270308
177.272,261.281569533
177.287,261.285499917
177.302,261.289060553
177.31,261.290808064
177.317,261.292250547
177.332,261.29506904
177.347,261.297515178
177.362,261.299588145
177.377,261.301287135
177.392,261.302611373
177.407,261.303560102
177.422,261.304132589
177.437,261.304328127
177.452,261.304146026
177.467,261.30358563
177.482,261.302646297
177.497,261.301327415
177.512,261.299628397
177.527,261.297548675
177.542,261.295087712
177.557,261.292244995
177.572,261.289020035
177.587,261.285412368
177.602,261.281421559
177.617,261.277047196
177.632,261.272288895
177.647,261.267146297
177.66,261.262378273
177.662,261.261619075
177.677,261.25570692
177.692,261.249409555
177.707,261.242726734
177.722,261.235658232
177.737,261.228203853
177.752,261.220363432
177.767,261.212136826
177.782,261.203523929
177.797,261.194524656
177.812,261.185138951
177.827,261.175366791
177.842,261.165208177
177.857,261.154663139
177.872,261.143731742
177.887,261.132414068
177.902,261.120710241
177.917,261.108620407
177.932,261.096144742
177.947,261.083283453
177.96,261.071825256
177.962,261.070036775
177.977,261.056404972
177.992,261.042388341
178.007,261.027987204
178.022,261.013201913
178.037,260.998032855
178.052,260.982480438
178.067,260.966545107
178.082,260.950227336
178.097,260.933527622
178.112,260.916446499
178.127,260.898984528
178.142,260.881142298
178.157,260.86292043
178.172,260.84431957
178.187,260.825340399
178.202,260.805983627
178.217,260.786249985
178.232,260.766140246
178.247,260.745655199
178.262,260.724795673
178.277,260.703562515
178.292,260.681956611
178.307,260.659978866
178.322,260.637630223
178.337,260.614911644
178.352,260.591824124
178.367,260.568368684
178.382,260.544546374
178.397,260.520358271
178.41,260.499100212
178.412,260.495805475
178.427,260.47088912
178.442,260.44561036
178.457,260.419970377
178.472,260.393970384
178.487,260.367611612
178.502,260.340895323
178.517,260.313822803
178.532,260.286395359
178.547,260.258614328
178.562,260.230481069
178.577,260.201996961
178.592,260.173163413
178.607,260.143981852
178.622,260.114453731
178.637,260.084580521
178.652,260.054363719
178.667,260.023804842
178.682,259.992905427
178.697,259.961667033
178.712,259.930091237
178.727,259.898179638
178.742,259.865933852
178.757,259.833355516
178.772,259.800446282
178.787,259.767207821
178.802,259.733641823
178.817,259.699749992
178.832,259.665534049
178.847,259.630995732
178.862,259.596136789
178.877,259.56095899
178.892,259.52546411
178.907,259.489653942
178.922,259.453530295
178.937,259.417094983
178.952,259.380349838
178.967,259.343296696
178.982,259.305937409
178.997,259.268273835
179.012,259.230307841
179.027,259.192041305
179.042,259.153476108
179.057,259.114614147
179.072,259.075457313
179.087,259.036007514
179.102,258.996266652
179.117,258.956236641
179.132,258.9159194
179.147,258.875316843
179.16,258.839898657
179.162,258.834430894
179.177,258.793263474
179.192,258.751816506
179.207,258.710091911
179.222,258.668091616
179.237,258.625817539
179.252,258.583271601
179.267,258.540455721
179.282,258.497371808
179.297,258.454021776
179.312,258.410407527
179.327,258.366530957
179.342,258.322393967
179.357,258.27799844
179.372,258.233346251
179.387,258.188439277
179.402,258.143279375
179.417,258.0978684
179.432,258.052208189
179.447,258.006300576
179.462,257.960147385
179.477,257.913750414
179.492,257.867111462
179.507,257.82023231
179.522,257.773114721
179.537,257.725760451
179.552,257.67817123
179.567,257.630348784
179.582,257.58229481
179.597,257.534010998
179.612,257.485499014
179.627,257.436760507
179.642,257.387797107
179.657,257.338610425
179.672,257.289202049
179.687,257.239573553
179.702,257.18972648
179.717,257.139662359
179.732,257.089382694
179.747,257.038888967
179.762,256.988182632
179.777,256.937265128
179.792,256.886137864
179.807,256.834802222
179.822,256.783259566
179.837,256.731511231
179.852,256.679558522
179.867,256.627402726
179.882,256.575045098
179.897,256.522486867
179.91,256.476775063
179.912,256.469729234
179.927,256.416773378
179.942,256.36362044
179.957,256.310271543
179.972,256.256727774
179.987,256.202990199
180.002,256.149059848
180.017,256.094937725
180.032,256.040624806
180.047,255.986122037
180.062,255.931430332
180.077,255.87655058
180.092,255.821483637
180.107,255.766230328
180.122,255.710791452
180.137,255.655167776
180.152,255.599360038
180.167,255.543368944
180.182,255.487195174
180.197,255.430839374
180.212,255.374302162
180.227,255.317584131
180.242,255.260685834
180.257,255.203607802
180.272,255.146350537
180.287,255.088914508
180.302,255.031300162
180.317,254.973507907
180.332,254.915538129
180.347,254.857391188
180.362,254.79906741
180.377,254.740567097
180.392,254.681890525
180.407,254.623037939
180.422,254.564009559
180.437,254.504805582
180.452,254.445426173
180.467,254.385871479
180.482,254.326141619
180.497,254.266236684
180.512,254.206156748
180.527,254.145901854
180.542,254.085472032
180.557,254.02486728
180.56,254.012725337
180.572,253.964087582
180.587,253.903132896
180.602,253.842003163
180.617,253.780698303
180.632,253.719218218
180.647,253.657562791
180.66,253.603986154
180.662,253.595731888
180.677,253.533725366
180.692,253.471543051
180.707,253.409184766
180.722,253.346650318
180.737,253.283939501
180.752,253.221052093
180.767,253.157987868
180.782,253.094746585
180.797,253.031327995
180.812,252.967731843
180.827,252.903957866
180.842,252.840005795
180.857,252.77587536
180.872,252.711566284
180.887,252.647078289
180.902,252.582411099
180.917,252.517564437
180.932,252.452538027
180.947,252.3873316
180.962,252.321944891
180.977,252.256377639
180.992,252.190629597
181.007,252.12470052
181.022,252.058590183
181.037,251.99229837
181.052,251.925824878
181.067,251.859169528
181.082,251.792332153
181.097,251.725312608
181.112,251.658110776
181.127,251.590726559
181.142,251.523159884
181.157,251.455410719
181.172,251.387479048
181.187,251.319364903
181.202,251.25106834
181.217,251.182589462
181.232,251.113928409
181.247,251.045085368
181.262,250.97606057
181.277,250.906854293
181.292,250.837466873
181.307,250.767898697
181.31,250.753963409
181.322,250.698150213
181.337,250.628221927
181.352,250.55811441
181.367,250.487828304
181.382,250.41736432
181.397,250.346723242
181.412,250.275905939
181.427,250.204913353
181.442,250.133746518
181.457,250.062406557
181.472,249.990894689
181.487,249.919212226
181.502,249.847360589
181.517,249.775341299
181.532,249.703155995
181.547,249.630806429
181.562,249.558294476
181.577,249.485622133
181.592,249.412791537
181.607,249.339804953
181.622,249.266664788
181.637,249.193373604
181.652,249.119934111
181.667,249.046349176
181.682,248.972621835
181.697,248.898755294
181.712,248.824752937
181.727,248.750618329
181.742,248.676355227
181.757,248.601967591
181.772,248.527459573
181.787,248.452835549
181.802,248.378100103
181.817,248.303258055
181.832,248.22831445
181.847,248.153274578
181.862,248.078143978
181.877,248.002928446
181.892,247.927634044
181.907,247.852267105
181.922,247.776834248
181.937,247.701342382
181.952,247.625798713
181.967,247.550210756
181.982,247.474586346
181.997,247.398933645
182.012,247.323261144
182.027,247.247577689
182.042,247.171892474
182.057,247.096215059
182.06,247.08108138
182.072,247.020555379
182.087,246.944923752
182.102,246.869330886
182.117,246.793787897
182.132,246.718306311
182.147,246.642898075
182.162,246.567575571
182.177,246.492351622
182.192,246.417239503
182.207,246.342252952
182.222,246.267406171
182.237,246.192713851
182.252,246.118191166
182.267,246.043853799
182.282,245.969717929
182.297,245.895800259
182.312,245.822118016
182.327,245.748688961
182.342,245.675531405
182.357,245.602664197
182.372,245.530106758
182.387,245.457879068
182.402,245.386001687
182.417,245.314495753
182.432,245.243382995
182.447,245.172685742
182.462,245.102426925
182.477,245.032630088
182.492,244.963319394
182.507,244.894519632
182.522,244.826256229
182.537,244.758555256
182.552,244.691443438
182.567,244.624948164
182.582,244.559097508
182.597,244.493920226
182.612,244.429445793
182.627,244.365704411
182.642,244.302727033
182.657,244.240545406
182.672,244.179192085
182.687,244.118700497
182.702,244.05910498
182.717,244.000440853
182.732,243.942744493
182.747,243.886053441
182.762,243.830406499
182.777,243.775843903
182.792,243.722407482
182.807,243.670140898
182.822,243.619089911
182.837,243.569302728
182.852,243.520830434
182.867,243.473727529
182.882,243.428052611
182.897,243.383869225
182.912,243.341246975
182.927,243.300262916
182.942,243.261003376
182.957,243.223566317
182.972,243.188064459
182.987,243.154629398
183.002,243.123417166
183.017,243.094615763
183.032,243.06845555
183.047,243.045223737
183.062,243.025284978
183.077,243.009111083
183.092,242.99732477
183.107,242.990765469
183.122,242.990590628
183.137,242.99843588
183.152,243.016675744
183.167,243.048862052
183.182,243.100488263
183.197,243.180375114
183.212,243.303287284
183.227,243.495063508
183.242,243.802867988
183.257,244.314615717
183.367,244.154245268
183.382,243.702636371
183.397,243.42740672
183.412,243.253446801
183.427,243.140394212
183.442,243.065907749
183.457,243.017069864
183.472,242.986075852
183.487,242.968015023
183.502,242.95968312
183.517,242.958920351
183.532,242.964227974
183.547,242.974538267
183.562,242.989072089
183.577,243.007248132
183.592,243.028623595
183.607,243.052854512
183.622,243.07966865
183.637,243.108846672
183.652,243.140208781
183.667,243.173605141
183.682,243.208908874
183.697,243.246010912
183.712,243.284816131
183.727,243.325240442
183.742,243.367208572
183.757,243.410652358
183.772,243.455509414
183.787,243.501722107
183.802,243.549236734
183.817,243.598002886
183.832,243.647972931
183.847,243.699101601
183.862,243.751345679
183.877,243.804663718
183.892,243.859015836
183.907,243.914363544
183.922,243.9706696
183.937,244.027897901
183.952,244.086013386
183.967,244.144981962
183.982,244.204770441
183.997,244.265346488
184.012,244.326678584
184.027,244.388735979
184.042,244.451488684
184.057,244.514907425
184.072,244.578963637
184.087,244.643629447
184.102,244.708877652
184.117,244.774681707
184.132,244.841015722
184.147,244.90785445
184.162,244.975173266
184.177,245.042948178
184.192,245.111155802
184.207,245.179773365
184.222,245.248778694
184.237,245.318150201
184.252,245.387866894
184.267,245.457908349
184.282,245.528254714
184.297,245.598886704
184.312,245.66978558
184.327,245.740933155
184.342,245.812311772
184.357,245.883904311
184.372,245.955694168
184.387,246.027665251
184.402,246.099801969
184.417,246.17208923
184.432,246.244512417
184.447,246.317057399
184.462,246.389710497
184.477,246.462458502
184.492,246.535288639
184.507,246.608188578
184.522,246.681146413
184.537,246.754150655
184.552,246.827190224
184.56,246.866155399
184.567,246.900254434
184.582,246.973332994
184.597,247.046415984
184.612,247.119493859
184.627,247.192557435
184.642,247.26559787
184.657,247.338606672
184.672,247.411575677
184.687,247.484497043
184.702,247.557363243
184.717,247.630167054
184.732,247.702901552
184.747,247.775560096
184.762,247.848136327
184.777,247.920624159
184.792,247.993017766
184.807,248.06531157
184.822,248.137500254
184.837,248.209578729
184.852,248.28154214
184.867,248.353385857
184.882,248.425105469
184.897,248.49669677
184.912,248.568155757
184.927,248.639478631
184.942,248.710661769
184.957,248.781701744
184.972,248.852595297
184.987,248.923339343
185.002,248.993930964
185.017,249.064367392
185.032,249.134646023
185.047,249.204764389
185.062,249.274720174
185.077,249.344511195
185.092,249.414135402
185.107,249.483590868
185.122,249.552875792
185.137,249.621988488
185.152,249.690927383
185.167,249.759691013
185.182,249.828278019
185.197,249.896687139
185.212,249.964917211
185.227,250.03296716
185.242,250.100836
185.257,250.168522834
185.272,250.23602684
185.287,250.303347273
185.302,250.370483469
185.31,250.406213897
185.317,250.437434829
185.332,250.504200822
185.347,250.570780978
185.362,250.637174897
185.377,250.703382227
185.392,250.769402679
185.407,250.835236018
185.422,250.900882049
185.437,250.966340639
185.452,251.031611688
185.467,251.096695141
185.482,251.161590993
185.497,251.226299265
185.512,251.29082002
185.527,251.355153355
185.542,251.419299397
185.557,251.483258304
185.572,251.54703026
185.587,251.610615479
185.602,251.674014198
185.617,251.73722667
185.632,251.800253181
185.647,251.863094025
185.662,251.925749518
185.677,251.988219997
185.692,252.050505804
185.707,252.112607299
185.722,252.174524859
185.737,252.236258861
185.752,252.297809697
185.767,252.359177769
185.782,252.42036348
185.797,252.481367243
185.812,252.542189474
185.827,252.602830587
185.842,252.66329101
185.857,252.723571161
185.872,252.783671464
185.887,252.843592338
185.902,252.903334207
185.917,252.962897482
185.932,253.022282582
185.947,253.081489913
185.96,253.13265945
185.962,253.140519878
185.977,253.199372877
185.992,253.2580493
186.007,253.316549532
186.022,253.374873947
186.037,253.433022912
186.052,253.490996784
186.06,253.521844709
186.067,253.54879591
186.082,253.606420624
186.097,253.663871255
186.112,253.721148113
186.127,253.7782515
186.142,253.835181704
186.157,253.891938998
186.172,253.948523642
186.187,254.004935883
186.202,254.061175952
186.217,254.117244064
186.232,254.17314042
186.247,254.228865206
186.262,254.284418588
186.277,254.339800719
186.292,254.39501173
186.307,254.450051743
186.322,254.504920854
186.337,254.559619145
186.352,254.614146683
186.367,254.668503509
186.382,254.722689653
186.397,254.776705119
186.412,254.830549898
186.427,254.884223964
186.442,254.937727263
186.457,254.991059726
186.472,255.044221267
186.487,255.097211777
186.502,255.15003113
186.517,255.202679176
186.532,255.255155747
186.547,255.307460661
186.562,255.359593708
186.577,255.411554657
186.592,255.463343267
186.607,255.514959265
186.622,255.566402369
186.637,255.617672269
186.652,255.668768639
186.667,255.719691131
186.682,255.770439378
186.697,255.821012996
186.71,255.864701895
186.712,255.871411577
186.727,255.921634695
186.742,255.971681908
186.757,256.021552748
186.772,256.071246733
186.787,256.120763363
186.802,256.170102112
186.817,256.219262447
186.832,256.268243804
186.847,256.317045608
186.862,256.365667265
186.877,256.414108164
186.892,256.462367672
186.907,256.510445145
186.922,256.558339913
186.937,256.606051303
186.952,256.653578608
186.967,256.700921118
186.982,256.748078105
186.997,256.795048817
187.012,256.841832498
187.027,256.888428367
187.042,256.934835633
187.057,256.981053492
187.072,257.02708112
187.087,257.072917685
187.102,257.118562339
187.117,257.164014218
187.132,257.209272452
187.147,257.254336152
187.162,257.299204421
187.177,257.343876347
187.192,257.388351009
187.207,257.432627473
187.222,257.4767048
187.237,257.520582032
187.252,257.564258207
187.267,257.607732352
187.282,257.651003486
187.297,257.694070621
187.312,257.736932753
187.327,257.779588881
187.342,257.822037988
187.357,257.864279054
187.372,257.906311055
187.387,257.948132952
187.402,257.98974371
187.417,258.031142285
187.432,258.072327626
187.447,258.113298682
187.46,258.148632779
187.462,258.154054395
187.477,258.194593701
187.492,258.234915541
187.507,258.275018844
187.522,258.314902547
187.537,258.354565571
187.552,258.394006849
187.567,258.433225308
187.582,258.472219873
187.597,258.510989468
187.612,258.549533026
187.627,258.587849468
187.642,258.625937724
187.657,258.663796725
187.672,258.701425402
187.687,258.73882269
187.702,258.775987524
187.717,258.812918848
187.732,258.849615601
187.747,258.886076735
187.762,258.922301199
187.777,258.958287952
187.792,258.994035957
187.807,259.029544178
187.822,259.064811592
187.837,259.099837177
187.852,259.134619919
187.867,259.169158813
187.882,259.203452859
187.897,259.237501068
187.912,259.271302453
187.927,259.304856045
187.942,259.338160871
187.957,259.371215977
187.972,259.404020417
187.987,259.436573254
188.002,259.468873558
188.017,259.500920414
188.032,259.532712912
188.047,259.564250162
188.062,259.595531275
188.077,259.626555381
188.092,259.657321618
188.107,259.68782914
188.122,259.718077108
188.137,259.748064701
188.152,259.777791106
188.167,259.807255527
188.182,259.836457181
188.197,259.865395299
188.21,259.89026124
188.212,259.89406912
188.227,259.922477906
188.242,259.950620928
188.257,259.978497472
188.272,260.006106841
188.287,260.033448351
188.302,260.060521333
188.317,260.087325134
188.332,260.113859118
188.347,260.140122661
188.362,260.166115158
188.377,260.191836018
188.392,260.217284668
188.407,260.242460551
188.422,260.267363124
188.437,260.291991865
188.452,260.316346265
188.467,260.340425831
188.482,260.36423009
188.497,260.387758588
188.512,260.41101088
188.527,260.433986546
188.542,260.45668518
188.557,260.479106395
188.572,260.50124982
188.587,260.523115099
188.602,260.544701898
188.617,260.566009904
188.632,260.587038808
188.647,260.607788337
188.66,260.625545067
188.662,260.628258219
188.677,260.64844821
188.692,260.66835808
188.707,260.687987621
188.722,260.707336636
