# 48698 WSSS Singapore Observations at 12Z 25 Jun 2019
Frequency [GHz],TB
175.31,278.28399183
175.322,278.266037494
175.337,278.243542624
175.352,278.220989826
175.367,278.198378878
175.382,278.175709552
175.397,278.152981624
175.412,278.130194865
175.427,278.107349046
175.442,278.084443938
175.457,278.061479306
175.472,278.038454918
175.487,278.01537054
175.502,277.992225932
175.517,277.969020858
175.532,277.945755078
175.547,277.922428351
175.562,277.899040435
175.577,277.875591084
175.592,277.852080054
175.607,277.828507095
175.622,277.804871961
175.637,277.781174399
175.652,277.757414159
175.667,277.733590987
175.682,277.709704627
175.697,277.685754822
175.712,277.661741313
175.727,277.637663841
175.742,277.613522143
175.757,277.589315957
175.772,277.565045017
175.787,277.540709056
175.802,277.516307806
175.817,277.491840997
175.832,277.467308356
175.847,277.442709611
175.862,277.418044485
175.877,277.393312703
175.892,277.368513985
175.907,277.343648051
175.922,277.318714618
175.937,277.293713403
175.952,277.26864412
175.967,277.243506481
175.982,277.218300197
175.997,277.193024976
176.012,277.167680528
176.027,277.142266555
176.042,277.116782761
176.057,277.091228849
176.072,277.065604518
176.087,277.039909465
176.102,277.014143388
176.117,276.988305979
176.132,276.962396932
176.147,276.936415936
176.162,276.910362681
176.177,276.884236851
176.192,276.858038134
176.207,276.83176621
176.222,276.805420761
176.237,276.779001465
176.252,276.752508
176.267,276.72594004
176.282,276.699297258
176.297,276.672579325
176.31,276.649362739
176.312,276.64578591
176.327,276.61891668
176.342,276.5919713
176.357,276.564949431
176.372,276.537850737
176.387,276.510674875
176.402,276.483421502
176.417,276.456090272
176.432,276.428680838
176.447,276.40119285
176.46,276.377306115
176.462,276.373625958
176.477,276.345979806
176.492,276.31825404
176.507,276.290448301
176.522,276.26256223
176.537,276.234595463
176.552,276.206547637
176.567,276.178418385
176.582,276.150207338
176.597,276.121914126
176.612,276.093538375
176.627,276.06507971
176.642,276.036537752
176.657,276.007912125
176.672,275.979202444
176.687,275.950408325
176.702,275.921529381
176.717,275.892565225
176.732,275.863515466
176.747,275.834379709
176.762,275.80515756
176.777,275.775848619
176.792,275.746452488
176.807,275.716968764
176.822,275.687397041
176.837,275.657736913
176.852,275.627987971
176.867,275.598149801
176.882,275.56822199
176.897,275.538204121
176.912,275.508095776
176.927,275.477896533
176.942,275.447605967
176.957,275.417223652
176.972,275.386749161
176.987,275.356182061
177.002,275.325521919
177.017,275.294768299
177.032,275.263920762
177.047,275.232978868
177.062,275.201942172
177.077,275.17081023
177.092,275.139582591
177.107,275.108258805
177.122,275.076838419
177.137,275.045320976
177.152,275.013706018
177.167,274.981993082
177.182,274.950181706
177.197,274.918271423
177.21,274.890535476
177.212,274.886261763
177.227,274.854152255
177.242,274.821942424
177.257,274.789631794
177.272,274.757219885
177.287,274.724706214
177.302,274.692090297
177.31,274.674653165
177.317,274.659371646
177.332,274.626549769
177.347,274.593624176
177.362,274.560594369
177.377,274.527459849
177.392,274.494220116
177.407,274.460874665
177.422,274.427422989
177.437,274.393864578
177.452,274.360198921
177.467,274.326425502
177.482,274.292543803
177.497,274.258553301
177.512,274.224453474
177.527,274.190243794
177.542,274.155923733
177.557,274.121492756
177.572,274.086950329
177.587,274.052295912
177.602,274.017528966
177.617,273.982648943
177.632,273.947655298
177.647,273.912547479
177.66,273.882027921
177.662,273.877324933
177.677,273.841987103
177.692,273.806533429
177.707,273.770963349
177.722,273.735276296
177.737,273.6994717
177.752,273.66354899
177.767,273.627507589
177.782,273.591346919
177.797,273.555066397
177.812,273.518665438
177.827,273.482143454
177.842,273.445499853
177.857,273.408734037
177.872,273.37184541
177.887,273.334833367
177.902,273.297697305
177.917,273.260436614
177.932,273.22305068
177.947,273.185538887
177.96,273.152926382
177.962,273.147900616
177.977,273.110135243
177.992,273.07224214
178.007,273.034220677
178.022,272.996070219
178.037,272.957790128
178.052,272.91937976
178.067,272.880838471
178.082,272.842165612
178.097,272.803360525
178.112,272.764422554
178.127,272.725351038
178.142,272.686145309
178.157,272.646804698
178.172,272.60732853
178.187,272.567716126
178.202,272.527966803
178.217,272.488079873
178.232,272.448054645
178.247,272.407890422
178.262,272.367586501
178.277,272.32714218
178.292,272.286556746
178.307,272.245829485
178.322,272.204959676
178.337,272.163946594
178.352,272.12278951
178.367,272.081487687
178.382,272.040040386
178.397,271.998446862
178.41,271.962280282
178.412,271.956706362
178.427,271.914818132
178.442,271.872781408
178.457,271.830595424
178.472,271.788259405
178.487,271.745772572
178.502,271.703134141
178.517,271.66034332
178.532,271.617399311
178.547,271.574301311
178.562,271.531048509
178.577,271.487640089
178.592,271.444075227
178.607,271.400353092
178.622,271.356472847
178.637,271.312433649
178.652,271.268234645
178.667,271.223874974
178.682,271.179353773
178.697,271.134670164
178.712,271.089823267
178.727,271.04481219
178.742,270.999636036
178.757,270.954293896
178.772,270.908784855
178.787,270.863107987
178.802,270.817262361
178.817,270.771247032
178.832,270.725061047
178.847,270.678703446
178.862,270.632173255
178.877,270.585469493
178.892,270.538591167
178.907,270.491537275
178.922,270.444306802
178.937,270.396898722
178.952,270.349312001
178.967,270.301545589
178.982,270.253598426
178.997,270.205469441
179.012,270.157157547
179.027,270.108661649
179.042,270.059980634
179.057,270.011113377
179.072,269.962058742
179.087,269.912815576
179.102,269.863382712
179.117,269.813758968
179.132,269.763943148
179.147,269.713934037
179.16,269.67043551
179.162,269.66373041
179.177,269.61333102
179.192,269.562734604
179.207,269.511939887
179.222,269.460945569
179.237,269.409750335
179.252,269.358352854
179.267,269.306751773
179.282,269.254945719
179.297,269.202933301
179.312,269.150713108
179.327,269.098283705
179.342,269.045643638
179.357,268.992791431
179.372,268.939725583
179.387,268.886444574
179.402,268.832946855
179.417,268.779230857
179.432,268.725294985
179.447,268.671137617
179.462,268.616757107
179.477,268.562151781
179.492,268.507319937
179.507,268.452259846
179.522,268.396969751
179.537,268.341447863
179.552,268.285692365
179.567,268.229701407
179.582,268.173473111
179.597,268.117005563
179.612,268.060296816
179.627,268.003344892
179.642,267.946147775
179.657,267.888703416
179.672,267.831009728
179.687,267.773064585
179.702,267.714865829
179.717,267.656411257
179.732,267.597698627
179.747,267.538725658
179.762,267.479490028
179.777,267.419989369
179.792,267.360221272
179.807,267.300183283
179.822,267.239872903
179.837,267.179287583
179.852,267.118424732
179.867,267.057281705
179.882,266.99585581
179.897,266.934144304
179.91,266.880427813
179.912,266.872144394
179.927,266.809853228
179.942,266.747267907
179.957,266.684385473
179.972,266.621202913
179.987,266.557717155
180.002,266.493925071
180.017,266.42982347
180.032,266.365409101
180.047,266.300678653
180.062,266.23562875
180.077,266.17025595
180.092,266.104556747
180.107,266.038527565
180.122,265.972164765
180.137,265.905464631
180.152,265.838423382
180.167,265.771037162
180.182,265.703302042
180.197,265.635214016
180.212,265.566769005
180.227,265.49796285
180.242,265.428791313
180.257,265.359250078
180.272,265.289334744
180.287,265.219040829
180.302,265.148363765
180.317,265.0772989
180.332,265.005841494
180.347,264.93398672
180.362,264.861729655
180.377,264.789065294
180.392,264.715988531
180.407,264.642494171
180.422,264.56857692
180.437,264.494231391
180.452,264.419452096
180.467,264.344233448
180.482,264.26856976
180.497,264.192455242
180.512,264.115884002
180.527,264.038850039
180.542,263.961347252
180.557,263.883369428
180.56,263.867716304
180.572,263.804910246
180.587,263.725963277
180.602,263.64652198
180.617,263.5665797
180.632,263.486129672
180.647,263.405165013
180.66,263.334573957
180.662,263.323678725
180.677,263.241663696
180.692,263.159112692
180.707,263.076018362
180.722,262.992373236
180.737,262.908169722
180.752,262.823400105
180.767,262.738056552
180.782,262.652131102
180.797,262.565615671
180.812,262.478502052
180.827,262.390781911
180.842,262.302446788
180.857,262.213488097
180.872,262.123897125
180.887,262.033665032
180.902,261.94278285
180.917,261.851241482
180.932,261.759031707
180.947,261.66614417
180.962,261.572569395
180.977,261.478297773
180.992,261.383319571
181.007,261.287624927
181.022,261.191203852
181.037,261.094046234
181.052,260.996141833
181.067,260.897480288
181.082,260.798051111
181.097,260.697843696
181.112,260.596847313
181.127,260.495051115
181.142,260.392444139
181.157,260.289015303
181.172,260.184753415
181.187,260.079647171
181.202,259.973685158
181.217,259.866855859
181.232,259.759147654
181.247,259.65054882
181.262,259.541047545
181.277,259.430631919
181.292,259.319289949
181.307,259.207009554
181.31,259.184439796
181.322,259.093778578
181.337,258.979584789
181.352,258.864415889
181.367,258.748259516
181.382,258.631103253
181.397,258.512934634
181.412,258.393741149
181.427,258.273510255
181.442,258.152229382
181.457,258.029885942
181.472,257.906467336
181.487,257.781960969
181.502,257.656354253
181.517,257.529634626
181.532,257.401789554
181.547,257.272806551
181.562,257.142673188
181.577,257.011377108
181.592,256.878906038
181.607,256.745247808
181.622,256.610390361
181.637,256.474321776
181.652,256.33703028
181.667,256.198504272
181.682,256.058732337
181.697,255.917703269
181.712,255.775406093
181.727,255.631830086
181.742,255.486964801
181.757,255.340800092
181.772,255.19332614
181.787,255.044533478
181.802,254.894413023
181.817,254.7429561
181.832,254.59015448
181.847,254.436000403
181.862,254.280486621
181.877,254.123606426
181.892,253.965353688
181.907,253.805722893
181.922,253.644709184
181.937,253.482308397
181.952,253.318517105
181.967,253.153332665
181.982,252.986753258
181.997,252.818777936
182.012,252.649406673
182.027,252.478640411
182.042,252.306481113
182.057,252.132931814
182.06,252.098055499
182.072,251.957996672
182.087,251.781681033
182.102,251.60399147
182.117,251.424935857
182.132,251.244523418
182.147,251.062764789
182.162,250.879672077
182.177,250.695258926
182.192,250.509540572
182.207,250.32253391
182.222,250.134257556
182.237,249.944731911
182.252,249.753979221
182.267,249.562023644
182.282,249.36889131
182.297,249.174610387
182.312,248.979211134
182.327,248.782725973
182.342,248.585189536
182.357,248.386638733
182.372,248.187112799
182.387,247.986653351
182.402,247.785304438
182.417,247.583112587
182.432,247.380126851
182.447,247.176398842
182.462,246.971982776
182.477,246.7669355
182.492,246.561316519
182.507,246.355188021
182.522,246.148614891
182.537,245.94166472
182.552,245.734407812
182.567,245.526917179
182.582,245.319268532
182.597,245.111540259
182.612,244.903813403
182.627,244.696171623
182.642,244.488701152
182.657,244.281490739
182.672,244.074631585
182.687,243.868217262
182.702,243.662343627
182.717,243.457108715
182.732,243.252612612
182.747,243.048957323
182.762,242.846246609
182.777,242.644585798
182.792,242.444081578
182.807,242.244841745
182.822,242.046974918
182.837,241.850590196
182.852,241.655796762
182.867,241.46270341
182.882,241.27141797
182.897,241.08204663
182.912,240.894693098
182.927,240.709457588
182.942,240.526435576
182.957,240.345716253
182.972,240.167380623
182.987,239.991499122
183.002,239.818128661
183.017,239.647308927
183.032,239.479057778
183.047,239.313365508
183.062,239.150187763
183.077,238.989436899
183.092,238.830971625
183.107,238.674585072
183.122,238.519991883
183.137,238.366816156
183.152,238.214584295
183.167,238.062731405
183.182,237.910638335
183.197,237.757731972
183.212,237.603707588
183.227,237.448970156
183.242,237.295426413
183.257,237.147719396
183.367,237.168273434
183.382,237.313996983
183.397,237.464070454
183.412,237.614676553
183.427,237.764382848
183.442,237.913018467
183.457,238.060983598
183.472,238.208874953
183.487,238.357301675
183.502,238.506805262
183.517,238.657832527
183.532,238.810733785
183.547,238.965771793
183.562,239.123134285
183.577,239.282946727
183.592,239.445283889
183.607,239.610179755
183.622,239.777635757
183.637,239.947627494
183.652,240.120110158
183.667,240.295022889
183.682,240.472292275
183.697,240.651835132
183.712,240.833560764
183.727,241.017372752
183.742,241.203170409
183.757,241.390849963
183.772,241.580305505
183.787,241.771429778
183.802,241.96411482
183.817,242.158252497
183.832,242.353734947
183.847,242.550454952
183.862,242.748306259
183.877,242.947183839
183.892,243.146984122
183.907,243.347605191
183.922,243.548946951
183.937,243.750911276
183.952,243.953402136
183.967,244.156325706
183.982,244.359590457
183.997,244.563107245
184.012,244.766789365
184.027,244.970552624
184.042,245.174315379
184.057,245.377998575
184.072,245.581525776
184.087,245.784823184
184.102,245.987819653
184.117,246.190446695
184.132,246.392638477
184.147,246.594331813
184.162,246.795466154
184.177,246.995983564
184.192,247.195828701
184.207,247.394948783
184.222,247.59329356
184.237,247.790815272
184.252,247.987468609
184.267,248.183210668
184.282,248.378000904
184.297,248.571801081
184.312,248.76457522
184.327,248.956289541
184.342,249.146912412
184.357,249.336414287
184.372,249.524767649
184.387,249.711946952
184.402,249.897928555
184.417,250.082690667
184.432,250.266213283
184.447,250.448478123
184.462,250.62946857
184.477,250.809169611
184.492,250.987567776
184.507,251.164651075
184.522,251.340408946
184.537,251.514832187
184.552,251.68791291
184.56,251.779671346
184.567,251.859644474
184.582,252.030021438
184.597,252.199039499
184.612,252.366695448
184.627,252.532987111
184.642,252.697913304
184.657,252.861473781
184.672,253.023669186
184.687,253.18450101
184.702,253.343971546
184.717,253.502083841
184.732,253.658841661
184.747,253.814249445
184.762,253.968312269
184.777,254.121035807
184.792,254.272426298
184.807,254.422490506
184.822,254.571235688
184.837,254.718669568
184.852,254.864800294
184.867,255.009636422
184.882,255.153186876
184.897,255.29546093
184.912,255.436468173
184.927,255.576218494
184.942,255.714722049
184.957,255.851989244
184.972,255.988030714
184.987,256.122857298
185.002,256.256480019
185.017,256.388910074
185.032,256.520158806
185.047,256.650237692
185.062,256.779158324
185.077,256.906932402
185.092,257.033571705
185.107,257.159088092
185.122,257.283493479
185.137,257.406799833
185.152,257.529019156
185.167,257.650163475
185.182,257.770244834
185.197,257.88927528
185.212,258.007266859
185.227,258.124231602
185.242,258.240181519
185.257,258.355128594
185.272,258.469084772
185.287,258.582061958
185.302,258.694072004
185.31,258.75341932
185.317,258.805126711
185.332,258.915237818
185.347,259.024416995
185.362,259.132675845
185.377,259.240025895
185.392,259.346478589
185.407,259.45204529
185.422,259.556737273
185.437,259.660565721
185.452,259.763541725
185.467,259.865676278
185.482,259.966980272
185.497,260.067464501
185.512,260.167139649
185.527,260.266016299
185.542,260.364104924
185.557,260.461415886
185.572,260.557959435
185.587,260.653745713
185.602,260.748784744
185.617,260.843086437
185.632,260.936660588
185.647,261.029516875
185.662,261.121664859
185.677,261.213113983
185.692,261.303873571
185.707,261.393952832
185.722,261.483360853
185.737,261.572106605
185.752,261.660198937
185.767,261.747646583
185.782,261.834458156
185.797,261.920642153
185.812,262.00620695
185.827,262.091160808
185.842,262.17551187
185.857,262.259268162
185.872,262.342437595
185.887,262.425027963
185.902,262.507046947
185.917,262.588502113
185.932,262.66940091
185.947,262.749750682
185.96,262.818948639
185.962,262.829558655
185.977,262.908831945
185.992,262.987577561
186.007,263.065802399
186.022,263.143513249
186.037,263.220716794
186.052,263.29741961
186.06,263.338125275
186.067,263.373628168
186.082,263.449348836
186.097,263.524587876
186.112,263.599351452
186.127,263.673645625
186.142,263.747476357
186.157,263.82084951
186.172,263.893770851
186.187,263.966246049
186.202,264.038280679
186.217,264.109880222
186.232,264.181050066
186.247,264.251795508
186.262,264.322121754
186.277,264.392033921
186.292,264.461537041
186.307,264.530636055
186.322,264.599335823
186.337,264.667641116
186.352,264.735556627
186.367,264.803086964
186.382,264.870236656
186.397,264.937010153
186.412,265.003411824
186.427,265.069445966
186.442,265.135116796
186.457,265.20042846
186.472,265.265385028
186.487,265.3299905
186.502,265.394248802
186.517,265.458163795
186.532,265.521739268
186.547,265.584978944
186.562,265.647886478
186.577,265.710465462
186.592,265.772719422
186.607,265.834651825
186.622,265.896266071
186.637,265.957565504
186.652,266.018553405
186.667,266.079232999
186.682,266.139607451
186.697,266.199679873
186.71,266.251500692
186.712,266.259453319
186.727,266.318930789
186.742,266.378115232
186.757,266.437009541
186.772,266.495616561
186.787,266.553939087
186.802,266.61197986
186.817,266.669741579
186.832,266.727226891
186.847,266.784438399
186.862,266.841378658
186.877,266.898050181
186.892,266.954455436
186.907,267.010596849
186.922,267.066476803
186.937,267.122097638
186.952,267.177461659
186.967,267.232571127
186.982,267.287428265
186.997,267.34203526
187.012,267.396394259
187.027,267.450507377
187.042,267.504376688
187.057,267.558004237
187.072,267.61139203
187.087,267.664542042
187.102,267.717456217
187.117,267.770136462
187.132,267.822584658
187.147,267.874802653
187.162,267.926792265
187.177,267.978555282
187.192,268.030093467
187.207,268.081408552
187.222,268.132502239
187.237,268.18337621
187.252,268.234032116
187.267,268.284471583
187.282,268.334696212
187.297,268.38470758
187.312,268.434507241
187.327,268.484096723
187.342,268.533477533
187.357,268.582651155
187.372,268.631619051
187.387,268.680382663
187.402,268.728943409
187.417,268.777302688
187.432,268.825461881
187.447,268.873422346
187.46,268.91482837
187.462,268.921185424
187.477,268.968752437
187.492,269.016124688
187.507,269.063303463
187.522,269.11029003
187.537,269.157085639
187.552,269.203691525
187.567,269.250108907
187.582,269.296338984
187.597,269.342382944
187.612,269.388241958
187.627,269.433917182
187.642,269.479409757
187.657,269.52472081
187.672,269.569851454
187.687,269.614802788
187.702,269.6595759
187.717,269.704171861
187.732,269.748591733
187.747,269.792836562
187.762,269.836907385
187.777,269.880805223
187.792,269.92453109
187.807,269.968085987
187.822,270.011470901
187.837,270.054686811
187.852,270.097734685
187.867,270.14061548
187.882,270.183330141
187.897,270.225879607
187.912,270.268264803
187.927,270.310486647
187.942,270.352546046
187.957,270.394443899
187.972,270.436181095
187.987,270.477758515
188.002,270.519177031
188.017,270.560437506
188.032,270.601540793
188.047,270.642487741
188.062,270.68327919
188.077,270.723915968
188.092,270.7643989
188.107,270.804728801
188.122,270.844906479
188.137,270.884932736
188.152,270.924808365
188.167,270.964534155
188.182,271.004110883
188.197,271.043539325
188.21,271.077591285
188.212,271.082820245
188.227,271.121954406
188.242,271.160942561
188.257,271.199785457
188.272,271.238483836
188.287,271.277038434
188.302,271.31544998
188.317,271.353719198
188.332,271.391846806
188.347,271.429833518
188.362,271.467680038
188.377,271.50538707
188.392,271.542955308
188.407,271.580385445
188.422,271.617678166
188.437,271.654834151
188.452,271.691854077
188.467,271.728738613
188.482,271.765488426
188.497,271.802104178
188.512,271.838586523
188.527,271.874936115
188.542,271.9111536
188.557,271.947239621
188.572,271.983194817
188.587,272.01901982
188.602,272.054715261
188.617,272.090281765
188.632,272.125719954
188.647,272.161030443
188.66,272.191530048
188.662,272.196213847
188.677,272.231270774
188.692,272.266201828
188.707,272.301007612
188.722,272.335688721
188.737,272.370245749
