# 10410 EDZE Essen Observations at 12Z 26 Sep 2019
Frequency [GHz],TB
175.31,268.752016476
175.322,268.732177732
175.337,268.707304999
175.352,268.682349621
175.367,268.657311513
175.382,268.632190585
175.397,268.606986746
175.412,268.581699906
175.427,268.556329971
175.442,268.530876854
175.457,268.505340453
175.472,268.479720682
175.487,268.45401744
175.502,268.428230634
175.517,268.402360166
175.532,268.376405935
175.547,268.350367845
175.562,268.324245798
175.577,268.298039689
175.592,268.271749412
175.607,268.245374871
175.622,268.218915958
175.637,268.192372567
175.652,268.165744594
175.667,268.139031927
175.682,268.112234454
175.697,268.085352077
175.712,268.058384669
175.727,268.031332128
175.742,268.004194334
175.757,267.976971176
175.772,267.949662533
175.787,267.922268287
175.802,267.894788321
175.817,267.867222512
175.832,267.839570742
175.847,267.811832883
175.862,267.784008805
175.877,267.756098393
175.892,267.728101508
175.907,267.700018024
175.922,267.671847813
175.937,267.64359074
175.952,267.615246668
175.967,267.586815464
175.982,267.55829699
175.997,267.529691105
176.012,267.500997669
176.027,267.472216541
176.042,267.443347575
176.057,267.414390626
176.072,267.385345543
176.087,267.356212181
176.102,267.326990383
176.117,267.297680002
176.132,267.268280879
176.147,267.238792861
176.162,267.209215784
176.177,267.17954949
176.192,267.149793816
176.207,267.1199486
176.222,267.09001367
176.237,267.059988863
176.252,267.029874005
176.267,266.999668925
176.282,266.969373449
176.297,266.938987399
176.31,266.91257942
176.312,266.908510595
176.327,266.877942861
176.342,266.84728401
176.357,266.816533858
176.372,266.785692216
176.387,266.754758902
176.402,266.723733714
176.417,266.692616462
176.432,266.661406956
176.447,266.630104986
176.46,266.602901671
176.462,266.598710362
176.477,266.567222876
176.492,266.53564232
176.507,266.50396849
176.522,266.472201178
176.537,266.440340168
176.552,266.408385247
176.567,266.376336195
176.582,266.344192796
176.597,266.311954822
176.612,266.279622056
176.627,266.247194264
176.642,266.214671222
176.657,266.182052693
176.672,266.149338444
176.687,266.116528238
176.702,266.083621834
176.717,266.050618991
176.732,266.017519461
176.747,265.984322996
176.762,265.951029349
176.777,265.917638263
176.792,265.884149485
176.807,265.850562754
176.822,265.816877808
176.837,265.783094385
176.852,265.749212213
176.867,265.715231026
176.882,265.681150554
176.897,265.646970513
176.912,265.612690635
176.927,265.578310628
176.942,265.543830213
176.957,265.509249105
176.972,265.474567008
176.987,265.439783636
177.002,265.404898689
177.017,265.369911864
177.032,265.334822863
177.047,265.299631382
177.062,265.26433711
177.077,265.228939737
177.092,265.19343895
177.107,265.15783443
177.122,265.122125857
177.137,265.086312903
177.152,265.050395248
177.167,265.01437256
177.182,264.978244504
177.197,264.94201074
177.21,264.910522384
177.212,264.905670938
177.227,264.869224746
177.242,264.832671822
177.257,264.796011813
177.272,264.759244369
177.287,264.722369135
177.302,264.685385753
177.31,264.665616934
177.317,264.648293853
177.332,264.611093074
177.347,264.573783045
177.362,264.536363392
177.377,264.498833742
177.392,264.461193712
177.407,264.423442918
177.422,264.385580975
177.437,264.347607489
177.452,264.309522072
177.467,264.27132432
177.482,264.233013839
177.497,264.194590218
177.512,264.156053051
177.527,264.11740193
177.542,264.07863643
177.557,264.03975614
177.572,264.000760634
177.587,263.961649486
177.602,263.922422264
177.617,263.883078535
177.632,263.843617863
177.647,263.804039803
177.66,263.769643521
177.662,263.764343914
177.677,263.72452974
177.692,263.684596834
177.707,263.644544733
177.722,263.604372982
177.737,263.564081113
177.752,263.523668658
177.767,263.483135142
177.782,263.442480094
177.797,263.401703024
177.812,263.360803457
177.827,263.319780895
177.842,263.278634853
177.857,263.237364828
177.872,263.195970321
177.887,263.154450827
177.902,263.112805839
177.917,263.071034837
177.932,263.02913731
177.947,262.98711273
177.96,262.95058825
177.962,262.944960574
177.977,262.902680308
177.992,262.860271401
178.007,262.817733311
178.022,262.775065497
178.037,262.732267403
178.052,262.689338489
178.067,262.646278187
178.082,262.603085941
178.097,262.55976118
178.112,262.516303341
178.127,262.472711843
178.142,262.428986109
178.157,262.385125551
178.172,262.341129585
178.187,262.296997613
178.202,262.252729041
178.217,262.208323263
178.232,262.16377967
178.247,262.119097652
178.262,262.074276592
178.277,262.029315866
178.292,261.984214847
178.307,261.938972905
178.322,261.893589399
178.337,261.84806369
178.352,261.80239513
178.367,261.756583069
178.382,261.710626849
178.397,261.664525807
178.41,261.624453909
178.412,261.618279276
178.427,261.571886584
178.442,261.525347056
178.457,261.478660003
178.472,261.431824745
178.487,261.384840584
178.502,261.337706821
178.517,261.290422754
178.532,261.242987673
178.547,261.195400864
178.562,261.147661609
178.577,261.099769176
178.592,261.051722837
178.607,261.003521858
178.622,260.955165499
178.637,260.906653005
178.652,260.857983626
178.667,260.809156603
178.682,260.760171173
178.697,260.711026563
178.712,260.661721997
178.727,260.612256697
178.742,260.562629869
178.757,260.512840722
178.772,260.462888457
178.787,260.412772268
178.802,260.362491343
178.817,260.312044864
178.832,260.26143201
178.847,260.210651948
178.862,260.159703845
178.877,260.108586857
178.892,260.057300138
178.907,260.005842831
178.922,259.954214081
178.937,259.902413012
178.952,259.850438759
178.967,259.798290436
178.982,259.745967165
178.997,259.693468049
179.012,259.64079219
179.027,259.587938681
179.042,259.534906613
179.057,259.48169507
179.072,259.428303125
179.087,259.374729844
179.102,259.320974293
179.117,259.267035527
179.132,259.212912593
179.147,259.158604531
179.16,259.111387053
179.162,259.10411038
179.177,259.04942917
179.192,258.99455992
179.207,258.939501643
179.222,258.884253353
179.237,258.828814044
179.252,258.773182715
179.267,258.717358351
179.282,258.661339934
179.297,258.605126438
179.312,258.54871683
179.327,258.492110063
179.342,258.435305094
179.357,258.378300867
179.372,258.321096323
179.387,258.26369039
179.402,258.206081991
179.417,258.148270042
179.432,258.090253459
179.447,258.032031135
179.462,257.973601969
179.477,257.914964849
179.492,257.856118658
179.507,257.797062259
179.522,257.73779453
179.537,257.678314323
179.552,257.618620488
179.567,257.558711872
179.582,257.498587307
179.597,257.438245627
179.612,257.377685652
179.627,257.316906191
179.642,257.255906058
179.657,257.194684049
179.672,257.133238957
179.687,257.071569563
179.702,257.009674647
179.717,256.947552976
179.732,256.885203317
179.747,256.82262442
179.762,256.759815035
179.777,256.696773898
179.792,256.633499743
179.807,256.569991298
179.822,256.506247274
179.837,256.442266386
179.852,256.378047334
179.867,256.313588815
179.882,256.248889516
179.897,256.183948116
179.91,256.127468714
179.912,256.118763291
179.927,256.053333702
179.942,255.987658008
179.957,255.921734864
179.972,255.855562908
179.987,255.789140776
180.002,255.722467103
180.017,255.655540505
180.032,255.588359601
180.047,255.520922991
180.062,255.453229282
180.077,255.385277064
180.092,255.317064922
180.107,255.248591436
180.122,255.179855175
180.137,255.110854709
180.152,255.041588592
180.167,254.972055374
180.182,254.902253602
180.197,254.83218181
180.212,254.761838528
180.227,254.691222286
180.242,254.620331592
180.257,254.549164964
180.272,254.477720903
180.287,254.405997906
180.302,254.333994467
180.317,254.261709069
180.332,254.189140189
180.347,254.116286306
180.362,254.04314588
180.377,253.969717378
180.392,253.895999253
180.407,253.821989953
180.422,253.74768792
180.437,253.673091597
180.452,253.598199414
180.467,253.523009804
180.482,253.447521183
180.497,253.371731972
180.512,253.295640583
180.527,253.219245425
180.542,253.142544907
180.557,253.065537423
180.56,253.050098948
180.572,252.988221364
180.587,252.910595131
180.602,252.832657109
180.617,252.754405682
180.632,252.675839228
180.647,252.596956129
180.66,252.528333388
180.662,252.517754757
180.677,252.438233487
180.692,252.358390686
180.707,252.278224725
180.722,252.197733969
180.737,252.116916778
180.752,252.035771522
180.767,251.95429656
180.782,251.872490252
180.797,251.790350963
180.812,251.707877052
180.827,251.625066879
180.842,251.541918811
180.857,251.458431209
180.872,251.374602438
180.887,251.290430866
180.902,251.205914866
180.917,251.12105281
180.932,251.035843072
180.947,250.950284033
180.962,250.864374084
180.977,250.77811161
180.992,250.691495008
181.007,250.604522683
181.022,250.517193044
181.037,250.429504508
181.052,250.341455501
181.067,250.253044457
181.082,250.164269819
181.097,250.075130049
181.112,249.985623606
181.127,249.895748975
181.142,249.805504643
181.157,249.714889119
181.172,249.623900927
181.187,249.532538598
181.202,249.44080069
181.217,249.348685776
181.232,249.256192443
181.247,249.163319311
181.262,249.070065005
181.277,248.97642819
181.292,248.882407539
181.307,248.788001764
181.31,248.769074283
181.322,248.693209595
181.337,248.598029798
181.352,248.502461158
181.367,248.406502503
181.382,248.310152688
181.397,248.213410606
181.412,248.116275186
181.427,248.018745395
181.442,247.92082024
181.457,247.822498773
181.472,247.723780089
181.487,247.624663334
181.502,247.525147697
181.517,247.425232429
181.532,247.324916825
181.547,247.224200243
181.562,247.123082102
181.577,247.02156188
181.592,246.919639131
181.607,246.817313464
181.622,246.714584571
181.637,246.611452223
181.652,246.507916262
181.667,246.403976619
181.682,246.299633317
181.697,246.194886469
181.712,246.089736284
181.727,245.984183072
181.742,245.878227257
181.757,245.771869369
181.772,245.665110063
181.787,245.557950114
181.802,245.450390424
181.817,245.342432042
181.832,245.234076156
181.847,245.125324102
181.862,245.016177384
181.877,244.906637663
181.892,244.796706789
181.907,244.686386787
181.922,244.575679877
181.937,244.464588493
181.952,244.35311528
181.967,244.241263105
181.982,244.129035078
181.997,244.01643457
182.012,243.9034652
182.027,243.790130882
182.042,243.67643581
182.057,243.562384502
182.06,243.539531909
182.072,243.447981789
182.087,243.333232854
182.102,243.218143236
182.117,243.102718861
182.132,242.986966049
182.147,242.870891552
182.162,242.754502562
182.177,242.637806735
182.192,242.520812227
182.207,242.403527718
182.222,242.285962419
182.237,242.168126134
182.252,242.050029256
182.267,241.931682829
182.282,241.813098555
182.297,241.694288844
182.312,241.575266836
182.327,241.456046461
182.342,241.336642446
182.357,241.217070378
182.372,241.097346734
182.387,240.977488925
182.402,240.857515338
182.417,240.737445383
182.432,240.617299531
182.447,240.497099373
182.462,240.376867649
182.477,240.256628305
182.492,240.136406539
182.507,240.016228837
182.522,239.896123036
182.537,239.776118353
182.552,239.656245427
182.567,239.536536368
182.582,239.417024798
182.597,239.297745859
182.612,239.178736271
182.627,239.06003434
182.642,238.94167997
182.657,238.823714675
182.672,238.706181586
182.687,238.589125419
182.702,238.472592462
182.717,238.356630524
182.732,238.241288878
182.747,238.126618176
182.762,238.012670348
182.777,237.899498465
182.792,237.787156582
182.807,237.675699531
182.822,237.565182684
182.837,237.45566168
182.852,237.347192072
182.867,237.239828961
182.882,237.13362651
182.897,237.02863745
182.912,236.924912452
182.927,236.822499467
182.942,236.721442926
182.957,236.621782897
182.972,236.523554116
182.987,236.426784949
183.002,236.331496305
183.017,236.237700499
183.032,236.1454002
183.047,236.054587511
183.062,235.965243445
183.077,235.877338054
183.092,235.790831746
183.107,235.705678532
183.122,235.621832432
183.137,235.539258822
183.152,235.457953449
183.167,235.377972913
183.182,235.2994818
183.197,235.222822443
183.212,235.148612447
183.227,235.077869035
183.242,235.012143189
183.257,234.953614332
183.367,234.956413562
183.382,235.014095363
183.397,235.078381606
183.412,235.147254471
183.427,235.219308153
183.442,235.293637561
183.457,235.369703812
183.472,235.447216031
183.487,235.526041187
183.502,235.60614059
183.517,235.687527532
183.532,235.770240092
183.547,235.854324363
183.562,235.939824538
183.577,236.026777437
183.592,236.115209811
183.607,236.205137389
183.622,236.296564918
183.637,236.389486834
183.652,236.483888196
183.667,236.579745777
183.682,236.677029185
183.697,236.775701943
183.712,236.8757225
183.727,236.977045176
183.742,237.079620977
183.757,237.183398381
183.772,237.28832397
183.787,237.394343026
183.802,237.501400041
183.817,237.609439132
183.832,237.718404449
183.847,237.828240479
183.862,237.938892311
183.877,238.050305879
183.892,238.162428147
183.907,238.275207252
183.922,238.388592649
183.937,238.502535208
183.952,238.616987267
183.967,238.731902725
183.982,238.847237049
183.997,238.962947314
184.012,239.078992215
184.027,239.19533206
184.042,239.311928765
184.057,239.428745837
184.072,239.545748349
184.087,239.662902908
184.102,239.780177626
184.117,239.897542084
184.132,240.014967276
184.147,240.132425588
184.162,240.249890742
184.177,240.367337747
184.192,240.484742867
184.207,240.602083557
184.222,240.719338431
184.237,240.836487205
184.252,240.953510667
184.267,241.07039061
184.282,241.18710981
184.297,241.303651971
184.312,241.420001685
184.327,241.536144394
184.342,241.652066349
184.357,241.767754573
184.372,241.883196827
184.387,241.998381568
184.402,242.11329792
184.417,242.227935648
184.432,242.342285109
184.447,242.456337241
184.462,242.570083525
184.477,242.683515959
184.492,242.796627029
184.507,242.909409703
184.522,243.021857373
184.537,243.133963863
184.552,243.245723399
184.56,243.305184738
184.567,243.357130578
184.582,243.468180363
184.597,243.578868059
184.612,243.689189293
184.627,243.799140007
184.642,243.908716422
184.657,244.017915053
184.672,244.126732669
184.687,244.235166287
184.702,244.34321317
184.717,244.450870801
184.732,244.558136882
184.747,244.665009309
184.762,244.771486182
184.777,244.877565782
184.792,244.98324656
184.807,245.088527138
184.822,245.193406293
184.837,245.297882954
184.852,245.40195619
184.867,245.505625205
184.882,245.608889338
184.897,245.711748043
184.912,245.814200896
184.927,245.916247582
184.942,246.017887891
184.957,246.119121711
184.972,246.219949035
184.987,246.320369934
185.002,246.420384579
185.017,246.519993211
185.032,246.619196157
185.047,246.71799382
185.062,246.816386667
185.077,246.914375242
185.092,247.011960145
185.107,247.109142042
185.122,247.205921656
185.137,247.302299765
185.152,247.398277201
185.167,247.493854847
185.182,247.589033635
185.197,247.683814539
185.212,247.778198576
185.227,247.872186806
185.242,247.965780329
185.257,248.058980284
185.272,248.15178784
185.287,248.244204198
185.302,248.336230603
185.31,248.385152337
185.317,248.427868315
185.332,248.51911863
185.347,248.609982872
185.362,248.700462385
185.377,248.790558548
185.392,248.880272746
185.407,248.969606398
185.422,249.058560942
185.437,249.147137834
185.452,249.235338543
185.467,249.323164558
185.482,249.410617391
185.497,249.497698557
185.512,249.58440959
185.527,249.670752036
185.542,249.756727459
185.557,249.842337423
185.572,249.927583511
185.587,250.012467308
185.602,250.096990419
185.617,250.181154448
185.632,250.264961004
185.647,250.348411711
185.662,250.431508196
185.677,250.514252087
185.692,250.596645023
185.707,250.678688642
185.722,250.760384589
185.737,250.841734509
185.752,250.922740053
185.767,251.003402872
185.782,251.083724621
185.797,251.163706952
185.812,251.243351521
185.827,251.322659983
185.842,251.401633992
185.857,251.480275205
185.872,251.558585276
185.887,251.636565859
185.902,251.714218601
185.917,251.791545157
185.932,251.868547172
185.947,251.945226292
185.96,252.011421615
185.962,252.021584161
185.977,252.097622416
185.992,252.173342695
186.007,252.248746631
186.022,252.323835854
186.037,252.39861199
186.052,252.473076661
186.06,252.512664356
186.067,252.547231483
186.082,252.621078068
186.097,252.694618029
186.112,252.767852966
186.127,252.840784478
186.142,252.91341416
186.157,252.985743598
186.172,253.057774378
186.187,253.129508075
186.202,253.200946258
186.217,253.2720905
186.232,253.342942354
186.247,253.413503379
186.262,253.48377512
186.277,253.553759119
186.292,253.623456912
186.307,253.692870029
186.322,253.761999989
186.337,253.830848311
186.352,253.8994165
186.367,253.967706066
186.382,254.035718499
186.397,254.103455287
186.412,254.170917917
186.427,254.238107862
186.442,254.305026587
186.457,254.371675559
186.472,254.438056229
186.487,254.504170044
186.502,254.570018439
186.517,254.635602857
186.532,254.700924716
186.547,254.765985433
186.562,254.830786424
186.577,254.895329087
186.592,254.959614823
186.607,255.023645018
186.622,255.087421056
186.637,255.150944307
186.652,255.21421614
186.667,255.277237912
186.682,255.340010978
186.697,255.402536682
186.71,255.456526567
186.712,255.464816357
186.727,255.526851337
186.742,255.588642943
186.757,255.650192486
186.772,255.711501274
186.787,255.77257061
186.802,255.833401783
186.817,255.893996079
186.832,255.954354772
186.847,256.014479137
186.862,256.074370432
186.877,256.134029913
186.892,256.193458829
186.907,256.252658416
186.922,256.311629906
186.937,256.370374534
186.952,256.428893504
186.967,256.487188037
186.982,256.545259328
186.997,256.603108577
187.012,256.660736973
187.027,256.718145694
187.042,256.775335911
187.057,256.832308799
187.072,256.889065512
187.087,256.945607201
187.102,257.001935009
187.117,257.058050078
187.132,257.113953535
187.147,257.169646505
187.162,257.225130103
187.177,257.280405436
187.192,257.335473605
187.207,257.390335709
187.222,257.444992833
187.237,257.499446059
187.252,257.553696457
187.267,257.607745096
187.282,257.661593035
187.297,257.715241327
187.312,257.768691018
187.327,257.821943146
187.342,257.874998744
187.357,257.927858838
187.372,257.980524443
187.387,258.032996575
187.402,258.085276236
187.417,258.137364423
187.432,258.189262136
187.447,258.240970351
187.46,258.285631616
187.462,258.292490053
187.477,258.343822207
187.492,258.394967786
187.507,258.445927742
187.522,258.496703034
187.537,258.547294604
187.552,258.597703396
187.567,258.647930332
187.582,258.697976354
187.597,258.747842376
187.612,258.797529308
187.627,258.847038063
187.642,258.896369547
187.657,258.945524646
187.672,258.994504257
187.687,259.043309263
187.702,259.091940539
187.717,259.140398957
187.732,259.188685385
187.747,259.23680068
187.762,259.2847457
187.777,259.332521288
187.792,259.380128288
187.807,259.427567536
187.822,259.474839862
187.837,259.521946089
187.852,259.568887043
187.867,259.615663529
187.882,259.662276361
187.897,259.708726339
187.912,259.755014256
187.927,259.80114091
187.942,259.84710708
187.957,259.89291355
187.972,259.938561093
187.987,259.984050479
188.002,260.029382472
188.017,260.074557827
188.032,260.119577305
188.047,260.164441649
188.062,260.209151603
188.077,260.253707905
188.092,260.298111285
188.107,260.342362477
188.122,260.386462195
188.137,260.430411162
188.152,260.474210089
188.167,260.517859687
188.182,260.561360648
188.197,260.604713678
188.21,260.642167183
188.212,260.647919473
188.227,260.690978713
188.242,260.733892085
188.257,260.776660269
188.272,260.819283935
188.287,260.861763752
188.302,260.904100389
188.317,260.946294504
188.332,260.988346746
188.347,261.030257773
188.362,261.072028228
188.377,261.113658754
188.392,261.155149982
188.407,261.196502553
188.422,261.237717093
188.437,261.278794222
188.452,261.319734565
188.467,261.360538733
188.482,261.401207339
188.497,261.441740987
188.512,261.482140283
188.527,261.522405826
188.542,261.562538206
188.557,261.602538016
188.572,261.642405839
188.587,261.682142263
188.602,261.72174786
188.617,261.761223205
188.632,261.80056887
188.647,261.83978542
188.66,261.873669092
188.662,261.878873417
188.677,261.917833419
188.692,261.956665981
188.707,261.995371654
188.722,262.03395098
188.737,262.072404512
