# 48698 WSSS Singapore Observations at 12Z 27 Jun 2019
Frequency [GHz],TB
175.31,274.397226337
175.322,274.374774684
175.337,274.346651303
175.352,274.318462413
175.367,274.290207848
175.382,274.261887433
175.397,274.233500995
175.412,274.205048364
175.427,274.176529364
175.442,274.147943824
175.457,274.119291567
175.472,274.090572422
175.487,274.061786212
175.502,274.032932761
175.517,274.004011896
175.532,273.97502343
175.547,273.945967203
175.562,273.916843016
175.577,273.887650706
175.592,273.858390088
175.607,273.829060977
175.622,273.799663205
175.637,273.770196587
175.652,273.74066094
175.667,273.711056076
175.682,273.681381826
175.697,273.651637997
175.712,273.621824411
175.727,273.591940878
175.742,273.561987221
175.757,273.531963248
175.772,273.50186878
175.787,273.471703625
175.802,273.441467601
175.817,273.411160518
175.832,273.380782192
175.847,273.350332428
175.862,273.319811047
175.877,273.289217852
175.892,273.258552652
175.907,273.227815269
175.922,273.197005496
175.937,273.166123157
175.952,273.13516805
175.967,273.104139988
175.982,273.073038771
175.997,273.04186421
176.012,273.01061612
176.027,272.979294284
176.042,272.94789853
176.057,272.916428655
176.072,272.88488446
176.087,272.853265753
176.102,272.821572333
176.117,272.789804003
176.132,272.757960572
176.147,272.726041831
176.162,272.694047588
176.177,272.661977642
176.192,272.629831798
176.207,272.597609847
176.222,272.56531159
176.237,272.532936828
176.252,272.500485362
176.267,272.467956986
176.282,272.435351498
176.297,272.402668694
176.31,272.374280899
176.312,272.369908371
176.327,272.337070324
176.342,272.304154348
176.357,272.27116024
176.372,272.23808779
176.387,272.204936798
176.402,272.171707052
176.417,272.138398344
176.432,272.105010474
176.447,272.07154323
176.46,272.042473914
176.462,272.0379964
176.477,272.004369775
176.492,271.970663154
176.507,271.936876313
176.522,271.903009052
176.537,271.869061157
176.552,271.835032418
176.567,271.800922621
176.582,271.766731554
176.597,271.732459007
176.612,271.698104763
176.627,271.663668605
176.642,271.629150327
176.657,271.594549711
176.672,271.559866539
176.687,271.525100594
176.702,271.490251671
176.717,271.455319539
176.732,271.420303982
176.747,271.385204797
176.762,271.350021747
176.777,271.314754626
176.792,271.279403212
176.807,271.243967283
176.822,271.208446619
176.837,271.172841
176.852,271.137150203
176.867,271.10137401
176.882,271.065512197
176.897,271.029564536
176.912,270.993530818
176.927,270.957410803
176.942,270.921204275
176.957,270.884911009
176.972,270.848530777
176.987,270.812063352
177.002,270.77550851
177.017,270.738866028
177.032,270.702135668
177.047,270.665317211
177.062,270.628410421
177.077,270.591415073
177.092,270.554330943
177.107,270.517157788
177.122,270.479895379
177.137,270.442543492
177.152,270.405101895
177.167,270.367570344
177.182,270.329948611
177.197,270.292236462
177.21,270.259479283
177.212,270.254433663
177.227,270.21653998
177.242,270.178555166
177.257,270.140478996
177.272,270.102311226
177.287,270.064051624
177.302,270.025699939
177.31,270.005207975
177.317,269.987255941
177.332,269.948719381
177.347,269.910090027
177.362,269.87136763
177.377,269.832551945
177.392,269.793642732
177.407,269.75463975
177.422,269.715542742
177.437,269.676351467
177.452,269.637065679
177.467,269.597685126
177.482,269.55820956
177.497,269.518638729
177.512,269.478972381
177.527,269.439210273
177.542,269.39935213
177.557,269.359397721
177.572,269.319346777
177.587,269.279199041
177.602,269.238954255
177.617,269.198612164
177.632,269.158172506
177.647,269.117635017
177.66,269.082423188
177.662,269.07699943
177.677,269.036265491
177.692,268.995432926
177.707,268.954501466
177.722,268.913470848
177.737,268.872340797
177.752,268.831111049
177.767,268.78978132
177.782,268.748351344
177.797,268.706820839
177.812,268.665189528
177.827,268.623457135
177.842,268.581623367
177.857,268.539687954
177.872,268.497650609
177.887,268.455511035
177.902,268.413268947
177.917,268.370924058
177.932,268.328476074
177.947,268.285924688
177.96,268.248962965
177.962,268.243269619
177.977,268.200510558
177.992,268.157647203
178.007,268.11467925
178.022,268.071606389
178.037,268.028428321
178.052,267.985144722
178.067,267.94175528
178.082,267.898259678
178.097,267.854657601
178.112,267.810948715
178.127,267.767132704
178.142,267.723209234
178.157,267.679177972
178.172,267.635038583
178.187,267.590790732
178.202,267.546434072
178.217,267.501968258
178.232,267.45739294
178.247,267.41270777
178.262,267.36791239
178.277,267.323006435
178.292,267.277989544
178.307,267.232861351
178.322,267.187621478
178.337,267.142269551
178.352,267.09680519
178.367,267.051228008
178.382,267.005537613
178.397,266.959733613
178.41,266.919944607
178.412,266.913815609
178.427,266.867783189
178.442,266.821635954
178.457,266.77537348
178.472,266.728995351
178.487,266.682501136
178.502,266.635890408
178.517,266.589162727
178.532,266.542317656
178.547,266.495354739
178.562,266.448273519
178.577,266.401073536
178.592,266.353754321
178.607,266.306315403
178.622,266.258756298
178.637,266.211076511
178.652,266.163275545
178.667,266.115352908
178.682,266.067308077
178.697,266.019140534
178.712,265.970849763
178.727,265.922435211
178.742,265.873896348
178.757,265.825232613
178.772,265.776443446
178.787,265.72752829
178.802,265.678486547
178.817,265.629317639
178.832,265.580020961
178.847,265.53059591
178.862,265.481041871
178.877,265.431358211
178.892,265.38154429
178.907,265.331599457
178.922,265.281523055
178.937,265.23131441
178.952,265.18097284
178.967,265.13049765
178.982,265.079888127
178.997,265.029143552
179.012,264.978263204
179.027,264.927246323
179.042,264.876092154
179.057,264.824799929
179.072,264.773368857
179.087,264.721798146
179.102,264.670086969
179.117,264.61823451
179.132,264.566239911
179.147,264.514102324
179.16,264.468800076
179.162,264.461820869
179.177,264.409394654
179.192,264.356822768
179.207,264.304104296
179.222,264.251238286
179.237,264.198223786
179.252,264.145059816
179.267,264.091745385
179.282,264.038279477
179.297,263.984661054
179.312,263.93088907
179.327,263.876962453
179.342,263.82288011
179.357,263.768640928
179.372,263.714243777
179.387,263.659687498
179.402,263.604970918
179.417,263.550092839
179.432,263.495052032
179.447,263.439847264
179.462,263.384477259
179.477,263.328940725
179.492,263.273236348
179.507,263.217362786
179.522,263.16131867
179.537,263.105102611
179.552,263.048713182
179.567,262.992148943
179.582,262.935408418
179.597,262.878490108
179.612,262.821392475
179.627,262.764113967
179.642,262.706652988
179.657,262.649007925
179.672,262.591177119
179.687,262.533158901
179.702,262.47495155
179.717,262.416553317
179.732,262.357962434
179.747,262.299177081
179.762,262.240195408
179.777,262.181015546
179.792,262.12163557
179.807,262.06205353
179.822,262.002267435
179.837,261.942275259
179.852,261.882074945
179.867,261.82166438
179.882,261.761041424
179.897,261.700203897
179.91,261.64730276
179.912,261.639149577
179.927,261.577876202
179.942,261.516381457
179.957,261.454663008
179.972,261.392718454
179.987,261.330545359
180.002,261.268141249
180.017,261.205503594
180.032,261.14262982
180.047,261.079517311
180.062,261.016163402
180.077,260.952565374
180.092,260.88872047
180.107,260.824625863
180.122,260.760278702
180.137,260.695676066
180.152,260.630814983
180.167,260.565692436
180.182,260.500305351
180.197,260.434650586
180.212,260.368724975
180.227,260.302525259
180.242,260.236048156
180.257,260.16929029
180.272,260.102248263
180.287,260.034918592
180.302,259.967297741
180.317,259.899382118
180.332,259.831168062
180.347,259.762651848
180.362,259.693829704
180.377,259.624697766
180.392,259.555252126
180.407,259.485488798
180.422,259.415403741
180.437,259.344992831
180.452,259.274251884
180.467,259.203176642
180.482,259.131762789
180.497,259.060005918
180.512,258.987901563
180.527,258.915445175
180.542,258.842632145
180.557,258.769457776
180.56,258.754779122
180.572,258.695917296
180.587,258.62200587
180.602,258.547718567
180.617,258.473050392
180.632,258.397996257
180.647,258.322551009
180.66,258.256844713
180.662,258.246709406
180.677,258.170466122
180.692,258.093815753
180.707,258.016752813
180.722,257.939271729
180.737,257.861366834
180.752,257.783032391
180.767,257.704262578
180.782,257.625051466
180.797,257.545393063
180.812,257.465281259
180.827,257.384709889
180.842,257.303672667
180.857,257.222163241
180.872,257.14017515
180.887,257.05770185
180.902,256.974736707
180.917,256.891272989
180.932,256.807303871
180.947,256.722822437
180.962,256.637821676
180.977,256.552294489
180.992,256.466233667
181.007,256.379631919
181.022,256.292481859
181.037,256.204776003
181.052,256.116506764
181.067,256.027666469
181.082,255.938247352
181.097,255.848241545
181.112,255.757641092
181.127,255.666437928
181.142,255.574623906
181.157,255.482190791
181.172,255.389130238
181.187,255.295433819
181.202,255.201093015
181.217,255.106099212
181.232,255.0104437
181.247,254.914117695
181.262,254.817112316
181.277,254.719418593
181.292,254.621027476
181.307,254.521929829
181.31,254.502024703
181.322,254.422116429
181.337,254.321577984
181.352,254.220305119
181.367,254.118288383
181.382,254.015518252
181.397,253.911985131
181.412,253.80767936
181.427,253.70259121
181.442,253.596710901
181.457,253.49002858
181.472,253.382534363
181.487,253.274218295
181.502,253.165070389
181.517,253.055080607
181.532,252.94423889
181.547,252.83253514
181.562,252.719959237
181.577,252.606501035
181.592,252.492150402
181.607,252.376897162
181.622,252.26073118
181.637,252.143642303
181.652,252.025620409
181.667,251.906655407
181.682,251.786737225
181.697,251.665855859
181.712,251.544001333
181.727,251.421163767
181.742,251.297333329
181.757,251.172500304
181.772,251.046655053
181.787,250.919788073
181.802,250.791889974
181.817,250.66295152
181.832,250.532963628
181.847,250.401917392
181.862,250.26980409
181.877,250.136615225
181.892,250.002342513
181.907,249.866977927
181.922,249.730513704
181.937,249.592942369
181.952,249.454256769
181.967,249.314450079
181.982,249.173515834
181.997,249.031447966
182.012,248.888240814
182.027,248.743889169
182.042,248.598388281
182.057,248.45173392
182.06,248.422264295
182.072,248.303922391
182.087,248.154950569
182.102,248.004815939
182.117,247.85351663
182.132,247.701051459
182.147,247.547419976
182.162,247.392622494
182.177,247.236660141
182.192,247.079534913
182.207,246.921249713
182.222,246.761808404
182.237,246.601215874
182.252,246.439478066
182.267,246.276602073
182.282,246.112596155
182.297,245.947469842
182.312,245.781233975
182.327,245.613900771
182.342,245.445483915
182.357,245.27599861
182.372,245.105461667
182.387,244.933891579
182.402,244.761308596
182.417,244.587734814
182.432,244.413194271
182.447,244.237713003
182.462,244.061319175
182.477,243.884043141
182.492,243.70591756
182.507,243.526977473
182.522,243.347260425
182.537,243.16680653
182.552,242.985658604
182.567,242.80386223
182.582,242.621465877
182.597,242.438520985
182.612,242.255082057
182.627,242.071206747
182.642,241.886955923
182.657,241.702393756
182.672,241.517587771
182.687,241.332608885
182.702,241.147531447
182.717,240.962433216
182.732,240.777395362
182.747,240.592502402
182.762,240.40784208
182.777,240.223505241
182.792,240.039585583
182.807,239.856179407
182.822,239.673385181
182.837,239.491303041
182.852,239.310034153
182.867,239.129679843
182.882,238.95034055
182.897,238.772114433
182.912,238.59509568
182.927,238.419372313
182.942,238.245023405
182.957,238.072115562
182.972,237.90069842
182.987,237.730798862
183.002,237.562413558
183.017,237.395499308
183.032,237.229960371
183.047,237.065631857
183.062,236.902257542
183.077,236.739460248
183.092,236.576701592
183.107,236.413226973
183.122,236.247989298
183.137,236.079542353
183.152,235.905889953
183.167,235.724271297
183.182,235.53085517
183.197,235.320310088
183.212,235.085228209
183.227,234.815460199
183.242,234.497751036
183.257,234.117279284
183.367,234.20586471
183.382,234.565505381
183.397,234.866049376
183.412,235.122308919
183.427,235.346768627
183.442,235.548820969
183.457,235.735283583
183.472,235.911057587
183.487,236.079666608
183.502,236.243651954
183.517,236.404852309
183.532,236.564599853
183.547,236.723858296
183.562,236.883320701
183.577,237.043479631
183.592,237.2046779
183.607,237.367145791
183.622,237.531028544
183.637,237.696406949
183.652,237.863312856
183.667,238.031740999
183.682,238.201658003
183.697,238.373009406
183.712,238.545725074
183.727,238.719723407
183.742,238.894914686
183.757,239.071203663
183.772,239.248491615
183.787,239.426677965
183.802,239.605661568
183.817,239.785341704
183.832,239.965618882
183.847,240.146395434
183.862,240.327576017
183.877,240.509067948
183.892,240.6907815
183.907,240.872630072
183.922,241.054530357
183.937,241.236402388
183.952,241.418169639
183.967,241.599758981
183.982,241.781100713
183.997,241.962128504
184.012,242.142779377
184.027,242.322993601
184.042,242.502714653
184.057,242.681889116
184.072,242.860466607
184.087,243.038399674
184.102,243.215643704
184.117,243.392156826
184.132,243.5678998
184.147,243.742835959
184.162,243.916931043
184.177,244.090153175
184.192,244.262472717
184.207,244.433862188
184.222,244.604296179
184.237,244.773751257
184.252,244.942205872
184.267,245.109640297
184.282,245.276036497
184.297,245.441378107
184.312,245.605650314
184.327,245.768839796
184.342,245.930934651
184.357,246.091924327
184.372,246.251799554
184.387,246.410552281
184.402,246.568175612
184.417,246.724663749
184.432,246.880011941
184.447,247.03421641
184.462,247.187274332
184.477,247.339183751
184.492,247.489943552
184.507,247.639553416
184.522,247.788013763
184.537,247.935325724
184.552,248.081491085
184.56,248.158977927
184.567,248.22651227
184.582,248.370392289
184.597,248.513134694
184.612,248.654743579
184.627,248.795223506
184.642,248.934579502
184.657,249.072817034
184.672,249.209941954
184.687,249.345960495
184.702,249.480879239
184.717,249.614705087
184.732,249.747445255
184.747,249.879107226
184.762,250.009698745
184.777,250.139227797
184.792,250.26770259
184.807,250.395131522
184.822,250.521523194
184.837,250.646886358
184.852,250.771229927
184.867,250.894562955
184.882,251.016894612
184.897,251.138234177
184.912,251.25859104
184.927,251.377974662
184.942,251.496394592
184.957,251.613860428
184.972,251.730381833
184.987,251.845968506
185.002,251.960630189
185.017,252.07437664
185.032,252.187217642
185.047,252.299162981
185.062,252.410222459
185.077,252.520405854
185.092,252.629722949
185.107,252.738183504
185.122,252.845797252
185.137,252.952573907
185.152,253.058523148
185.167,253.163654601
185.182,253.26797787
185.197,253.3715025
185.212,253.474237986
185.227,253.576193774
185.242,253.677379243
185.257,253.777803725
185.272,253.877476468
185.287,253.97640667
185.302,254.074603455
185.31,254.126678315
185.317,254.172075871
185.332,254.268832895
185.347,254.364883427
185.362,254.460236295
185.377,254.55490023
185.392,254.648883903
185.407,254.742195896
185.422,254.834844692
185.437,254.926838716
185.452,255.01818628
185.467,255.108895633
185.482,255.19897492
185.497,255.288432199
185.512,255.377275447
185.527,255.465512548
185.542,255.553151303
185.557,255.640199403
185.572,255.726664473
185.587,255.812554027
185.602,255.897875507
185.617,255.982636244
185.632,256.066843501
185.647,256.150504432
185.662,256.233626116
185.677,256.316215522
185.692,256.398279547
185.707,256.479825005
185.722,256.560858588
185.737,256.64138694
185.752,256.721416575
185.767,256.800953957
185.782,256.880005442
185.797,256.958577302
185.812,257.036675724
185.827,257.114306809
185.842,257.191476577
185.857,257.268190958
185.872,257.344455795
185.887,257.420276862
185.902,257.49565983
185.917,257.570610311
185.932,257.645133817
185.947,257.719235789
185.96,257.783120669
185.962,257.792921585
185.977,257.866196486
185.992,257.939065697
186.007,258.01153434
186.022,258.083607464
186.037,258.155290039
186.052,258.22658697
186.06,258.264455982
186.067,258.297503077
186.082,258.368043108
186.097,258.438211745
186.112,258.508013596
186.127,258.577453185
186.142,258.646534985
186.157,258.715263397
186.172,258.783642743
186.187,258.851677283
186.202,258.919371203
186.217,258.98672865
186.232,259.053753665
186.247,259.120450253
186.262,259.186822356
186.277,259.252873836
186.292,259.318608507
186.307,259.384030113
186.322,259.449142349
186.337,259.513948844
186.352,259.578453157
186.367,259.642658816
186.382,259.706569261
186.397,259.770187907
186.412,259.833518089
186.427,259.896563094
186.442,259.959326161
186.457,260.021810463
186.472,260.084019146
186.487,260.145955273
186.502,260.207621869
186.517,260.269021921
186.532,260.330158348
186.547,260.391034037
186.562,260.451651803
186.577,260.512014451
186.592,260.572124691
186.607,260.631985227
186.622,260.691598707
186.637,260.750967727
186.652,260.810094842
186.667,260.868982567
186.682,260.927633378
186.697,260.986049698
186.71,261.03648934
186.712,261.044233916
186.727,261.102188377
186.742,261.159915393
186.757,261.217417229
186.772,261.274696115
186.787,261.33175425
186.802,261.388593779
186.817,261.445216827
186.832,261.501625464
186.847,261.557821745
186.862,261.613807678
186.877,261.669585237
186.892,261.72515637
186.907,261.780522978
186.922,261.835686944
186.937,261.890650107
186.952,261.945414287
186.967,261.999981254
186.982,262.054352768
186.997,262.108530547
187.012,262.162516278
187.027,262.216311624
187.042,262.269918223
187.057,262.323337678
187.072,262.376571563
187.087,262.429621433
187.102,262.482488809
187.117,262.535175195
187.132,262.587682053
187.147,262.640010839
187.162,262.692162966
187.177,262.744139839
187.192,262.795942838
187.207,262.847573296
187.222,262.899032558
187.237,262.950321911
187.252,263.001442654
187.267,263.052396037
187.282,263.103183305
187.297,263.153805672
187.312,263.204264341
187.327,263.254560485
187.342,263.30469526
187.357,263.354669813
187.372,263.404485254
187.387,263.454142679
187.402,263.503643182
187.417,263.552987831
187.432,263.602177651
187.447,263.651213681
187.46,263.693587959
187.462,263.700096934
187.477,263.748828404
187.492,263.797409074
187.507,263.845839895
187.522,263.894121818
187.537,263.94225578
187.552,263.990242688
187.567,264.038083445
187.582,264.085778941
187.597,264.133330049
187.612,264.180737621
187.627,264.228002503
187.642,264.275125529
187.657,264.322107506
187.672,264.368949258
187.687,264.415651555
187.702,264.462215193
187.717,264.50864093
187.732,264.554929524
187.747,264.601081717
187.762,264.647098245
187.777,264.692979827
187.792,264.738727169
187.807,264.784340976
187.822,264.829821933
187.837,264.875170717
187.852,264.920388004
187.867,264.965474442
187.882,265.010430682
187.897,265.055257362
187.912,265.099955118
187.927,265.144524571
187.942,265.188966321
187.957,265.233280984
187.972,265.277469141
187.987,265.321531392
188.002,265.365468305
188.017,265.409280449
188.032,265.452968395
188.047,265.496532684
188.062,265.539973874
188.077,265.5832925
188.092,265.626489094
188.107,265.669564179
188.122,265.712518277
188.137,265.755351893
188.152,265.798065537
188.167,265.840659707
188.182,265.883134898
188.197,265.925491581
188.21,265.962105228
188.212,265.967730251
188.227,266.009851372
188.242,266.051855417
188.257,266.093742854
188.272,266.135514124
188.287,266.177169688
188.302,266.218709993
188.317,266.260135476
188.332,266.301446573
188.347,266.342643717
188.362,266.383727331
188.377,266.424697834
188.392,266.465555645
188.407,266.506301179
188.422,266.546934837
188.437,266.587457027
188.452,266.627868145
188.467,266.668168584
188.482,266.708358745
188.497,266.748438995
188.512,266.788409734
188.527,266.828271333
188.542,266.868024166
188.557,266.90766861
188.572,266.947205028
188.587,266.986633783
188.602,267.025955242
188.617,267.065169764
188.632,267.104277696
188.647,267.143279384
188.66,267.176995189
188.662,267.182175189
188.677,267.220965456
188.692,267.259650515
188.707,267.298230714
188.722,267.336706388
188.737,267.375077875
