# 01004 ENAS Ny-Alesund Ii Observations at 12Z 26 Aug 2019
Frequency [GHz],TB
175.31,264.074838423
175.322,264.096357165
175.337,264.123091997
175.352,264.149643936
175.367,264.176011783
175.382,264.202194335
175.397,264.228190394
175.412,264.253998762
175.427,264.279618236
175.442,264.30504762
175.457,264.330285717
175.472,264.355331328
175.487,264.380183257
175.502,264.404840311
175.517,264.429301295
175.532,264.453565016
175.547,264.477630282
175.562,264.501495906
175.577,264.525160694
175.592,264.548623464
175.607,264.571883027
175.622,264.594938206
175.637,264.617787815
175.652,264.640430675
175.667,264.662865611
175.682,264.685091445
175.697,264.707107013
175.712,264.728911139
175.727,264.750502659
175.742,264.771880406
175.757,264.793043224
175.772,264.813989953
175.787,264.834719442
175.802,264.855230534
175.817,264.875522087
175.832,264.895592955
175.847,264.915441999
175.862,264.935068081
175.877,264.954470072
175.892,264.973646844
175.907,264.992597271
175.922,265.011320236
175.937,265.029814625
175.952,265.048079327
175.967,265.066113237
175.982,265.083915258
175.997,265.101484295
176.012,265.118819258
176.027,265.135919062
176.042,265.152782632
176.057,265.169408892
176.072,265.185796782
176.087,265.201945234
176.102,265.2178532
176.117,265.233519628
176.132,265.24894348
176.147,265.264123719
176.162,265.27905932
176.177,265.293749261
176.192,265.308192529
176.207,265.322388119
176.222,265.336335028
176.237,265.350032268
176.252,265.363478856
176.267,265.376673814
176.282,265.389616179
176.297,265.402304985
176.31,265.41309612
176.312,265.414739288
176.327,265.426918142
176.342,265.438840616
176.357,265.450505781
176.372,265.461912723
176.387,265.473060539
176.402,265.483948327
176.417,265.494575204
176.432,265.504940287
176.447,265.515042713
176.46,265.523585021
176.462,265.524881617
176.477,265.534456158
176.492,265.543765497
176.507,265.552808803
176.522,265.561585263
176.537,265.570094067
176.552,265.578334425
176.567,265.58630555
176.582,265.59400667
176.597,265.601437025
176.612,265.608595863
176.627,265.615482449
176.642,265.622096056
176.657,265.628435968
176.672,265.634501486
176.687,265.64029192
176.702,265.645806595
176.717,265.651044841
176.732,265.656006014
176.747,265.66068947
176.762,265.665094586
176.777,265.669220749
176.792,265.673067361
176.807,265.676633837
176.822,265.679919606
176.837,265.682924108
176.852,265.685646804
176.867,265.688087159
176.882,265.690244663
176.897,265.692118811
176.912,265.69370912
176.927,265.695015116
176.942,265.696036345
176.957,265.696772361
176.972,265.697222742
176.987,265.697387073
177.002,265.697264958
177.017,265.696856018
177.032,265.696159886
177.047,265.695176213
177.062,265.693904665
177.077,265.692344924
177.092,265.690496689
177.107,265.688359673
177.122,265.685933607
177.137,265.683218238
177.152,265.680213327
177.167,265.676918656
177.182,265.67333402
177.197,265.669459232
177.21,265.665866249
177.212,265.665294122
177.227,265.660838537
177.242,265.656092339
177.257,265.651055411
177.272,265.645727649
177.287,265.640108968
177.302,265.634199299
177.31,265.630928475
177.317,265.627998591
177.332,265.621506812
177.347,265.614723948
177.362,265.607649995
177.377,265.600284977
177.392,265.592628929
177.407,265.584681902
177.422,265.576443971
177.437,265.567915224
177.452,265.559095769
177.467,265.549985728
177.482,265.540585247
177.497,265.530894482
177.512,265.520913615
177.527,265.510642837
177.542,265.500082363
177.557,265.489232423
177.572,265.478093268
177.587,265.46666516
177.602,265.454948385
177.617,265.442943243
177.632,265.430650056
177.647,265.418069156
177.66,265.406933257
177.662,265.405200899
177.677,265.392045655
177.692,265.378603815
177.707,265.364875783
177.722,265.350861982
177.737,265.336562852
177.752,265.321978851
177.767,265.307110453
177.782,265.291958148
177.797,265.276522445
177.812,265.26080387
177.827,265.244802961
177.842,265.228520278
177.857,265.211956394
177.872,265.195111898
177.887,265.1779874
177.902,265.160583518
177.917,265.142900893
177.932,265.124940175
177.947,265.106702035
177.96,265.090671772
177.962,265.088187159
177.977,265.069396241
177.992,265.050329999
178.007,265.030989164
178.022,265.011374477
178.037,264.991486694
178.052,264.97132659
178.067,264.950894951
178.082,264.930192574
178.097,264.909220274
178.112,264.887978877
178.127,264.866469223
178.142,264.844692164
178.157,264.822648567
178.172,264.800339304
178.187,264.777765267
178.202,264.754927355
178.217,264.731826483
178.232,264.708463572
178.247,264.684839555
178.262,264.66095538
178.277,264.636812
178.292,264.612410381
178.307,264.587751498
178.322,264.562836332
178.337,264.537665878
178.352,264.512241141
178.367,264.486563126
178.382,264.460632855
178.397,264.434451349
178.41,264.41155829
178.412,264.408019644
178.427,264.381338781
178.442,264.354409805
178.457,264.327233768
178.472,264.29981173
178.487,264.272144757
178.502,264.244233914
178.517,264.216080278
178.532,264.187684926
178.547,264.159048939
178.562,264.130173405
178.577,264.101059412
178.592,264.071708051
178.607,264.042120416
178.622,264.012297602
178.637,263.982240707
178.652,263.951950827
178.667,263.921429064
178.682,263.890676514
178.697,263.859694276
178.712,263.828483451
178.727,263.797045134
178.742,263.765380418
178.757,263.733490397
178.772,263.701376166
178.787,263.669038807
178.802,263.63647941
178.817,263.603699051
178.832,263.57069881
178.847,263.537479757
178.862,263.50404296
178.877,263.470389479
178.892,263.43652037
178.907,263.402436681
178.922,263.368139455
178.937,263.333629727
178.952,263.29890852
178.967,263.263976855
178.982,263.228835739
178.997,263.193486178
179.012,263.157929156
179.027,263.122165657
179.042,263.086196651
179.057,263.050023097
179.072,263.013645943
179.087,262.977066124
179.102,262.940284566
179.117,262.903302178
179.132,262.866119858
179.147,262.828738492
179.16,262.796180974
179.162,262.791158948
179.177,262.753382085
179.192,262.71540874
179.207,262.677239746
179.222,262.638875907
179.237,262.600318021
179.252,262.561566866
179.267,262.522623201
179.282,262.483487773
179.297,262.444161308
179.312,262.404644515
179.327,262.364938082
179.342,262.325042686
179.357,262.284958977
179.372,262.244687587
179.387,262.204229132
179.402,262.163584208
179.417,262.122753385
179.432,262.081737219
179.447,262.04053624
179.462,261.999150957
179.477,261.957581865
179.492,261.915829428
179.507,261.873894092
179.522,261.831776278
179.537,261.789476388
179.552,261.746994801
179.567,261.704331868
179.582,261.661487921
179.597,261.618463267
179.612,261.575258191
179.627,261.53187295
179.642,261.488307781
179.657,261.444562892
179.672,261.400638471
179.687,261.356534677
179.702,261.312251649
179.717,261.267789495
179.732,261.223148303
179.747,261.17832813
179.762,261.133329015
179.777,261.088150962
179.792,261.042793958
179.807,260.997257958
179.822,260.951542897
179.837,260.905648678
179.852,260.859575176
179.867,260.81332225
179.882,260.766889723
179.897,260.7202774
179.91,260.679734442
179.912,260.673485052
179.927,260.626512428
179.942,260.579359247
179.957,260.532025209
179.972,260.484509978
179.987,260.436813203
180.002,260.388934496
180.017,260.340873448
180.032,260.292629626
180.047,260.244202567
180.062,260.195591782
180.077,260.14679676
180.092,260.09781696
180.107,260.048651818
180.122,259.999300743
180.137,259.949763119
180.152,259.900038306
180.167,259.850125638
180.182,259.800024422
180.197,259.749733944
180.212,259.699253462
180.227,259.648582212
180.242,259.597719404
180.257,259.546664226
180.272,259.495415839
180.287,259.443973386
180.302,259.392335983
180.317,259.340502719
180.332,259.288472667
180.347,259.236244879
180.362,259.183818376
180.377,259.131192164
180.392,259.078365225
180.407,259.025336522
180.422,258.972104994
180.437,258.918669563
180.452,258.865029125
180.467,258.811182565
180.482,258.757128738
180.497,258.702866489
180.512,258.648394642
180.527,258.593711999
180.542,258.538817349
180.557,258.48370946
180.56,258.472662185
180.572,258.428387086
180.587,258.372848963
180.602,258.317093811
180.617,258.261120336
180.632,258.204927225
180.647,258.148513158
180.66,258.099441199
180.662,258.091876792
180.677,258.035016778
180.692,257.977931752
180.707,257.920620336
180.722,257.863081139
180.737,257.805312765
180.752,257.747313805
180.767,257.689082834
180.782,257.630618426
180.797,257.571919143
180.812,257.512983541
180.827,257.453810164
180.842,257.394397552
180.857,257.334744244
180.872,257.274848767
180.887,257.214709645
180.902,257.154325404
180.917,257.093694557
180.932,257.032815626
180.947,256.971687124
180.962,256.910307566
180.977,256.848675467
180.992,256.78678935
181.007,256.724647728
181.022,256.662249124
181.037,256.599592065
181.052,256.536675087
181.067,256.473496723
181.082,256.410055518
181.097,256.346350027
181.112,256.282378809
181.127,256.218140437
181.142,256.153633496
181.157,256.088856583
181.172,256.023808302
181.187,255.958487282
181.202,255.892892164
181.217,255.827021606
181.232,255.760874283
181.247,255.694448892
181.262,255.627744155
181.277,255.56075881
181.292,255.493491627
181.307,255.425941398
181.31,255.412397282
181.322,255.358106942
181.337,255.289987109
181.352,255.221580779
181.367,255.152886869
181.382,255.083904328
181.397,255.014632142
181.412,254.945069335
181.427,254.875214974
181.442,254.80506817
181.457,254.734628077
181.472,254.663893901
181.487,254.592864896
181.502,254.521540367
181.517,254.449919683
181.532,254.378002266
181.547,254.3057876
181.562,254.233275237
181.577,254.160464798
181.592,254.087355975
181.607,254.013948537
181.622,253.94024233
181.637,253.86623729
181.652,253.791933438
181.667,253.717330886
181.682,253.642429852
181.697,253.567230648
181.712,253.491733696
181.727,253.415939536
181.742,253.339848828
181.757,253.263462356
181.772,253.186781035
181.787,253.109805919
181.802,253.032538219
181.817,252.954979287
181.832,252.877130649
181.847,252.798993995
181.862,252.720571202
181.877,252.641864329
181.892,252.562875644
181.907,252.483607618
181.922,252.404062945
181.937,252.324244558
181.952,252.244155627
181.967,252.163799588
181.982,252.083180143
181.997,252.002301282
182.012,251.921167298
182.027,251.839782796
182.042,251.758152719
182.057,251.676282353
182.06,251.659879937
182.072,251.594177359
182.087,251.511843782
182.102,251.42928807
182.117,251.346517104
182.132,251.263538206
182.147,251.180359171
182.162,251.096988288
182.177,251.013434364
182.192,250.929706745
182.207,250.845815349
182.222,250.761770687
182.237,250.677583895
182.252,250.593266752
182.267,250.508831734
182.282,250.424292016
182.297,250.339661522
182.312,250.25495495
182.327,250.170187808
182.342,250.085376451
182.357,250.0005381
182.372,249.9156909
182.387,249.830853939
182.402,249.746047295
182.417,249.661292059
182.432,249.57661039
182.447,249.492025533
182.462,249.407561873
182.477,249.323244958
182.492,249.239101545
182.507,249.155159629
182.522,249.071448484
182.537,248.98799869
182.552,248.904842164
182.567,248.822012207
182.582,248.739543509
182.597,248.657472191
182.612,248.575835828
182.627,248.494673459
182.642,248.41402562
182.657,248.333934336
182.672,248.254443153
182.687,248.175597124
182.702,248.097442816
182.717,248.020028301
182.732,247.94340314
182.747,247.867618366
182.762,247.792726451
182.777,247.718781276
182.792,247.645838077
182.807,247.573953403
182.822,247.503185038
182.837,247.433591945
182.852,247.365234162
182.867,247.298172723
182.882,247.232469543
182.897,247.168187304
182.912,247.105389323
182.927,247.044139409
182.942,246.984501713
182.957,246.926540561
182.972,246.870320279
182.987,246.815905001
183.002,246.763358472
183.017,246.712743844
183.032,246.664123448
183.047,246.617558581
183.062,246.573109264
183.077,246.530834009
183.092,246.490789575
183.107,246.453030727
183.122,246.417609982
183.137,246.384577388
183.152,246.353980261
183.167,246.325862965
183.182,246.300266696
183.197,246.277229252
183.212,246.256784844
183.227,246.238963914
183.242,246.223792958
183.257,246.211294383
183.367,246.202364293
183.382,246.212424845
183.397,246.225155989
183.412,246.240534975
183.427,246.258534977
183.442,246.279125266
183.457,246.302271357
183.472,246.327935215
183.487,246.356075441
183.502,246.386647497
183.517,246.419603924
183.532,246.454894578
183.547,246.492466869
183.562,246.532265999
183.577,246.574235208
183.592,246.618316016
183.607,246.664448467
183.622,246.712571359
183.637,246.762622477
183.652,246.81453882
183.667,246.868256814
183.682,246.923712515
183.697,246.98084181
183.712,247.039580602
183.727,247.099864983
183.742,247.161631392
183.757,247.224816781
183.772,247.289358739
183.787,247.355195624
183.802,247.422266687
183.817,247.490512162
183.832,247.559873375
183.847,247.630292816
183.862,247.701714208
183.877,247.774082589
183.892,247.847344338
183.907,247.921447238
183.922,247.996340506
183.937,248.071974818
183.952,248.148302331
183.967,248.225276694
183.982,248.302853064
183.997,248.380988093
184.012,248.459639937
184.027,248.53876824
184.042,248.618334118
184.057,248.698300154
184.072,248.778630366
184.087,248.859290188
184.102,248.940246446
184.117,249.021467323
184.132,249.102922339
184.147,249.184582307
184.162,249.266419311
184.177,249.348406664
184.192,249.430518873
184.207,249.512731616
184.222,249.595021679
184.237,249.67736695
184.252,249.759746359
184.267,249.842139858
184.282,249.924528372
184.297,250.006893774
184.312,250.089218839
184.327,250.171487218
184.342,250.253683401
184.357,250.335792682
184.372,250.417801125
184.387,250.499695535
184.402,250.581463427
184.417,250.663092995
184.432,250.744573079
184.447,250.825893142
184.462,250.907043237
184.477,250.988013991
184.492,251.068796558
184.507,251.149382624
184.522,251.22976435
184.537,251.309934378
184.552,251.389885793
184.56,251.432434901
184.567,251.469612102
184.582,251.549107223
184.597,251.628365454
184.612,251.707381464
184.627,251.786150268
184.642,251.864667217
184.657,251.942927971
184.672,252.020928498
184.687,252.098665045
184.702,252.176134133
184.717,252.253332542
184.732,252.330257292
184.747,252.406905636
184.762,252.483275056
184.777,252.559363233
184.792,252.635168056
184.807,252.710687595
184.822,252.785920106
184.837,252.860864012
184.852,252.9355179
184.867,253.009880512
184.882,253.083950733
184.897,253.157727591
184.912,253.231210238
184.927,253.304397961
184.942,253.377290162
184.957,253.449886355
184.972,253.522186159
184.987,253.594189305
185.002,253.66589561
185.017,253.737304986
185.032,253.808417439
185.047,253.879233051
185.062,253.949751987
185.077,254.019974485
185.092,254.089900856
185.107,254.159531477
185.122,254.228866795
185.137,254.297907314
185.152,254.366653595
185.167,254.435106262
185.182,254.503265981
185.197,254.571133479
185.212,254.638709522
185.227,254.705994928
185.242,254.772990554
185.257,254.839697299
185.272,254.906116103
185.287,254.972247936
185.302,255.038093814
185.31,255.073095049
185.317,255.103654776
185.332,255.168931896
185.347,255.233926279
185.362,255.298639057
185.377,255.36307139
185.392,255.427224458
185.407,255.491099471
185.422,255.554697659
185.437,255.61802027
185.452,255.681068576
185.467,255.743843865
185.482,255.806347442
185.497,255.868580631
185.512,255.930544765
185.527,255.992241199
185.542,256.053671292
185.557,256.114836424
185.572,256.175737977
185.587,256.236377349
185.602,256.296755947
185.617,256.35687518
185.632,256.41673647
185.647,256.476341246
185.662,256.535690937
185.677,256.594786981
185.692,256.653630819
185.707,256.712223896
185.722,256.770567655
185.737,256.828663548
185.752,256.886513023
185.767,256.944117528
185.782,257.001478516
185.797,257.058597431
185.812,257.115475722
185.827,257.172114834
185.842,257.228516208
185.857,257.284681281
185.872,257.34061149
185.887,257.396308262
185.902,257.451773024
185.917,257.507007191
185.932,257.562012181
185.947,257.616789399
185.96,257.664079826
185.962,257.671340242
185.977,257.725666101
185.992,257.779768364
186.007,257.833648404
186.022,257.887307586
186.037,257.940747267
186.052,257.993968795
186.06,258.022264872
186.067,258.046973507
186.082,258.099762728
186.097,258.152337773
186.112,258.204699948
186.127,258.256850544
186.142,258.308790842
186.157,258.360522106
186.172,258.412045597
186.187,258.463362552
186.202,258.514474203
186.217,258.565381764
186.232,258.616086437
186.247,258.666589407
186.262,258.716891847
186.277,258.766994916
186.292,258.816899757
186.307,258.866607495
186.322,258.916119243
186.337,258.9654361
186.352,259.014559142
186.367,259.063489436
186.382,259.11222803
186.397,259.160775955
186.412,259.209134226
186.427,259.257303842
186.442,259.305285782
186.457,259.35308101
186.472,259.400690476
186.487,259.448115105
186.502,259.49535581
186.517,259.542413483
186.532,259.589289002
186.547,259.635983225
186.562,259.682496991
186.577,259.728831122
186.592,259.774986423
186.607,259.820963676
186.622,259.86676365
186.637,259.912387095
186.652,259.957834737
186.667,260.003107292
186.682,260.048205451
186.697,260.093129887
186.71,260.131924384
186.712,260.137881258
186.727,260.182460199
186.742,260.226867329
186.757,260.271103246
186.772,260.315168535
186.787,260.359063754
186.802,260.402789451
186.817,260.446346147
186.832,260.489734351
186.847,260.532954548
186.862,260.57600721
186.877,260.618892786
186.892,260.661611709
186.907,260.704164395
186.922,260.746551235
186.937,260.788772607
186.952,260.830828876
186.967,260.872720375
186.982,260.914447432
186.997,260.95601035
187.012,260.997409417
187.027,261.038644903
187.042,261.079717059
187.057,261.120626118
187.072,261.161372301
187.087,261.201955803
187.102,261.242376809
187.117,261.282635486
187.132,261.322731979
187.147,261.362666426
187.162,261.402438936
187.177,261.442049612
187.192,261.481498534
187.207,261.520785773
187.222,261.559911375
187.237,261.598875381
187.252,261.637677805
187.267,261.676318655
187.282,261.714797918
187.297,261.753115572
187.312,261.791271571
187.327,261.829265863
187.342,261.86709838
187.357,261.904769033
187.372,261.942277731
187.387,261.979624357
187.402,262.016808789
187.417,262.053830891
187.432,262.090690505
187.447,262.127387473
187.46,262.159059812
187.462,262.163921615
187.477,262.200292744
187.492,262.23650066
187.507,262.272545144
187.522,262.308425978
187.537,262.344142921
187.552,262.379695729
187.567,262.415084143
187.582,262.450307892
187.597,262.4853667
187.612,262.520260275
187.627,262.554988319
187.642,262.589550523
187.657,262.623946567
187.672,262.658176127
187.687,262.692238863
187.702,262.726134434
187.717,262.759862485
187.732,262.793422654
187.747,262.826814572
187.762,262.860037864
187.777,262.893092148
187.792,262.925977029
187.807,262.958692114
187.822,262.991236997
187.837,263.023611268
187.852,263.055814514
187.867,263.087846311
187.882,263.119706235
187.897,263.151393851
187.912,263.182908724
187.927,263.214250413
187.942,263.245418477
187.957,263.27641246
187.972,263.307231914
187.987,263.337876381
188.002,263.3683454
188.017,263.398638514
188.032,263.428755253
188.047,263.458695152
188.062,263.48845774
188.077,263.518042548
188.092,263.5474491
188.107,263.576676924
188.122,263.605725546
188.137,263.634594488
188.152,263.663283274
188.167,263.691791426
188.182,263.720118469
188.197,263.748263925
188.21,263.772509401
188.212,263.776227318
188.227,263.804008171
188.242,263.831606012
188.257,263.859020364
188.272,263.886250758
188.287,263.913296721
188.302,263.940157784
188.317,263.966833481
188.332,263.99332335
188.347,264.019626925
188.362,264.045743747
188.377,264.071673362
188.392,264.097415317
188.407,264.122969159
188.422,264.148334445
188.437,264.173510732
188.452,264.198497581
188.467,264.223294557
188.482,264.247901231
188.497,264.272317179
188.512,264.296541977
188.527,264.320575212
188.542,264.344416473
188.557,264.368065353
188.572,264.391521454
188.587,264.414784382
188.602,264.437853748
188.617,264.460729169
188.632,264.483410269
188.647,264.505896679
188.66,264.525227137
188.662,264.528188034
188.677,264.550283977
188.692,264.572184159
188.707,264.593888235
188.722,264.61539587
