# 48698 WSSS Singapore Observations at 12Z 14 Sep 2019
Frequency [GHz],TB
175.31,277.044110103
175.322,277.020311517
175.337,276.990492086
175.352,276.960593363
175.367,276.930615154
175.382,276.90055726
175.397,276.870419488
175.412,276.840201638
175.427,276.809903513
175.442,276.779524914
175.457,276.749065642
175.472,276.718525497
175.487,276.687904278
175.502,276.657201783
175.517,276.626417811
175.532,276.595552158
175.547,276.564604622
175.562,276.533574998
175.577,276.50246308
175.592,276.471268665
175.607,276.439991544
175.622,276.408631513
175.637,276.377188362
175.652,276.345661885
175.667,276.314051871
175.682,276.282358112
175.697,276.250580397
175.712,276.218718516
175.727,276.186772257
175.742,276.154741408
175.757,276.122625756
175.772,276.090425087
175.787,276.058139188
175.802,276.025767844
175.817,275.993310839
175.832,275.960767958
175.847,275.928138983
175.862,275.895423697
175.877,275.862621883
175.892,275.829733321
175.907,275.796757793
175.922,275.763695079
175.937,275.730544958
175.952,275.697307209
175.967,275.66398161
175.982,275.63056794
175.997,275.597065975
176.012,275.563475491
176.027,275.529796265
176.042,275.496028072
176.057,275.462170686
176.072,275.428223881
176.087,275.394187431
176.102,275.360061108
176.117,275.325844686
176.132,275.291537934
176.147,275.257140626
176.162,275.22265253
176.177,275.188073417
176.192,275.153403056
176.207,275.118641217
176.222,275.083787666
176.237,275.048842172
176.252,275.013804501
176.267,274.978674421
176.282,274.943451697
176.297,274.908136093
176.31,274.877453927
176.312,274.872727376
176.327,274.837225309
176.342,274.801629656
176.357,274.765940179
176.372,274.730156642
176.387,274.694278806
176.402,274.658306433
176.417,274.622239283
176.432,274.586077117
176.447,274.549819695
176.46,274.518319357
176.462,274.513466775
176.477,274.477018117
176.492,274.440473478
176.507,274.403832615
176.522,274.367095287
176.537,274.330261248
176.552,274.293330256
176.567,274.256302066
176.582,274.219176431
176.597,274.181953106
176.612,274.144631846
176.627,274.107212403
176.642,274.069694529
176.657,274.032077976
176.672,273.994362496
176.687,273.95654784
176.702,273.918633758
176.717,273.880619998
176.732,273.842506312
176.747,273.804292446
176.762,273.765978149
176.777,273.727563167
176.792,273.689047249
176.807,273.650430138
176.822,273.611711582
176.837,273.572891325
176.852,273.53396911
176.867,273.494944681
176.882,273.455817782
176.897,273.416588153
176.912,273.377255538
176.927,273.337819675
176.942,273.298280306
176.957,273.25863717
176.972,273.218890005
176.987,273.17903855
177.002,273.139082541
177.017,273.099021714
177.032,273.058855806
177.047,273.01858455
177.062,272.978207681
177.077,272.937724933
177.092,272.897136036
177.107,272.856440722
177.122,272.815638723
177.137,272.774729766
177.152,272.733713582
177.167,272.692589896
177.182,272.651358437
177.197,272.610018928
177.21,272.574103742
177.212,272.568571096
177.227,272.527014662
177.242,272.48534935
177.257,272.443574881
177.272,272.401690973
177.287,272.359697347
177.302,272.317593719
177.31,272.295093375
177.317,272.275379806
177.332,272.233055322
177.347,272.190619982
177.362,272.148073496
177.377,272.105415576
177.392,272.06264593
177.407,272.019764267
177.422,271.976770293
177.437,271.933663711
177.452,271.890444224
177.467,271.847111534
177.482,271.803665339
177.497,271.760105337
177.512,271.716431223
177.527,271.672642691
177.542,271.628739432
177.557,271.584721135
177.572,271.540587488
177.587,271.496338176
177.602,271.451972881
177.617,271.407491283
177.632,271.362893061
177.647,271.31817789
177.66,271.27932989
177.662,271.273345442
177.677,271.228395388
177.692,271.183327395
177.707,271.138141128
177.722,271.092836248
177.737,271.047412413
177.752,271.00186928
177.767,270.956206499
177.782,270.910423721
177.797,270.864520591
177.812,270.818496749
177.827,270.772351836
177.842,270.726085485
177.857,270.679697327
177.872,270.633186989
177.887,270.586554094
177.902,270.539798259
177.917,270.492919099
177.932,270.445916223
177.947,270.398789237
177.96,270.357845148
177.962,270.35153774
177.977,270.304161328
177.992,270.256659591
178.007,270.209032114
178.022,270.161278476
178.037,270.113398252
178.052,270.065391011
178.067,270.017256314
178.082,269.968993719
178.097,269.920602777
178.112,269.87208303
178.127,269.823434017
178.142,269.774655268
178.157,269.725746308
178.172,269.676706654
178.187,269.627535813
178.202,269.57823329
178.217,269.528798578
178.232,269.479231162
178.247,269.429530522
178.262,269.379696127
178.277,269.329727438
178.292,269.279623907
178.307,269.229384977
178.322,269.179010083
178.337,269.128498647
178.352,269.077850085
178.367,269.027063801
178.382,268.976139188
178.397,268.92507563
178.41,268.88070767
178.412,268.873872498
178.427,268.822529154
178.442,268.771044947
178.457,268.719419215
178.472,268.667651282
178.487,268.615740463
178.502,268.563686056
178.517,268.511487351
178.532,268.459143619
178.547,268.406654122
178.562,268.354018105
178.577,268.3012348
178.592,268.248303423
178.607,268.195223177
178.622,268.141993247
178.637,268.088612803
178.652,268.035081
178.667,267.981396974
178.682,267.927559846
178.697,267.873568718
178.712,267.819422676
178.727,267.765120786
178.742,267.710662097
178.757,267.656045635
178.772,267.601270412
178.787,267.546335415
178.802,267.491239615
178.817,267.435981958
178.832,267.38056137
178.847,267.324976758
178.862,267.269227001
178.877,267.21331096
178.892,267.157227472
178.907,267.100975346
178.922,267.044553373
178.937,266.987960314
178.952,266.931194908
178.967,266.874255865
178.982,266.817141871
178.997,266.759851584
179.012,266.702383635
179.027,266.644736626
179.042,266.58690913
179.057,266.528899694
179.072,266.47070683
179.087,266.412329025
179.102,266.35376473
179.117,266.295012368
179.132,266.236070328
179.147,266.176936967
179.16,266.125532001
179.162,266.117610607
179.177,266.05808954
179.192,265.998372017
179.207,265.93845626
179.222,265.87834045
179.237,265.818022735
179.252,265.757501224
179.267,265.696773987
179.282,265.635839059
179.297,265.574694432
179.312,265.513338059
179.327,265.451767855
179.342,265.38998169
179.357,265.327977394
179.372,265.265752754
179.387,265.203305514
179.402,265.140633374
179.417,265.077733988
179.432,265.014604966
179.447,264.951243871
179.462,264.88764822
179.477,264.823815481
179.492,264.759743076
179.507,264.695428376
179.522,264.630868703
179.537,264.566061329
179.552,264.501003475
179.567,264.435692309
179.582,264.370124948
179.597,264.304298455
179.612,264.23820984
179.627,264.171856057
179.642,264.105234005
179.657,264.038340529
179.672,263.971172415
179.687,263.903726393
179.702,263.835999134
179.717,263.76798725
179.732,263.699687297
179.747,263.631095767
179.762,263.562209093
179.777,263.493023647
179.792,263.423535738
179.807,263.353741614
179.822,263.283637458
179.837,263.213219392
179.852,263.142483471
179.867,263.071425686
179.882,263.000041962
179.897,262.92832816
179.91,262.865905951
179.912,262.856280072
179.927,262.783893425
179.942,262.711163876
179.957,262.638087016
179.972,262.564658367
179.987,262.490873381
180.002,262.416727443
180.017,262.342215866
180.032,262.267333893
180.047,262.192076698
180.062,262.116439382
180.077,262.040416976
180.092,261.96400444
180.107,261.887196662
180.122,261.809988457
180.137,261.732374569
180.152,261.654349668
180.167,261.575908354
180.182,261.497045154
180.197,261.417754519
180.212,261.338030832
180.227,261.2578684
180.242,261.177261458
180.257,261.09620417
180.272,261.014690625
180.287,260.932714842
180.302,260.850270767
180.317,260.767352272
180.332,260.683953161
180.347,260.600067164
180.362,260.51568794
180.377,260.430809081
180.392,260.345424104
180.407,260.259526459
180.422,260.173109528
180.437,260.086166623
180.452,259.998690988
180.467,259.910675802
180.482,259.822114176
180.497,259.732999157
180.512,259.643323727
180.527,259.553080805
180.542,259.462263248
180.557,259.37086385
180.56,259.352513512
180.572,259.278875348
180.587,259.186290417
180.602,259.093101678
180.617,258.999301692
180.632,258.904882969
180.647,258.809837965
180.66,258.726953165
180.662,258.714159083
180.677,258.617838677
180.692,258.520869055
180.707,258.423242477
180.722,258.324951158
180.737,258.225987274
180.752,258.126342957
180.767,258.026010306
180.782,257.92498138
180.797,257.823248208
180.812,257.720802787
180.827,257.617637086
180.842,257.513743049
180.857,257.409112598
180.872,257.303737633
180.887,257.19761004
180.902,257.090721691
180.917,256.983064445
180.932,256.874630156
180.947,256.765410675
180.962,256.65539785
180.977,256.544583534
180.992,256.432959587
181.007,256.320517879
181.022,256.207250297
181.037,256.093148743
181.052,255.978205146
181.067,255.86241146
181.082,255.745759671
181.097,255.628241802
181.112,255.509849916
181.127,255.390576123
181.142,255.270412581
181.157,255.149351506
181.172,255.027385174
181.187,254.904505925
181.202,254.780706173
181.217,254.655978407
181.232,254.530315197
181.247,254.403709203
181.262,254.276153178
181.277,254.147639974
181.292,254.018162548
181.307,253.88771397
181.31,253.861507115
181.322,253.756287427
181.337,253.623876231
181.352,253.490473823
181.367,253.356073782
181.382,253.22066983
181.397,253.08425584
181.412,252.946825842
181.427,252.808374029
181.442,252.668894766
181.457,252.528382595
181.472,252.386832241
181.487,252.244238624
181.502,252.100596861
181.517,251.955902275
181.532,251.810150402
181.547,251.663336999
181.562,251.51545805
181.577,251.366509776
181.592,251.216488636
181.607,251.065391341
181.622,250.913214859
181.637,250.759956421
181.652,250.605613526
181.667,250.450183956
181.682,250.293665774
181.697,250.136057337
181.712,249.9773573
181.727,249.817564624
181.742,249.656678583
181.757,249.49469877
181.772,249.331625105
181.787,249.16745784
181.802,249.002197565
181.817,248.835845218
181.832,248.668402087
181.847,248.49986982
181.862,248.330250428
181.877,248.159546293
181.892,247.987760176
181.907,247.814895218
181.922,247.640954951
181.937,247.465943304
181.952,247.289864605
181.967,247.112723593
181.982,246.934525421
181.997,246.755275663
182.012,246.574980324
182.027,246.393645844
182.042,246.21127911
182.057,246.027887459
182.06,245.991086817
182.072,245.843478692
182.087,245.658061083
182.102,245.471643386
182.117,245.284234851
182.132,245.095845237
182.147,244.906484822
182.162,244.716164422
182.177,244.524895407
182.192,244.332689723
182.207,244.139559908
182.222,243.94551912
182.237,243.750581163
182.252,243.554760515
182.267,243.35807236
182.282,243.160532626
182.297,242.962158025
182.312,242.762966094
182.327,242.562975248
182.342,242.362204832
182.357,242.160675182
182.372,241.958407688
182.387,241.755424868
182.402,241.551750446
182.417,241.347409441
182.432,241.142428256
182.447,240.936834786
182.462,240.730658528
182.477,240.523930699
182.492,240.316684375
182.507,240.108954623
182.522,239.900778662
182.537,239.692196024
182.552,239.483248731
182.567,239.273981483
182.582,239.064441861
182.597,238.85468054
182.612,238.644751518
182.627,238.434712356
182.642,238.224624433
182.657,238.014553214
182.672,237.804568528
182.687,237.594744865
182.702,237.385161678
182.717,237.175903699
182.732,236.967061269
182.747,236.75873067
182.762,236.55101447
182.777,236.344021869
182.792,236.137869059
182.807,235.932679571
182.822,235.728584636
182.837,235.525723535
182.852,235.324243951
182.867,235.124302302
182.882,234.926064084
182.897,234.729704188
182.912,234.53540722
182.927,234.343367808
182.942,234.15379091
182.957,233.966892136
182.972,233.782898089
182.987,233.602046756
183.002,233.424587982
183.017,233.250784079
183.032,233.080910633
183.047,232.915257614
183.062,232.754130897
183.077,232.597854379
183.092,232.446772872
183.107,232.301256027
183.122,232.161703539
183.137,232.028551887
183.152,231.902282733
183.167,231.783432881
183.182,231.672605164
183.197,231.570478809
183.212,231.477816524
183.227,231.39546394
183.242,231.32433552
183.257,231.265380566
183.367,231.264759978
183.382,231.323124101
183.397,231.39343176
183.412,231.474738466
183.427,231.566144827
183.442,231.666825079
183.457,231.776037243
183.472,231.89312134
183.487,232.0174912
183.502,232.148623819
183.517,232.286048643
183.532,232.429338002
183.547,232.578099147
183.562,232.731967937
183.577,232.890603986
183.592,233.053687034
183.607,233.220914274
183.622,233.39199841
183.637,233.566666251
183.652,233.744657697
183.667,233.925724988
183.682,234.109632135
183.697,234.296154476
183.712,234.4850783
183.727,234.676200513
183.742,234.869328322
183.757,235.064278933
183.772,235.260879234
183.787,235.458965488
183.802,235.658382996
183.817,235.858985773
183.832,236.0606362
183.847,236.263204675
183.862,236.466569264
183.877,236.670615343
183.892,236.875235244
183.907,237.080327903
183.922,237.285798514
183.937,237.491558185
183.952,237.697523607
183.967,237.903616729
183.982,238.109764442
183.997,238.31589828
184.012,238.521954124
184.027,238.72787193
184.042,238.933595458
184.057,239.139072022
184.072,239.344252252
184.087,239.549089864
184.102,239.75354145
184.117,239.957566279
184.132,240.161126102
184.147,240.364184985
184.162,240.56670914
184.177,240.768666773
184.192,240.970027942
184.207,241.170764429
184.222,241.370849611
184.237,241.570258356
184.252,241.768966915
184.267,241.966952825
184.282,242.164194829
184.297,242.360672787
184.312,242.556367611
184.327,242.751261193
184.342,242.945336346
184.357,243.138576747
184.372,243.33096689
184.387,243.522492038
184.402,243.713138182
184.417,243.902892003
184.432,244.091740839
184.447,244.279672655
184.462,244.466676012
184.477,244.652740047
184.492,244.837854445
184.507,245.022009423
184.522,245.205195711
184.537,245.387404531
184.552,245.568627588
184.56,245.664874094
184.567,245.74885705
184.582,245.928085542
184.597,246.106306129
184.612,246.283512307
184.627,246.459697995
184.642,246.634857525
184.657,246.808985631
184.672,246.982077445
184.687,247.154128488
184.702,247.32513466
184.717,247.495092239
184.732,247.663997868
184.747,247.831848554
184.762,247.998641657
184.777,248.164374888
184.792,248.3290463
184.807,248.492654283
184.822,248.655197559
184.837,248.816675174
184.852,248.977086492
184.867,249.136431192
184.882,249.294709258
184.897,249.451920976
184.912,249.608066926
184.927,249.763147977
184.942,249.91716528
184.957,250.070120261
184.972,250.222014617
184.987,250.372850307
185.002,250.522629548
185.017,250.671354808
185.032,250.819028798
185.047,250.965654465
185.062,251.111234991
185.077,251.255773779
185.092,251.399274452
185.107,251.541740844
185.122,251.683176994
185.137,251.823587139
185.152,251.962975709
185.167,252.101347319
185.182,252.238706764
185.197,252.375059011
185.212,252.510409194
185.227,252.644762606
185.242,252.778124697
185.257,252.91050106
185.272,253.041897435
185.287,253.172319695
185.302,253.301773842
185.31,253.370422313
185.317,253.430266002
185.332,253.557802422
185.347,253.684389457
185.362,253.810033571
185.377,253.934741329
185.392,254.058519392
185.407,254.18137451
185.422,254.303313519
185.437,254.424343334
185.452,254.544470945
185.467,254.663703412
185.482,254.782047861
185.497,254.899511476
185.512,255.016101498
185.527,255.131825218
185.542,255.246689975
185.557,255.360703149
185.572,255.473872158
185.587,255.586204454
185.602,255.697707518
185.617,255.808388858
185.632,255.918256004
185.647,256.027316504
185.662,256.135577919
185.677,256.243047824
185.692,256.3497338
185.707,256.455643433
185.722,256.56078431
185.737,256.665164016
185.752,256.768790132
185.767,256.87167023
185.782,256.973811872
185.797,257.075222606
185.812,257.175909965
185.827,257.275881462
185.842,257.375144591
185.857,257.473706821
185.872,257.571575595
185.887,257.668758329
185.902,257.765262409
185.917,257.861095189
185.932,257.956263987
185.947,258.050776087
185.96,258.13216098
185.962,258.144638735
185.977,258.237859138
185.992,258.33044446
186.007,258.422401825
186.022,258.513738309
186.037,258.604460945
186.052,258.69457672
186.06,258.742392724
186.067,258.784092569
186.082,258.87301538
186.097,258.961351989
186.112,259.049109182
186.127,259.136293689
186.142,259.222912188
186.157,259.308971301
186.172,259.394477596
186.187,259.479437581
186.202,259.56385771
186.217,259.647744376
186.232,259.731103915
186.247,259.813942603
186.262,259.896266655
186.277,259.978082226
186.292,260.059395411
186.307,260.140212241
186.322,260.220538686
186.337,260.300380655
186.352,260.379743993
186.367,260.458634482
186.382,260.537057842
186.397,260.615019727
186.412,260.692525729
186.427,260.769581378
186.442,260.846192138
186.457,260.922363408
186.472,260.998100527
186.487,261.073408766
186.502,261.148293334
186.517,261.222759377
186.532,261.296811975
186.547,261.370456146
186.562,261.443696844
186.577,261.516538959
186.592,261.588987318
186.607,261.661046686
186.622,261.732721764
186.637,261.804017191
186.652,261.874937544
186.667,261.945487336
186.682,262.015671022
186.697,262.085492993
186.71,262.145716129
186.712,262.154957579
186.727,262.22406905
186.742,262.292831616
186.757,262.361249426
186.772,262.429326571
186.787,262.497067081
186.802,262.56447493
186.817,262.63155403
186.832,262.69830824
186.847,262.764741358
186.862,262.830857126
186.877,262.89665923
186.892,262.962151301
186.907,263.027336914
186.922,263.092219589
186.937,263.156802791
186.952,263.221089933
186.967,263.285084373
186.982,263.348789417
186.997,263.41220832
187.012,263.475344284
187.027,263.53820046
187.042,263.600779949
187.057,263.663085803
187.072,263.725121022
187.087,263.786888561
187.102,263.848391322
187.117,263.909632165
187.132,263.970613898
187.147,264.031339285
187.162,264.091811044
187.177,264.152031847
187.192,264.212004323
187.207,264.271731055
187.222,264.331214582
187.237,264.390457403
187.252,264.449461971
187.267,264.508230701
187.282,264.566765962
187.297,264.625070087
187.312,264.683145367
187.327,264.740994053
187.342,264.798618358
187.357,264.856020456
187.372,264.913202484
187.387,264.970166541
187.402,265.02691469
187.417,265.083448957
187.432,265.139771333
187.447,265.195883776
187.46,265.244346232
187.462,265.251788205
187.477,265.30748651
187.492,265.362980544
187.507,265.41827213
187.522,265.473363056
187.537,265.52825508
187.552,265.582949929
187.567,265.637449299
187.582,265.691754855
187.597,265.745868233
187.612,265.799791039
187.627,265.853524852
187.642,265.907071222
187.657,265.960431671
187.672,266.013607694
187.687,266.066600759
187.702,266.119412308
187.717,266.172043757
187.732,266.224496499
187.747,266.276771898
187.762,266.328871297
187.777,266.380796013
187.792,266.43254734
187.807,266.484126551
187.822,266.535534893
187.837,266.586773594
187.852,266.637843857
187.867,266.688746866
187.882,266.739483783
187.897,266.790055751
187.912,266.84046389
187.927,266.890709303
187.942,266.940793071
187.957,266.99071626
187.972,267.040479913
187.987,267.090085057
188.002,267.1395327
188.017,267.188823835
188.032,267.237959434
188.047,267.286940456
188.062,267.335767841
188.077,267.384442514
188.092,267.432965383
188.107,267.481337341
188.122,267.529559268
188.137,267.577632026
188.152,267.625556464
188.167,267.673333417
188.182,267.720963705
188.197,267.768448135
188.21,267.809483939
188.212,267.815787501
188.227,267.862982585
188.242,267.910034152
188.257,267.95694296
188.272,268.003709751
188.287,268.050335256
188.302,268.096820195
188.317,268.143165276
188.332,268.189371196
188.347,268.235438641
188.362,268.281368286
188.377,268.327160797
188.392,268.372816826
188.407,268.41833702
188.422,268.463722013
188.437,268.508972431
188.452,268.554088889
188.467,268.599071994
188.482,268.643922344
188.497,268.688640529
188.512,268.733227129
188.527,268.777682716
188.542,268.822007856
188.557,268.866203103
188.572,268.910269008
188.587,268.954206111
188.602,268.998014946
188.617,269.041696039
188.632,269.08524991
188.647,269.128677071
188.66,269.166211841
188.662,269.171978029
188.677,269.215153282
188.692,269.258203323
188.707,269.30112864
188.722,269.343929712
188.737,269.386607015
188.752,269.429161016
