# 78954 TBPB Grantley Adams Observations at 12Z 01 Feb 2020
Frequency [GHz],TB
175.31,285.714669829
175.322,285.703595433
175.337,285.689695908
175.352,285.675733585
175.367,285.661708478
175.382,285.647620601
175.397,285.633469966
175.412,285.619256586
175.427,285.604980474
175.442,285.590641639
175.457,285.576240094
175.472,285.561775848
175.487,285.547248911
175.502,285.532659291
175.517,285.518006998
175.532,285.503292038
175.547,285.488514417
175.562,285.473674142
175.577,285.458771218
175.592,285.443805649
175.607,285.428777437
175.622,285.413686585
175.637,285.398533094
175.652,285.383316965
175.667,285.368038195
175.682,285.352696783
175.697,285.337292727
175.712,285.32182602
175.727,285.306296659
175.742,285.290704635
175.757,285.275049941
175.772,285.259332566
175.787,285.2435525
175.802,285.227709731
175.817,285.211804244
175.832,285.195836024
175.847,285.179805054
175.862,285.163711316
175.877,285.147554789
175.892,285.13133545
175.907,285.115053278
175.922,285.098708245
175.937,285.082300324
175.952,285.065829488
175.967,285.049295703
175.982,285.032698938
175.997,285.016039157
176.012,284.999316323
176.027,284.982530397
176.042,284.965681337
176.057,284.9487691
176.072,284.93179364
176.087,284.914754909
176.102,284.897652856
176.117,284.880487429
176.132,284.863258572
176.147,284.845966227
176.162,284.828610334
176.177,284.811190831
176.192,284.793707651
176.207,284.776160726
176.222,284.758549986
176.237,284.740875355
176.252,284.723136758
176.267,284.705334116
176.282,284.687467345
176.297,284.669536359
176.31,284.653944161
176.312,284.651541071
176.327,284.633481389
176.342,284.615357216
176.357,284.597168456
176.372,284.578915008
176.387,284.560596765
176.402,284.54221362
176.417,284.523765461
176.432,284.505252173
176.447,284.486673638
176.46,284.470519368
176.462,284.468029732
176.477,284.449320331
176.492,284.430545303
176.507,284.411704515
176.522,284.392797831
176.537,284.373825108
176.552,284.354786202
176.567,284.335680962
176.582,284.316509235
176.597,284.297270864
176.612,284.277965686
176.627,284.258593536
176.642,284.239154243
176.657,284.219647631
176.672,284.200073523
176.687,284.180431732
176.702,284.160722071
176.717,284.140944347
176.732,284.121098362
176.747,284.101183913
176.762,284.081200792
176.777,284.061148786
176.792,284.041027679
176.807,284.020837247
176.822,284.000577263
176.837,283.980247494
176.852,283.959847702
176.867,283.939377642
176.882,283.918837067
176.897,283.898225722
176.912,283.877543346
176.927,283.856789675
176.942,283.835964437
176.957,283.815067355
176.972,283.794098146
176.987,283.773056523
177.002,283.751942189
177.017,283.730754844
177.032,283.709494182
177.047,283.68815989
177.062,283.666751647
177.077,283.64526913
177.092,283.623712004
177.107,283.602079934
177.122,283.580372572
177.137,283.558589568
177.152,283.536730563
177.167,283.514795192
177.182,283.492783082
177.197,283.470693856
177.21,283.451487181
177.212,283.448527125
177.227,283.426282499
177.242,283.403959575
177.257,283.381557947
177.272,283.359077199
177.287,283.336516909
177.302,283.313876647
177.31,283.30176899
177.317,283.291155975
177.332,283.268354448
177.347,283.245471612
177.362,283.222507008
177.377,283.199460166
177.392,283.176330608
177.407,283.15311785
177.422,283.129821398
177.437,283.106440752
177.452,283.0829754
177.467,283.059424824
177.482,283.035788496
177.497,283.012065882
177.512,282.988256437
177.527,282.964359606
177.542,282.940374828
177.557,282.91630153
177.572,282.892139133
177.587,282.867887045
177.602,282.843544669
177.617,282.819111394
177.632,282.794586603
177.647,282.769969668
177.66,282.748559963
177.662,282.74525995
177.677,282.720456802
177.692,282.695559566
177.707,282.670567575
177.722,282.64548015
177.737,282.620296604
177.752,282.595016237
177.767,282.56963834
177.782,282.544162193
177.797,282.518587066
177.812,282.492912217
177.827,282.467136894
177.842,282.441260333
177.857,282.415281759
177.872,282.389200387
177.887,282.363015418
177.902,282.336726043
177.917,282.310331442
177.932,282.283830782
177.947,282.257223218
177.96,282.234076194
177.962,282.230507893
177.977,282.203683939
177.992,282.176750475
178.007,282.149706606
178.022,282.122551426
178.037,282.095284016
178.052,282.067903445
178.067,282.040408767
178.082,282.012799025
178.097,281.985073246
178.112,281.957230447
178.127,281.929269629
178.142,281.90118978
178.157,281.872989875
178.172,281.844668873
178.187,281.81622572
178.202,281.787659349
178.217,281.758968677
178.232,281.730152606
178.247,281.701210024
178.262,281.672139805
178.277,281.642940806
178.292,281.613611871
178.307,281.584151826
178.322,281.554559485
178.337,281.524833642
178.352,281.494973078
178.367,281.464976558
178.382,281.43484283
178.397,281.404570625
178.41,281.37822171
178.412,281.374158659
178.427,281.34360563
178.442,281.31291022
178.457,281.282071093
178.472,281.251086897
178.487,281.21995626
178.502,281.188677797
178.517,281.1572501
178.532,281.125671747
178.547,281.093941295
178.562,281.062057286
178.577,281.030018239
178.592,280.997822657
178.607,280.965469025
178.622,280.932955807
178.637,280.900281447
178.652,280.867444372
178.667,280.834442988
178.682,280.80127568
178.697,280.767940814
178.712,280.734436736
178.727,280.700761771
178.742,280.666914223
178.757,280.632892374
178.772,280.598694488
178.787,280.564318804
178.802,280.52976354
178.817,280.495026895
178.832,280.460107043
178.847,280.425002137
178.862,280.389710306
178.877,280.354229658
178.892,280.318558277
178.907,280.282694225
178.922,280.246635538
178.937,280.210380231
178.952,280.173926293
178.967,280.137271691
178.982,280.100414366
178.997,280.063352234
179.012,280.026083188
179.027,279.988605093
179.042,279.950915792
179.057,279.913013099
179.072,279.874894804
179.087,279.836558672
179.102,279.798002439
179.117,279.759223815
179.132,279.720220484
179.147,279.680990103
179.16,279.646804949
179.162,279.641530301
179.177,279.601838678
179.192,279.561912808
179.207,279.521750236
179.222,279.481348478
179.237,279.440705023
179.252,279.399817328
179.267,279.358682824
179.282,279.31729891
179.297,279.275662956
179.312,279.233772301
179.327,279.191624256
179.342,279.149216098
179.357,279.106545076
179.372,279.063608405
179.387,279.020403272
179.402,278.976926828
179.417,278.933176194
179.432,278.88914846
179.447,278.844840681
179.462,278.80024988
179.477,278.755373046
179.492,278.710207136
179.507,278.664749071
179.522,278.61899574
179.537,278.572943997
179.552,278.52659066
179.567,278.479932513
179.582,278.432966304
179.597,278.385688748
179.612,278.33809652
179.627,278.290186262
179.642,278.241954578
179.657,278.193398035
179.672,278.144513164
179.687,278.095296459
179.702,278.045744374
179.717,277.995853327
179.732,277.945619697
179.747,277.895039825
179.762,277.844110013
179.777,277.792826523
179.792,277.741185578
179.807,277.689183362
179.822,277.636816019
179.837,277.58407965
179.852,277.53097032
179.867,277.477484048
179.882,277.423616816
179.897,277.369364563
179.91,277.322031334
179.912,277.314723185
179.927,277.259688539
179.942,277.204256435
179.957,277.148422645
179.972,277.092182897
179.987,277.035532873
180.002,276.978468215
180.017,276.92098452
180.032,276.863077342
180.047,276.804742188
180.062,276.745974523
180.077,276.686769768
180.092,276.627123297
180.107,276.567030439
180.122,276.506486479
180.137,276.445486654
180.152,276.384026159
180.167,276.322100138
180.182,276.259703692
180.197,276.196831874
180.212,276.133479691
180.227,276.069642103
180.242,276.005314021
180.257,275.940490312
180.272,275.875165793
180.287,275.809335233
180.302,275.742993354
180.317,275.676134831
180.332,275.608754289
180.347,275.540846306
180.362,275.47240541
180.377,275.403426082
180.392,275.333902753
180.407,275.263829808
180.422,275.193201579
180.437,275.122012352
180.452,275.050256363
180.467,274.977927799
180.482,274.905020799
180.497,274.831529451
180.512,274.757447796
180.527,274.682769825
180.542,274.607489478
180.557,274.53160065
180.56,274.516349326
180.572,274.455097184
180.587,274.377972875
180.602,274.30022147
180.617,274.221836666
180.632,274.142812113
180.647,274.063141411
180.66,273.993565824
180.662,273.982818112
180.677,273.901835723
180.692,273.820187699
180.707,273.73786745
180.722,273.654868338
180.737,273.571183678
180.752,273.48680674
180.767,273.401730744
180.782,273.315948867
180.797,273.229454241
180.812,273.142239949
180.827,273.054299035
180.842,272.965624493
180.857,272.876209277
180.872,272.786046296
180.887,272.695128418
180.902,272.603448468
180.917,272.510999229
180.932,272.417773445
180.947,272.323763817
180.962,272.228963011
180.977,272.133363649
180.992,272.03695832
181.007,271.939739574
181.022,271.841699925
181.037,271.742831851
181.052,271.643127796
181.067,271.542580172
181.082,271.441181358
181.097,271.3389237
181.112,271.235799515
181.127,271.131801092
181.142,271.026920688
181.157,270.921150538
181.172,270.814482847
181.187,270.706909797
181.202,270.598423547
181.217,270.489016232
181.232,270.378679969
181.247,270.267406853
181.262,270.155188962
181.277,270.042018354
181.292,269.927887076
181.307,269.812787157
181.31,269.789650234
181.322,269.696710614
181.337,269.579649453
181.352,269.461595668
181.367,269.342541247
181.382,269.222478166
181.397,269.101398399
181.412,268.979293912
181.427,268.856156668
181.442,268.731978627
181.457,268.606751748
181.472,268.48046799
181.487,268.353119311
181.502,268.224697672
181.517,268.095195036
181.532,267.964603371
181.547,267.832914646
181.562,267.700120837
181.577,267.566213925
181.592,267.431185896
181.607,267.295028741
181.622,267.157734457
181.637,267.019295049
181.652,266.879702522
181.667,266.738948891
181.682,266.597026172
181.697,266.453926383
181.712,266.309641545
181.727,266.164163677
181.742,266.017484797
181.757,265.869596919
181.772,265.720492046
181.787,265.570162173
181.802,265.418599282
181.817,265.265795333
181.832,265.111742268
181.847,264.956431996
181.862,264.799856396
181.877,264.642007307
181.892,264.482876518
181.907,264.322455768
181.922,264.160736728
181.937,263.997711002
181.952,263.833370108
181.967,263.66770547
181.982,263.500708409
181.997,263.332370126
182.012,263.162681687
182.027,262.991634012
182.042,262.819217853
182.057,262.645423777
182.06,262.610498768
182.072,262.470242149
182.087,262.293663105
182.102,262.115676532
182.117,261.936272042
182.132,261.755438941
182.147,261.573166204
182.162,261.389442435
182.177,261.204255839
182.192,261.017594175
182.207,260.829444718
182.222,260.639794214
182.237,260.448628822
182.252,260.255934066
182.267,260.061694767
182.282,259.865894982
182.297,259.668517924
182.312,259.469545886
182.327,259.268960147
182.342,259.06674087
182.357,258.862867
182.372,258.657316131
182.387,258.450064374
182.402,258.241086203
182.417,258.030354283
182.432,257.817839279
182.447,257.603509636
182.462,257.387331342
182.477,257.169267645
182.492,256.949278751
182.507,256.727321463
182.522,256.50334879
182.537,256.277309481
182.552,256.049147515
182.567,255.818801504
182.582,255.586204012
182.597,255.351280784
182.612,255.113949845
182.627,254.874120475
182.642,254.631692027
182.657,254.386552559
182.672,254.138577252
182.687,253.887626584
182.702,253.633544207
182.717,253.376154483
182.732,253.115259622
182.747,252.850636337
182.762,252.582031955
182.777,252.309159861
182.792,252.031694175
182.807,251.749263509
182.822,251.46144364
182.837,251.167748908
182.852,250.86762209
182.867,250.560422475
182.882,250.245411814
182.897,249.921737742
182.912,249.588414224
182.927,249.244298484
182.942,248.888063815
182.957,248.518167568
182.972,248.132813581
182.987,247.729908246
183.002,247.307009462
183.017,246.861267865
183.032,246.389360071
183.047,245.887414406
183.062,245.350930898
183.077,244.77469962
183.092,244.15272539
183.107,243.478173409
183.122,242.743361152
183.137,241.939839408
183.152,241.058633611
183.167,240.090761741
183.182,239.028215944
183.197,237.865703885
183.212,236.603605628
183.227,235.25281478
183.242,233.842339231
183.257,232.430423195
183.367,232.759880952
183.382,234.172129685
183.397,235.564722362
183.412,236.888191239
183.427,238.119081129
183.442,239.249770378
183.457,240.281676133
183.472,241.22097945
183.487,242.076038074
183.502,242.855877517
183.517,243.569351818
183.532,244.224710834
183.547,244.829408475
183.562,245.390049427
183.577,245.91241185
183.592,246.401508555
183.607,246.861664624
183.622,247.296598907
183.637,247.709502576
183.652,248.103111386
183.667,248.479770222
183.682,248.841489732
183.697,249.189995387
183.712,249.526769632
183.727,249.853087901
183.742,250.170049278
183.757,250.478602536
183.772,250.779568224
183.787,251.07365739
183.802,251.361487458
183.817,251.643595681
183.832,251.920450572
183.847,252.192461604
183.862,252.459987462
183.877,252.723343067
183.892,252.982805566
183.907,253.238619445
183.922,253.491000897
183.937,253.740141568
183.952,253.986211761
183.967,254.229363196
183.982,254.469731372
183.997,254.707437614
184.012,254.942590829
184.027,255.175289029
184.042,255.405620645
184.057,255.633665668
184.072,255.85949664
184.087,256.083179513
184.102,256.304774397
184.117,256.524336221
184.132,256.741915294
184.147,256.957557816
184.162,257.17130631
184.177,257.383200009
184.192,257.593275197
184.207,257.801565508
184.222,258.008102191
184.237,258.212914344
184.252,258.416029122
184.267,258.617471924
184.282,258.817266557
184.297,259.015435382
184.312,259.21199945
184.327,259.406978617
184.342,259.600391652
184.357,259.792256333
184.372,259.982589535
184.387,260.171407306
184.402,260.358724942
184.417,260.544557046
184.432,260.728917593
184.447,260.911819981
184.462,261.09327708
184.477,261.273301276
184.492,261.451904515
184.507,261.629098339
184.522,261.80489392
184.537,261.979302092
184.552,262.152333382
184.56,262.244057294
184.567,262.323998037
184.582,262.494306047
184.597,262.663267167
184.612,262.830890943
184.627,262.997186726
184.642,263.162163694
184.657,263.325830867
184.672,263.48819712
184.687,263.649271203
184.702,263.809061748
184.717,263.967577284
184.732,264.124826245
184.747,264.280816986
184.762,264.435557785
184.777,264.589056857
184.792,264.741322357
184.807,264.892362393
184.822,265.042185027
184.837,265.19079828
184.852,265.338210144
184.867,265.484428579
184.882,265.629461524
184.897,265.773316894
184.912,265.916002588
184.927,266.057526492
184.942,266.197896477
184.957,266.337120407
184.972,266.475206137
184.987,266.612161516
185.002,266.747994388
185.017,266.882712594
185.032,267.01632397
185.047,267.148836353
185.062,267.280257575
185.077,267.410595467
185.092,267.539857859
185.107,267.66805258
185.122,267.795187456
185.137,267.92127031
185.152,268.046308963
185.167,268.170311235
185.182,268.293284938
185.197,268.415237883
185.212,268.536177872
185.227,268.656112704
185.242,268.775050169
185.257,268.892998049
185.272,269.009964116
185.287,269.125956133
185.302,269.240981852
185.31,269.301936465
185.317,269.355049009
185.332,269.468165331
185.347,269.580338527
185.362,269.691576292
185.377,269.801886301
185.392,269.911276215
185.407,270.019753673
185.422,270.127326292
185.437,270.234001672
185.452,270.339787385
185.467,270.444690984
185.482,270.548719992
185.497,270.651881911
185.512,270.754184212
185.527,270.85563434
185.542,270.956239711
185.557,271.056007709
185.572,271.15494569
185.587,271.253060975
185.602,271.350360853
185.617,271.446852582
185.632,271.542543381
185.647,271.637440437
185.662,271.7315509
185.677,271.824881882
185.692,271.917440459
185.707,272.009233667
185.722,272.100268505
185.737,272.19055193
185.752,272.280090861
185.767,272.368892175
185.782,272.456962709
185.797,272.544309255
185.812,272.630938566
185.827,272.716857351
185.842,272.802072275
185.857,272.88658996
185.872,272.970416984
185.887,273.053559881
185.902,273.136025138
185.917,273.2178192
185.932,273.298948465
185.947,273.379419286
185.96,273.448632931
185.962,273.459237968
185.977,273.538410773
185.992,273.616943916
186.007,273.694843563
186.022,273.772115837
186.037,273.848766811
186.052,273.924802514
186.06,273.965105378
186.067,274.000228925
186.082,274.07505198
186.097,274.149277563
186.112,274.222911514
186.127,274.295959627
186.142,274.368427644
186.157,274.440321265
186.172,274.511646139
186.187,274.582407869
186.202,274.652612013
186.217,274.722264079
186.232,274.79136953
186.247,274.859933779
186.262,274.927962197
186.277,274.995460104
186.292,275.062432775
186.307,275.128885439
186.322,275.194823279
186.337,275.260251429
186.352,275.325174981
186.367,275.389598977
186.382,275.453528416
186.397,275.516968252
186.412,275.579923391
186.427,275.642398695
186.442,275.704398981
186.457,275.765929023
186.472,275.826993547
186.487,275.887597237
186.502,275.947744733
186.517,276.00744063
186.532,276.06668948
186.547,276.125495791
186.562,276.183864029
186.577,276.241798615
186.592,276.299303929
186.607,276.356384308
186.622,276.413044047
186.637,276.4692874
186.652,276.525118577
186.667,276.580541748
186.682,276.635561043
186.697,276.690180549
186.71,276.737197199
186.712,276.744404313
186.727,276.798236343
186.742,276.851680606
186.757,276.904741029
186.772,276.9574215
186.787,277.009725868
186.802,277.061657942
186.817,277.113221494
186.832,277.164420256
186.847,277.215257924
186.862,277.265738154
186.877,277.315864566
186.892,277.365640742
186.907,277.415070228
186.922,277.464156532
186.937,277.512903129
186.952,277.561313453
186.967,277.609390906
186.982,277.657138853
186.997,277.704560625
187.012,277.751659517
187.027,277.79843879
187.042,277.844901671
187.057,277.891051351
187.072,277.936890991
187.087,277.982423715
187.102,278.027652616
187.117,278.072580754
187.132,278.117211154
187.147,278.161546813
187.162,278.205590692
187.177,278.249345723
187.192,278.292814805
187.207,278.336000807
187.222,278.378906566
187.237,278.421534888
187.252,278.463888552
187.267,278.505970303
187.282,278.547782858
187.297,278.589328905
187.312,278.630611101
187.327,278.671632076
187.342,278.71239443
187.357,278.752900736
187.372,278.793153538
187.387,278.833155351
187.402,278.872908665
187.417,278.912415939
187.432,278.951679609
187.447,278.990702082
187.46,279.024328297
187.462,279.029485738
187.477,279.068032932
187.492,279.106345992
187.507,279.14442722
187.522,279.182278894
187.537,279.219903265
187.552,279.257302559
187.567,279.294478979
187.582,279.331434702
187.597,279.368171881
187.612,279.404692644
187.627,279.440999097
187.642,279.47709332
187.657,279.512977373
187.672,279.54865329
187.687,279.584123082
187.702,279.619388739
187.717,279.654452229
187.732,279.689315496
187.747,279.723980462
187.762,279.758449029
187.777,279.792723075
187.792,279.82680446
187.807,279.86069502
187.822,279.894396572
187.837,279.92791091
187.852,279.96123981
187.867,279.994385027
187.882,280.027348296
187.897,280.060131331
187.912,280.092735827
187.927,280.125163462
187.942,280.157415892
187.957,280.189494754
187.972,280.221401667
187.987,280.253138232
188.002,280.284706031
188.017,280.316106628
188.032,280.347341568
188.047,280.37841238
188.062,280.409320573
188.077,280.44006764
188.092,280.470655058
188.107,280.501084285
188.122,280.531356761
188.137,280.561473914
188.152,280.591437149
188.167,280.621247861
188.182,280.650907424
188.197,280.680417199
188.21,280.705872214
188.212,280.709778529
188.227,280.738992744
188.242,280.768061156
188.257,280.796985062
188.272,280.825765745
188.287,280.854404473
188.302,280.882902498
188.317,280.911261058
188.332,280.939481377
188.347,280.967564664
188.362,280.995512113
188.377,281.023324906
188.392,281.051004211
188.407,281.078551179
188.422,281.105966952
188.437,281.133252655
188.452,281.160409401
188.467,281.187438291
188.482,281.214340411
188.497,281.241116836
188.512,281.267768627
188.527,281.294296833
188.542,281.32070249
188.557,281.346986623
188.572,281.373150244
188.587,281.399194353
188.602,281.425119937
188.617,281.450927975
188.632,281.47661943
188.647,281.502195255
188.66,281.524268168
188.662,281.527656394
188.677,281.553003776
188.692,281.578238322
188.707,281.60336094
188.722,281.628372528
188.737,281.653273973
