# 48698 WSSS Singapore Observations at 12Z 01 Feb 2020
Frequency [GHz],TB
175.31,281.042063063
175.322,281.027262806
175.337,281.008718146
175.352,280.990124027
175.367,280.971480243
175.382,280.952786584
175.397,280.934042839
175.412,280.915248796
175.427,280.896404239
175.442,280.877508954
175.457,280.858562723
175.472,280.839565324
175.487,280.820516539
175.502,280.801416142
175.517,280.782263911
175.532,280.763059617
175.547,280.743803031
175.562,280.724493926
175.577,280.705132067
175.592,280.68571722
175.607,280.666249151
175.622,280.646727621
175.637,280.62715239
175.652,280.607523216
175.667,280.587839857
175.682,280.568102067
175.697,280.548309598
175.712,280.528462202
175.727,280.508559625
175.742,280.488601615
175.757,280.468587917
175.772,280.448518273
175.787,280.428392423
175.802,280.408210107
175.817,280.387971059
175.832,280.367675015
175.847,280.347321707
175.862,280.326910863
175.877,280.306442213
175.892,280.285915481
175.907,280.265330392
175.922,280.244686666
175.937,280.223984022
175.952,280.203222175
175.967,280.182400843
175.982,280.161519737
175.997,280.140578566
176.012,280.119577038
176.027,280.098514858
176.042,280.077391728
176.057,280.056207352
176.072,280.034961425
176.087,280.013653642
176.102,279.9922837
176.117,279.970851285
176.132,279.949356091
176.147,279.927797799
176.162,279.906176096
176.177,279.88449066
176.192,279.862741171
176.207,279.840927305
176.222,279.819048734
176.237,279.797105129
176.252,279.775096159
176.267,279.753021488
176.282,279.73088078
176.297,279.708673695
176.31,279.689373597
176.312,279.686399889
176.327,279.664059017
176.342,279.641650731
176.357,279.61917468
176.372,279.596630511
176.387,279.574017866
176.402,279.551336387
176.417,279.528585711
176.432,279.505765473
176.447,279.482875305
176.46,279.462980307
176.462,279.459914836
176.477,279.436883693
176.492,279.413781497
176.507,279.39060787
176.522,279.367362429
176.537,279.344044787
176.552,279.320654555
176.567,279.297191343
176.582,279.273654752
176.597,279.250044387
176.612,279.226359846
176.627,279.202600722
176.642,279.178766609
176.657,279.154857096
176.672,279.130871769
176.687,279.106810207
176.702,279.082671991
176.717,279.058456698
176.732,279.034163898
176.747,279.00979316
176.762,278.98534405
176.777,278.960816131
176.792,278.936208959
176.807,278.91152209
176.822,278.886755074
176.837,278.861907461
176.852,278.836978795
176.867,278.811968614
176.882,278.786876456
176.897,278.761701856
176.912,278.73644434
176.927,278.711103437
176.942,278.685678668
176.957,278.66016955
176.972,278.634575597
176.987,278.60889632
177.002,278.583131225
177.017,278.557279816
177.032,278.531341589
177.047,278.50531604
177.062,278.47920266
177.077,278.453000933
177.092,278.426710343
177.107,278.400330369
177.122,278.373860483
177.137,278.347300155
177.152,278.320648851
177.167,278.293906031
177.182,278.267071154
177.197,278.24014367
177.21,278.216731184
177.212,278.21312303
177.227,278.186008674
177.242,278.158800043
177.257,278.131496573
177.272,278.104097691
177.287,278.076602825
177.302,278.049011394
177.31,278.034256278
177.317,278.021322815
177.332,277.9935365
177.347,277.965651856
177.362,277.937668282
177.377,277.909585179
177.392,277.881401938
177.407,277.853117944
177.422,277.824732582
177.437,277.796245228
177.452,277.767655255
177.467,277.73896203
177.482,277.710164914
177.497,277.681263265
177.512,277.652256435
177.527,277.623143769
177.542,277.593924609
177.557,277.564598289
177.572,277.535164142
177.587,277.505621491
177.602,277.475969655
177.617,277.446207948
177.632,277.416335679
177.647,277.386352148
177.66,277.360275882
177.662,277.356256655
177.677,277.326048488
177.692,277.295726934
177.707,277.26529127
177.722,277.234740772
177.737,277.204074704
177.752,277.17329233
177.767,277.142392902
177.782,277.111375673
177.797,277.080239883
177.812,277.048984769
177.827,277.017609559
177.842,276.986113481
177.857,276.954495749
177.872,276.922755575
177.887,276.890892162
177.902,276.858904708
177.917,276.826792405
177.932,276.794554435
177.947,276.762189976
177.96,276.734037822
177.962,276.729698199
177.977,276.697078266
177.992,276.664329333
178.007,276.631450551
178.022,276.598441061
178.037,276.565299997
178.052,276.532026486
178.067,276.49861965
178.082,276.4650786
178.097,276.43140244
178.112,276.39759027
178.127,276.363641176
178.142,276.329554243
178.157,276.295328545
178.172,276.260963145
178.187,276.226457104
178.202,276.191809471
178.217,276.157019287
178.232,276.122085586
178.247,276.087007392
178.262,276.051783724
178.277,276.016413588
178.292,275.980895985
178.307,275.945229905
178.322,275.90941433
178.337,275.873448232
178.352,275.837330578
178.367,275.801060319
178.382,275.764636404
178.397,275.728057768
178.41,275.696230303
178.412,275.691323339
178.427,275.654432034
178.442,275.61738276
178.457,275.580174418
178.472,275.542805894
178.487,275.505276068
178.502,275.467583807
178.517,275.429727971
178.532,275.391707407
178.547,275.353520954
178.562,275.315167438
178.577,275.276645677
178.592,275.237954475
178.607,275.199092629
178.622,275.160058922
178.637,275.120852128
178.652,275.081471008
178.667,275.041914313
178.682,275.002180781
178.697,274.96226914
178.712,274.922178106
178.727,274.881906381
178.742,274.841452659
178.757,274.800815617
178.772,274.759993923
178.787,274.718986232
178.802,274.677791187
178.817,274.636407414
178.832,274.594833532
178.847,274.553068143
178.862,274.511109838
178.877,274.468957192
178.892,274.426608769
178.907,274.384063118
178.922,274.341318773
178.937,274.298374257
178.952,274.255228076
178.967,274.211878722
178.982,274.168324674
178.997,274.124564393
179.012,274.08059633
179.027,274.036418915
179.042,273.992030566
179.057,273.947429687
179.072,273.902614661
179.087,273.85758386
179.102,273.812335637
179.117,273.766868331
179.132,273.721180261
179.147,273.675269732
179.16,273.635299339
179.162,273.629135031
179.177,273.582774428
179.192,273.536186174
179.207,273.489368505
179.222,273.442319638
179.237,273.395037769
179.252,273.347521081
179.267,273.299767732
179.282,273.251775867
179.297,273.203543607
179.312,273.155069057
179.327,273.106350301
179.342,273.057385402
179.357,273.008172405
179.372,272.958709332
179.387,272.908994186
179.402,272.859024948
179.417,272.808799579
179.432,272.758316015
179.447,272.707572174
179.462,272.65656595
179.477,272.605295213
179.492,272.553757814
179.507,272.501951575
179.522,272.449874301
179.537,272.397523768
179.552,272.34489773
179.567,272.291993916
179.582,272.238810031
179.597,272.185343754
179.612,272.131592737
179.627,272.07755461
179.642,272.023226971
179.657,271.968607398
179.672,271.913693435
179.687,271.858482605
179.702,271.802972398
179.717,271.747160279
179.732,271.691043682
179.747,271.634620015
179.762,271.577886653
179.777,271.520840945
179.792,271.463480205
179.807,271.40580172
179.822,271.347802745
179.837,271.289480501
179.852,271.230832182
179.867,271.171854943
179.882,271.112545911
179.897,271.052902178
179.91,271.000937933
179.912,270.992920801
179.927,270.932598803
179.942,270.871933172
179.957,270.810920861
179.972,270.749558787
179.987,270.68784383
180.002,270.625772832
180.017,270.5633426
180.032,270.500549901
180.047,270.437391463
180.062,270.373863975
180.077,270.309964087
180.092,270.245688407
180.107,270.181033504
180.122,270.115995904
180.137,270.05057209
180.152,269.984758505
180.167,269.918551544
180.182,269.851947562
180.197,269.784942868
180.212,269.717533725
180.227,269.649716349
180.242,269.581486911
180.257,269.512841533
180.272,269.44377629
180.287,269.374287207
180.302,269.304370261
180.317,269.234021376
180.332,269.163236427
180.347,269.092011236
180.362,269.020341573
180.377,268.948223153
180.392,268.87565164
180.407,268.802622638
180.422,268.7291317
180.437,268.655174318
180.452,268.58074593
180.467,268.505841913
180.482,268.430457585
180.497,268.354588203
180.512,268.278228965
180.527,268.201375005
180.542,268.124021394
180.557,268.046163139
180.56,268.030530487
180.572,267.967795182
180.587,267.888912398
180.602,267.809509596
180.617,267.729581516
180.632,267.649122828
180.647,267.568128132
180.66,267.497494932
180.662,267.486591958
180.677,267.404508761
180.692,267.321872923
180.707,267.238678749
180.722,267.154920471
180.737,267.070592241
180.752,266.985688133
180.767,266.90020214
180.782,266.814128174
180.797,266.727460063
180.812,266.640191553
180.827,266.552316301
180.842,266.463827879
180.857,266.374719769
180.872,266.284985363
180.887,266.194617962
180.902,266.10361077
180.917,266.011956901
180.932,265.919649367
180.947,265.826681084
180.962,265.733044866
180.977,265.638733426
180.992,265.543739371
181.007,265.448055203
181.022,265.351673315
181.037,265.254585989
181.052,265.156785397
181.067,265.058263593
181.082,264.959012516
181.097,264.859023985
181.112,264.758289698
181.127,264.656801229
181.142,264.554550024
181.157,264.451527404
181.172,264.347724552
181.187,264.243132523
181.202,264.137742232
181.217,264.031544453
181.232,263.924529819
181.247,263.816688817
181.262,263.708011785
181.277,263.598488909
181.292,263.488110221
181.307,263.376865594
181.31,263.354511853
181.322,263.264744738
181.337,263.151737202
181.352,263.037832362
181.367,262.923019426
181.382,262.807287426
181.397,262.690625212
181.412,262.573021457
181.427,262.454464643
181.442,262.334943065
181.457,262.214444822
181.472,262.092957819
181.487,261.970469756
181.502,261.846968131
181.517,261.722440234
181.532,261.596873139
181.547,261.470253708
181.562,261.342568581
181.577,261.213804177
181.592,261.083946687
181.607,260.952982073
181.622,260.820896063
181.637,260.687674151
181.652,260.553301592
181.667,260.417763399
181.682,260.281044342
181.697,260.143128947
181.712,260.004001492
181.727,259.863646009
181.742,259.722046279
181.757,259.579185836
181.772,259.435047967
181.787,259.289615711
181.802,259.142871861
181.817,258.994798968
181.832,258.845379346
181.847,258.694595073
181.862,258.542427997
181.877,258.388859746
181.892,258.233871732
181.907,258.077445164
181.922,257.919561056
181.937,257.76020024
181.952,257.599343382
181.967,257.436970996
181.982,257.273063465
181.997,257.107601059
182.012,256.94056396
182.027,256.771932286
182.042,256.601686121
182.057,256.429805544
182.06,256.395231549
182.072,256.256270669
182.087,256.081061676
182.102,255.904158859
182.117,255.725542668
182.132,255.545193762
182.147,255.363093061
182.162,255.179221806
182.177,254.993561624
182.192,254.806094598
182.207,254.616803338
182.222,254.425671069
182.237,254.232681712
182.252,254.03781998
182.267,253.841071478
182.282,253.642422812
182.297,253.441861702
182.312,253.239377104
182.327,253.034959342
182.342,252.828600244
182.357,252.620293289
182.372,252.410033766
182.387,252.197818929
182.402,251.983648177
182.417,251.76752323
182.432,251.549448321
182.447,251.329430388
182.462,251.107479287
182.477,250.883608
182.492,250.657832856
182.507,250.430173759
182.522,250.20065442
182.537,249.969302591
182.552,249.736150311
182.567,249.501234141
182.582,249.264595409
182.597,249.026280445
182.612,248.786340813
182.627,248.544833538
182.642,248.301821307
182.657,248.057372668
182.672,247.811562194
182.687,247.564470616
182.702,247.316184929
182.717,247.066798432
182.732,246.816410729
182.747,246.565127636
182.762,246.313061018
182.777,246.060328508
182.792,245.807053094
182.807,245.553362549
182.822,245.299388672
182.837,245.04526628
182.852,244.791131927
182.867,244.537122261
182.882,244.283371947
182.897,244.030011063
182.912,243.777161821
182.927,243.524934469
182.942,243.273422144
182.957,243.02269441
182.972,242.772789109
182.987,242.523702057
183.002,242.275373933
183.017,242.027673502
183.032,241.780375995
183.047,241.533135032
183.062,241.285445844
183.077,241.036596641
183.092,240.785603702
183.107,240.531123812
183.122,240.271335001
183.137,240.003772542
183.152,239.72510172
183.167,239.430801836
183.182,239.114728895
183.197,238.768525024
183.212,238.380879863
183.227,237.936828316
183.242,237.417966959
183.257,236.806982998
183.367,236.951938837
183.382,237.53290939
183.397,238.025497907
183.412,238.448250921
183.427,238.818841389
183.442,239.151252333
183.457,239.455962284
183.472,239.740696525
183.487,240.011133605
183.502,240.271454428
183.517,240.524745103
183.532,240.773287329
183.547,241.018767278
183.562,241.262426612
183.577,241.505172556
183.592,241.747658904
183.607,241.990346241
183.622,242.233547163
183.637,242.477460558
183.652,242.722197843
183.667,242.967803197
183.682,243.214269298
183.697,243.461549634
183.712,243.709568201
183.727,243.958227167
183.742,244.20741297
183.757,244.457001162
183.772,244.706860285
183.787,244.956854953
183.802,245.20684831
183.817,245.456703993
183.832,245.706287663
183.847,245.955468224
183.862,246.204118753
183.877,246.452117215
183.892,246.699346992
183.907,246.945697257
183.922,247.191063229
183.937,247.435346322
183.952,247.678454211
183.967,247.920300827
183.982,248.160806301
183.997,248.399896855
184.012,248.637504665
184.027,248.87356769
184.042,249.108029479
184.057,249.340838961
184.072,249.571950227
184.087,249.801322297
184.102,250.028918886
184.117,250.254708166
184.132,250.478662531
184.147,250.700758356
184.162,250.920975768
184.177,251.139298416
184.192,251.35571325
184.207,251.570210302
184.222,251.782782482
184.237,251.99342537
184.252,252.202137027
184.267,252.408917809
184.282,252.613770189
184.297,252.81669859
184.312,253.01770922
184.327,253.216809929
184.342,253.414010056
184.357,253.609320299
184.372,253.802752587
184.387,253.994319956
184.402,254.184036439
184.417,254.371916964
184.432,254.557977247
184.447,254.742233706
184.462,254.924703374
184.477,255.105403816
184.492,255.284353062
184.507,255.46156953
184.522,255.637071966
184.537,255.810879388
184.552,255.983011028
184.56,256.074136053
184.567,256.153486284
184.582,256.322324674
184.597,256.489545797
184.612,256.655169289
184.627,256.819214795
184.642,256.981701933
184.657,257.142650266
184.672,257.302079279
184.687,257.460008353
184.702,257.616456746
184.717,257.771443572
184.732,257.924987787
184.747,258.077108173
184.762,258.227823327
184.777,258.377151647
184.792,258.525111325
184.807,258.671720336
184.822,258.816996433
184.837,258.960957143
184.852,259.103619755
184.867,259.245001324
184.882,259.385118666
184.897,259.523988351
184.912,259.66162671
184.927,259.798049824
184.942,259.933273535
184.957,260.067313437
184.972,260.200184882
184.987,260.33190298
185.002,260.462482599
185.017,260.59193837
185.032,260.720284687
185.047,260.847535711
185.062,260.97370537
185.077,261.098807366
185.092,261.222855176
185.107,261.345862053
185.122,261.467841034
185.137,261.588804939
185.152,261.708766379
185.167,261.827737756
185.182,261.945731267
185.197,262.062758909
185.212,262.178832482
185.227,262.293963594
185.242,262.408163662
185.257,262.521443917
185.272,262.633815409
185.287,262.745289008
185.302,262.85587541
185.31,262.9144957
185.317,262.965585138
185.332,263.074428547
185.347,263.182415828
185.362,263.289557011
185.377,263.395861965
185.392,263.501340407
185.407,263.606001901
185.422,263.709855862
185.437,263.812911559
185.452,263.915178121
185.467,264.016664534
185.482,264.117379647
185.497,264.217332177
185.512,264.316530709
185.527,264.414983697
185.542,264.51269947
185.557,264.609686235
185.572,264.705952076
185.587,264.801504956
185.602,264.896352726
185.617,264.990503118
185.632,265.083963755
185.647,265.176742148
185.662,265.268845701
185.677,265.360281713
185.692,265.451057378
185.707,265.541179787
185.722,265.630655933
185.737,265.71949271
185.752,265.807696915
185.767,265.895275251
185.782,265.982234327
185.797,266.068580663
185.812,266.154320686
185.827,266.239460737
185.842,266.324007071
185.857,266.407965855
185.872,266.491343176
185.887,266.574145036
185.902,266.656377357
185.917,266.738045983
185.932,266.819156677
185.947,266.899715127
185.96,266.969090087
185.962,266.979726947
185.977,267.059197672
185.992,267.138132769
186.007,267.21653763
186.022,267.294417578
186.037,267.371777864
186.052,267.448623674
186.06,267.489399511
186.067,267.524960123
186.082,267.600792261
186.097,267.676125074
186.112,267.750963482
186.127,267.825312342
186.142,267.89917645
186.157,267.972560538
186.172,268.045469281
186.187,268.117907292
186.202,268.189879126
186.217,268.26138928
186.232,268.332442195
186.247,268.403042256
186.262,268.473193793
186.277,268.542901079
186.292,268.612168338
186.307,268.680999737
186.322,268.749399395
186.337,268.817371377
186.352,268.884919699
186.367,268.952048326
186.382,269.018761176
186.397,269.085062117
186.412,269.150954971
186.427,269.216443511
186.442,269.281531467
186.457,269.346222521
186.472,269.410520311
186.487,269.474428432
186.502,269.537950433
186.517,269.601089823
186.532,269.663850065
186.547,269.726234585
186.562,269.788246765
186.577,269.849889946
186.592,269.911167431
186.607,269.972082483
186.622,270.032638325
186.637,270.092838145
186.652,270.152685089
186.667,270.21218227
186.682,270.271332761
186.697,270.330139602
186.71,270.380829878
186.712,270.388605795
186.727,270.446734308
186.742,270.504528074
186.757,270.561989992
186.772,270.619122929
186.787,270.675929715
186.802,270.732413152
186.817,270.788576007
186.832,270.844421016
186.847,270.899950884
186.862,270.955168283
186.877,271.010075858
186.892,271.064676222
186.907,271.118971957
186.922,271.17296562
186.937,271.226659735
186.952,271.280056801
186.967,271.333159286
186.982,271.385969633
186.997,271.438490255
187.012,271.490723541
187.027,271.542671852
187.042,271.594337524
187.057,271.645722865
187.072,271.696830161
187.087,271.74766167
187.102,271.798219626
187.117,271.848506241
187.132,271.898523698
187.147,271.948274162
187.162,271.997759772
187.177,272.046982642
187.192,272.095944867
187.207,272.144648517
187.222,272.19309564
187.237,272.241288264
187.252,272.289228394
187.267,272.336918014
187.282,272.384359087
187.297,272.431553556
187.312,272.478503342
187.327,272.525210347
187.342,272.571676454
187.357,272.617903524
187.372,272.663893402
187.387,272.70964791
187.402,272.755168854
187.417,272.800458021
187.432,272.845517178
187.447,272.890348077
187.46,272.929018226
187.462,272.934952449
187.477,272.979332009
187.492,273.023488454
187.507,273.067423463
187.522,273.1111387
187.537,273.154635813
187.552,273.197916429
187.567,273.240982164
187.582,273.283834613
187.597,273.326475359
187.612,273.368905969
187.627,273.41112799
187.642,273.45314296
187.657,273.494952398
187.672,273.536557808
187.687,273.577960682
187.702,273.619162495
187.717,273.660164708
187.732,273.700968769
187.747,273.741576109
187.762,273.78198815
187.777,273.822206297
187.792,273.862231942
187.807,273.902066464
187.822,273.941711228
187.837,273.981167587
187.852,274.020436881
187.867,274.059520438
187.882,274.098419571
187.897,274.137135583
187.912,274.175669765
187.927,274.214023394
187.942,274.252197736
187.957,274.290194045
187.972,274.328013563
187.987,274.365657522
188.002,274.403127142
188.017,274.44042363
188.032,274.477548183
188.047,274.514501989
188.062,274.551286222
188.077,274.587902047
188.092,274.624350617
188.107,274.660633078
188.122,274.696750561
188.137,274.732704189
188.152,274.768495075
188.167,274.804124322
188.182,274.839593023
188.197,274.874902261
188.21,274.905375441
188.212,274.910053108
188.227,274.945046629
188.242,274.979883878
188.257,275.014565901
188.272,275.049093732
188.287,275.083468398
188.302,275.117690917
188.317,275.151762297
188.332,275.185683538
188.347,275.219455631
188.362,275.253079557
188.377,275.286556292
188.392,275.319886799
188.407,275.353072035
188.422,275.38611295
188.437,275.419010483
188.452,275.451765567
188.467,275.484379126
188.482,275.516852075
188.497,275.549185325
188.512,275.581379774
188.527,275.613436317
188.542,275.645355837
188.557,275.677139214
188.572,275.708787317
188.587,275.740301009
188.602,275.771681146
188.617,275.802928577
188.632,275.834044141
188.647,275.865028675
188.66,275.891776588
188.662,275.895883005
188.677,275.926607951
188.692,275.957204327
188.707,275.987672939
188.722,276.018014588
