# 10410 EDZE Essen Observations at 12Z 22 Feb 2020
Frequency [GHz],TB
175.31,267.081412448
175.322,267.068045263
175.337,267.051219438
175.352,267.034263709
175.367,267.017177999
175.382,266.99996223
175.397,266.982616326
175.412,266.965140215
175.427,266.947533827
175.442,266.929797092
175.457,266.911929944
175.472,266.893932318
175.487,266.875804151
175.502,266.857545384
175.517,266.839155957
175.532,266.820635815
175.547,266.801984901
175.562,266.783203165
175.577,266.764290554
175.592,266.74524702
175.607,266.726072517
175.622,266.706766998
175.637,266.687330421
175.652,266.667762744
175.667,266.648063927
175.682,266.628233933
175.697,266.608272724
175.712,266.588180267
175.727,266.567956528
175.742,266.547601477
175.757,266.527115082
175.772,266.506497317
175.787,266.485748154
175.802,266.464867569
175.817,266.443855538
175.832,266.422712039
175.847,266.401437051
175.862,266.380030555
175.877,266.358492533
175.892,266.336822968
175.907,266.315021844
175.922,266.293089148
175.937,266.271024866
175.952,266.248828988
175.967,266.226501501
175.982,266.204042397
175.997,266.181451667
176.012,266.158729303
176.027,266.135875299
176.042,266.11288965
176.057,266.089772349
176.072,266.066523395
176.087,266.043142782
176.102,266.01963051
176.117,265.995986576
176.132,265.972210979
176.147,265.948303719
176.162,265.924264796
176.177,265.90009421
176.192,265.875791964
176.207,265.851358058
176.222,265.826792494
176.237,265.802095275
176.252,265.777266403
176.267,265.752305881
176.282,265.727213712
176.297,265.701989899
176.31,265.680022779
176.312,265.676634446
176.327,265.651147354
176.342,265.625528628
176.357,265.59977827
176.372,265.573896284
176.387,265.547882672
176.402,265.521737437
176.417,265.49546058
176.432,265.469052104
176.447,265.44251201
176.46,265.419404131
176.462,265.415840298
176.477,265.38903697
176.492,265.362102025
176.507,265.335035462
176.522,265.30783728
176.537,265.280507476
176.552,265.253046047
176.567,265.225452989
176.582,265.197728298
176.597,265.169871967
176.612,265.14188399
176.627,265.113764358
176.642,265.085513062
176.657,265.057130092
176.672,265.028615436
176.687,264.999969081
176.702,264.971191012
176.717,264.942281213
176.732,264.913239667
176.747,264.884066355
176.762,264.854761256
176.777,264.825324348
176.792,264.795755606
176.807,264.766055004
176.822,264.736222514
176.837,264.706258107
176.852,264.67616175
176.867,264.64593341
176.882,264.615573051
176.897,264.585080633
176.912,264.554456117
176.927,264.52369946
176.942,264.492810616
176.957,264.461789538
176.972,264.430636176
176.987,264.399350476
177.002,264.367932384
177.017,264.336381842
177.032,264.304698788
177.047,264.27288316
177.062,264.240934891
177.077,264.208853912
177.092,264.176640151
177.107,264.144293532
177.122,264.111813977
177.137,264.079201405
177.152,264.046455732
177.167,264.013576868
177.182,263.980564725
177.197,263.947419206
177.21,263.918585128
177.212,263.914140214
177.227,263.880727648
177.242,263.847181403
177.257,263.813501371
177.272,263.77968744
177.287,263.745739494
177.302,263.711657414
177.31,263.693425417
177.317,263.677441077
177.332,263.643090357
177.347,263.608605121
177.362,263.573985237
177.377,263.539230564
177.392,263.504340962
177.407,263.469316282
177.422,263.434156376
177.437,263.398861086
177.452,263.363430256
177.467,263.327863722
177.482,263.292161315
177.497,263.256322865
177.512,263.220348196
177.527,263.184237126
177.542,263.147989471
177.557,263.111605043
177.572,263.075083646
177.587,263.038425083
177.602,263.00162915
177.617,262.964695641
177.632,262.927624343
177.647,262.890415039
177.66,262.858055173
177.662,262.853067507
177.677,262.815581522
177.692,262.777956852
177.707,262.740193262
177.722,262.70229051
177.737,262.664248352
177.752,262.626066536
177.767,262.587744808
177.782,262.549282907
177.797,262.510680567
177.812,262.471937519
177.827,262.433053488
177.842,262.394028192
177.857,262.354861347
177.872,262.315552661
177.887,262.27610184
177.902,262.236508583
177.917,262.196772583
177.932,262.156893529
177.947,262.116871106
177.96,262.082068787
177.962,262.076704991
177.977,262.036394858
177.992,261.995940375
178.007,261.955341204
178.022,261.914597003
178.037,261.873707424
178.052,261.832672114
178.067,261.791490713
178.082,261.750162859
178.097,261.708688182
178.112,261.667066307
178.127,261.625296853
178.142,261.583379437
178.157,261.541313665
178.172,261.499099143
178.187,261.456735468
178.202,261.414222232
178.217,261.371559024
178.232,261.328745424
178.247,261.285781009
178.262,261.24266535
178.277,261.199398011
178.292,261.155978552
178.307,261.112406527
178.322,261.068681484
178.337,261.024802967
178.352,260.980770512
178.367,260.936583651
178.382,260.89224191
178.397,260.84774481
178.41,260.809054612
178.412,260.803091864
178.427,260.758282582
178.442,260.713316468
178.457,260.668193018
178.472,260.622911725
178.487,260.577472074
178.502,260.531873546
178.517,260.486115616
178.532,260.440197753
178.547,260.394119418
178.562,260.347880071
178.577,260.301479161
178.592,260.254916134
178.607,260.20819043
178.622,260.161301482
178.637,260.114248718
178.652,260.067031559
178.667,260.019649422
178.682,259.972101716
178.697,259.924387845
178.712,259.876507205
178.727,259.82845919
178.742,259.780243183
178.757,259.731858564
178.772,259.683304706
178.787,259.634580975
178.802,259.585686733
178.817,259.536621332
178.832,259.487384122
178.847,259.437974442
178.862,259.388391629
178.877,259.33863501
178.892,259.288703907
178.907,259.238597636
178.922,259.188315506
178.937,259.137856818
178.952,259.087220868
178.967,259.036406944
178.982,258.985414329
178.997,258.934242296
179.012,258.882890114
179.027,258.831357045
179.042,258.779642341
179.057,258.727745249
179.072,258.67566501
179.087,258.623400854
179.102,258.570952009
179.117,258.51831769
179.132,258.465497108
179.147,258.412489467
179.16,258.366397577
179.162,258.35929396
179.177,258.305909775
179.192,258.252336092
179.207,258.198572082
179.222,258.14461691
179.237,258.090469731
179.252,258.036129692
179.267,257.981595934
179.282,257.926867587
179.297,257.871943775
179.312,257.816823612
179.327,257.761506203
179.342,257.705990646
179.357,257.65027603
179.372,257.594361434
179.387,257.538245928
179.402,257.481928575
179.417,257.425408427
179.432,257.368684527
179.447,257.311755908
179.462,257.254621596
179.477,257.197280605
179.492,257.13973194
179.507,257.081974596
179.522,257.024007558
179.537,256.965829802
179.552,256.907440293
179.567,256.848837985
179.582,256.790021823
179.597,256.73099074
179.612,256.67174366
179.627,256.612279494
179.642,256.552597145
179.657,256.492695502
179.672,256.432573444
179.687,256.37222984
179.702,256.311663546
179.717,256.250873406
179.732,256.189858253
179.747,256.12861691
179.762,256.067148184
179.777,256.005450873
179.792,255.943523762
179.807,255.881365624
179.822,255.818975218
179.837,255.756351292
179.852,255.69349258
179.867,255.630397804
179.882,255.567065672
179.897,255.503494879
179.91,255.448206124
179.912,255.439684108
179.927,255.375632027
179.942,255.311337291
179.957,255.246798541
179.972,255.182014404
179.987,255.116983494
180.002,255.051704409
180.017,254.986175733
180.032,254.920396039
180.047,254.85436388
180.062,254.788077799
180.077,254.721536322
180.092,254.65473796
180.107,254.587681209
180.122,254.52036455
180.137,254.452786451
180.152,254.384945359
180.167,254.316839712
180.182,254.248467928
180.197,254.179828411
180.212,254.110919548
180.227,254.041739712
180.242,253.972287258
180.257,253.902560525
180.272,253.832557838
180.287,253.762277502
180.302,253.69171781
180.317,253.620877035
180.332,253.549753434
180.347,253.47834525
180.362,253.406650706
180.377,253.33466801
180.392,253.262395354
180.407,253.189830911
180.422,253.116972838
180.437,253.043819277
180.452,252.97036835
180.467,252.896618165
180.482,252.822566811
180.497,252.748212362
180.512,252.673552873
180.527,252.598586383
180.542,252.523310916
180.557,252.447724476
180.56,252.432569695
180.572,252.371825053
180.587,252.295610618
180.602,252.219079128
180.617,252.142228522
180.632,252.065056723
180.647,251.987561638
180.66,251.920136098
180.662,251.909741157
180.677,251.831593154
180.692,251.753115489
180.707,251.674306005
180.722,251.595162529
180.737,251.515682875
180.752,251.435864839
180.767,251.355706205
180.782,251.275204741
180.797,251.194358202
180.812,251.113164327
180.827,251.031620844
180.842,250.949725467
180.857,250.867475896
180.872,250.78486982
180.887,250.701904916
180.902,250.618578849
180.917,250.534889274
180.932,250.450833833
180.947,250.366410162
180.962,250.281615884
180.977,250.196448615
180.992,250.110905963
181.007,250.024985528
181.022,249.938684905
181.037,249.85200168
181.052,249.764933437
181.067,249.677477753
181.082,249.589632205
181.097,249.501394364
181.112,249.412761802
181.127,249.32373209
181.142,249.234302798
181.157,249.144471501
181.172,249.054235775
181.187,248.963593201
181.202,248.872541363
181.217,248.781077857
181.232,248.689200283
181.247,248.596906254
181.262,248.504193391
181.277,248.411059333
181.292,248.31750173
181.307,248.22351825
181.31,248.204670245
181.322,248.129106581
181.337,248.03426443
181.352,247.938989528
181.367,247.843279632
181.382,247.747132524
181.397,247.650546018
181.412,247.553517959
181.427,247.456046228
181.442,247.358128744
181.457,247.259763466
181.472,247.160948398
181.487,247.061681591
181.502,246.961961145
181.517,246.861785215
181.532,246.761152015
181.547,246.660059818
181.562,246.558506964
181.577,246.456491865
181.592,246.354013003
181.607,246.251068942
181.622,246.14765833
181.637,246.043779902
181.652,245.93943249
181.667,245.834615024
181.682,245.729326541
181.697,245.62356619
181.712,245.517333239
181.727,245.410627081
181.742,245.303447241
181.757,245.195793387
181.772,245.087665331
181.787,244.979063044
181.802,244.869986662
181.817,244.760436493
181.832,244.65041303
181.847,244.53991696
181.862,244.428949174
181.877,244.317510776
181.892,244.205603099
181.907,244.093227714
181.922,243.980386443
181.937,243.867081374
181.952,243.753314874
181.967,243.639089601
181.982,243.524408525
181.997,243.40927494
182.012,243.293692484
182.027,243.177665153
182.042,243.061197323
182.057,242.944293768
182.06,242.920861219
182.072,242.826959682
182.087,242.709200699
182.102,242.591022917
182.117,242.472432921
182.132,242.353437808
182.147,242.234045213
182.162,242.114263336
182.177,241.994100972
182.192,241.873567538
182.207,241.752673109
182.222,241.631428444
182.237,241.509845028
182.252,241.3879351
182.267,241.265711696
182.282,241.143188684
182.297,241.020380807
182.312,240.897303725
182.327,240.773974056
182.342,240.650409425
182.357,240.52662851
182.372,240.402651091
182.387,240.2784981
182.402,240.154191677
182.417,240.029755219
182.432,239.905213442
182.447,239.780592436
182.462,239.655919725
182.477,239.531224327
182.492,239.40653682
182.507,239.281889405
182.522,239.157315967
182.537,239.032852152
182.552,238.908535424
182.567,238.78440514
182.582,238.660502617
182.597,238.536871204
182.612,238.41355635
182.627,238.290605673
182.642,238.16806903
182.657,238.045998589
182.672,237.92444889
182.687,237.803476917
182.702,237.68314216
182.717,237.563506674
182.732,237.444635145
182.747,237.326594942
182.762,237.209456174
182.777,237.09329174
182.792,236.978177377
182.807,236.864191707
182.822,236.751416282
182.837,236.63993562
182.852,236.529837256
182.867,236.421211778
182.882,236.314152878
182.897,236.208757404
182.912,236.105125424
182.927,236.003360301
182.942,235.903568795
182.957,235.805861182
182.972,235.710351411
182.987,235.617157305
183.002,235.526400809
183.017,235.438208291
183.032,235.352710927
183.047,235.270045139
183.062,235.190353122
183.077,235.113783431
183.092,235.040491619
183.107,234.970640892
183.122,234.904402715
183.137,234.841957282
183.152,234.783493708
183.167,234.72920978
183.182,234.679311018
183.197,234.63400882
183.212,234.593517399
183.227,234.558049338
183.242,234.527809653
183.257,234.502988512
183.367,234.496678862
183.382,234.519713577
183.397,234.548125388
183.412,234.581720385
183.427,234.620291658
183.442,234.663626274
183.457,234.711510834
183.472,234.763735573
183.487,234.820097094
183.502,234.880399986
183.517,234.944457563
183.532,235.012091999
183.547,235.083134049
183.562,235.157422544
183.577,235.23480377
183.592,235.315130816
183.607,235.398262947
183.622,235.484065038
183.637,235.572407073
183.652,235.663163715
183.667,235.756213954
183.682,235.851440817
183.697,235.948731137
183.712,236.047975362
183.727,236.149067414
183.742,236.251904575
183.757,236.356387391
183.772,236.462419605
183.787,236.569908099
183.802,236.678762836
183.817,236.788896825
183.832,236.900226071
183.847,237.01266954
183.862,237.126149113
183.877,237.240589545
183.892,237.35591842
183.907,237.472066101
183.922,237.588965678
183.937,237.706552916
183.952,237.824766196
183.967,237.943546456
183.982,238.062837128
183.997,238.182584075
184.012,238.302735521
184.027,238.42324199
184.042,238.544056232
184.057,238.665133154
184.072,238.786429755
184.087,238.907905049
184.102,239.029520003
184.117,239.151237462
184.132,239.273022085
184.147,239.394840271
184.162,239.516660102
184.177,239.638451268
184.192,239.760185009
184.207,239.88183405
184.222,240.003372542
184.237,240.124776001
184.252,240.246021249
184.267,240.36708636
184.282,240.487950609
184.297,240.60859441
184.312,240.728999277
184.327,240.849147767
184.342,240.969023434
184.357,241.088610789
184.372,241.207895248
184.387,241.326863097
184.402,241.44550145
184.417,241.563798209
184.432,241.681742026
184.447,241.799322271
184.462,241.916528997
184.477,242.033352905
184.492,242.149785315
184.507,242.265818137
184.522,242.38144384
184.537,242.496655428
184.552,242.611446412
184.56,242.672494197
184.567,242.725810786
184.582,242.839743001
184.597,242.953237948
184.612,243.066290931
184.627,243.178897648
184.642,243.291054176
184.657,243.402756943
184.672,243.514002721
184.687,243.6247886
184.702,243.735111977
184.717,243.84497054
184.732,243.954362252
184.747,244.063285339
184.762,244.171738274
184.777,244.279719766
184.792,244.387228748
184.807,244.494264367
184.822,244.600825968
184.837,244.70691309
184.852,244.812525453
184.867,244.917662946
184.882,245.022325622
184.897,245.126513689
184.912,245.2302275
184.927,245.333467546
184.942,245.436234448
184.957,245.538528952
184.972,245.640351919
184.987,245.741704322
185.002,245.842587238
185.017,245.94300184
185.032,246.042949398
185.047,246.142431266
185.062,246.241448882
185.077,246.340003761
185.092,246.438097492
185.107,246.535731732
185.122,246.632908203
185.137,246.729628685
185.152,246.825895019
185.167,246.921709095
185.182,247.017072855
185.197,247.111988286
185.212,247.206457419
185.227,247.300482324
185.242,247.394065109
185.257,247.487207917
185.272,247.579912922
185.287,247.672182326
185.302,247.764018362
185.31,247.812821159
185.317,247.855423284
185.332,247.94639937
185.347,248.036948918
185.362,248.127074246
185.377,248.216777686
185.392,248.306061588
185.407,248.394928312
185.422,248.483380233
185.437,248.571419732
185.452,248.659049201
185.467,248.746271039
185.482,248.833087651
185.497,248.919501445
185.512,249.005514833
185.527,249.091130229
185.542,249.176350048
185.557,249.261176706
185.572,249.345612616
185.587,249.42966019
185.602,249.513321838
185.617,249.596599963
185.632,249.679496967
185.647,249.762015245
185.662,249.844157186
185.677,249.925925171
185.692,250.007321577
185.707,250.088348769
185.722,250.169009104
185.737,250.249304933
185.752,250.329238594
185.767,250.408812414
185.782,250.488028713
185.797,250.566889796
185.812,250.645397958
185.827,250.723555484
185.842,250.801364642
185.857,250.878827691
185.872,250.955946875
185.887,251.032724427
185.902,251.109162563
185.917,251.185263488
185.932,251.261029392
185.947,251.336462449
185.96,251.4015702
185.962,251.411564821
185.977,251.486338653
185.992,251.560786077
186.007,251.634909209
186.022,251.708710148
186.037,251.782190982
186.052,251.855353779
186.06,251.894244605
186.067,251.928200593
186.082,252.000733464
186.097,252.072954413
186.112,252.144865448
186.127,252.21646856
186.142,252.287765723
186.157,252.358758897
186.172,252.429450024
186.187,252.499841032
186.202,252.569933831
186.217,252.639730316
186.232,252.709232365
186.247,252.778441842
186.262,252.847360592
186.277,252.915990447
186.292,252.98433322
186.307,253.052390711
186.322,253.120164703
186.337,253.187656961
186.352,253.254869237
186.367,253.321803267
186.382,253.38846077
186.397,253.454843451
186.412,253.520952997
186.427,253.586791082
186.442,253.652359363
186.457,253.717659483
186.472,253.78269307
186.487,253.847461735
186.502,253.911967075
186.517,253.976210673
186.532,254.040194096
186.547,254.103918896
186.562,254.167386613
186.577,254.230598769
186.592,254.293556873
186.607,254.356262421
186.622,254.418716894
186.637,254.480921758
186.652,254.542878466
186.667,254.604588456
186.682,254.666053155
186.697,254.727273975
186.71,254.780135828
186.712,254.788252313
186.727,254.848989554
186.742,254.90948707
186.757,254.969746221
186.772,255.029768351
186.787,255.089554795
186.802,255.149106871
186.817,255.208425888
186.832,255.267513141
186.847,255.326369913
186.862,255.384997474
186.877,255.443397084
186.892,255.501569989
186.907,255.559517424
186.922,255.617240612
186.937,255.674740765
186.952,255.732019082
186.967,255.789076754
186.982,255.845914957
186.997,255.902534858
187.012,255.958937613
187.027,256.015124367
187.042,256.071096254
187.057,256.126854397
187.072,256.18239991
187.087,256.237733896
187.102,256.292857446
187.117,256.347771644
187.132,256.402477562
187.147,256.456976263
187.162,256.511268799
187.177,256.565356214
187.192,256.619239541
187.207,256.672919806
187.222,256.726398022
187.237,256.779675196
187.252,256.832752324
187.267,256.885630395
187.282,256.938310387
187.297,256.990793271
187.312,257.043080007
187.327,257.095171549
187.342,257.147068842
187.357,257.198772821
187.372,257.250284415
187.387,257.301604544
187.402,257.352734118
187.417,257.403674043
187.432,257.454425213
187.447,257.504988518
187.46,257.548658766
187.462,257.555364837
187.477,257.605555043
187.492,257.655560003
187.507,257.705380574
187.522,257.755017606
187.537,257.804471944
187.552,257.853744423
187.567,257.902835873
187.582,257.951747116
187.597,258.000478968
187.612,258.049032237
187.627,258.097407726
187.642,258.145606228
187.657,258.193628534
187.672,258.241475424
187.687,258.289147676
187.702,258.336646057
187.717,258.383971331
187.732,258.431124254
187.747,258.478105578
187.762,258.524916047
187.777,258.571556399
187.792,258.618027367
187.807,258.664329678
187.822,258.710464051
187.837,258.756431203
187.852,258.802231842
187.867,258.847866672
187.882,258.893336391
187.897,258.938641692
187.912,258.983783262
187.927,259.028761781
187.942,259.073577927
187.957,259.11823237
187.972,259.162725776
187.987,259.207058805
188.002,259.251232112
188.017,259.295246347
188.032,259.339102155
188.047,259.382800176
188.062,259.426341045
188.077,259.469725392
188.092,259.512953841
188.107,259.556027014
188.122,259.598945525
188.137,259.641709985
188.152,259.684321
188.167,259.726779171
188.182,259.769085094
188.197,259.811239362
188.21,259.847650841
188.212,259.853242561
188.227,259.895095274
188.242,259.936798079
188.257,259.97835155
188.272,260.019756257
188.287,260.061012764
188.302,260.102121631
188.317,260.143083414
188.332,260.183898667
188.347,260.224567934
188.362,260.265091761
188.377,260.305470686
188.392,260.345705244
188.407,260.385795965
188.422,260.425743376
188.437,260.465547999
188.452,260.505210353
188.467,260.544730951
188.482,260.584110304
188.497,260.623348918
188.512,260.662447296
188.527,260.701405934
188.542,260.740225329
188.557,260.778905969
188.572,260.817448342
188.587,260.85585293
188.602,260.894120212
188.617,260.932250663
188.632,260.970244754
188.647,261.008102952
188.66,261.040803828
188.662,261.045825722
188.677,261.083413523
188.692,261.120866811
188.707,261.15818604
188.722,261.195371657
188.737,261.232424109
