# 78954 TBPB Grantley Adams Observations at 12Z 30 Jun 2019
Frequency [GHz],TB
175.31,283.216380184
175.322,283.197029806
175.337,283.172754335
175.352,283.148381329
175.367,283.12391045
175.382,283.099341356
175.397,283.074673702
175.412,283.04990714
175.427,283.025041318
175.442,283.000075883
175.457,282.975010476
175.472,282.949844737
175.487,282.924578299
175.502,282.899210796
175.517,282.873741856
175.532,282.848171103
175.547,282.82249816
175.562,282.796722644
175.577,282.770844169
175.592,282.744862346
175.607,282.718776782
175.622,282.692587079
175.637,282.666292838
175.652,282.639893654
175.667,282.613389119
175.682,282.58677882
175.697,282.560062341
175.712,282.533239263
175.727,282.506309161
175.742,282.479271608
175.757,282.45212617
175.772,282.424872412
175.787,282.397509894
175.802,282.37003817
175.817,282.342456792
175.832,282.314765307
175.847,282.286963256
175.862,282.259050179
175.877,282.231025609
175.892,282.202889074
175.907,282.174640101
175.922,282.146278209
175.937,282.117802913
175.952,282.089213726
175.967,282.060510153
175.982,282.031691695
175.997,282.002757851
176.012,281.973708112
176.027,281.944541965
176.042,281.915258894
176.057,281.885858375
176.072,281.856339881
176.087,281.826702881
176.102,281.796946836
176.117,281.767071204
176.132,281.737075438
176.147,281.706958986
176.162,281.676721288
176.177,281.646361782
176.192,281.6158799
176.207,281.585275068
176.222,281.554546706
176.237,281.523694231
176.252,281.492717052
176.267,281.461614574
176.282,281.430386196
176.297,281.399031311
176.31,281.371754275
176.312,281.367549307
176.327,281.335939567
176.342,281.304201466
176.357,281.272334376
176.372,281.24033766
176.387,281.20821068
176.402,281.175952786
176.417,281.143563328
176.432,281.111041646
176.447,281.078387075
176.46,281.049978437
176.462,281.045598945
176.477,281.012676579
176.492,280.979619294
176.507,280.9464264
176.522,280.913097204
176.537,280.879631002
176.552,280.846027087
176.567,280.812284745
176.582,280.778403256
176.597,280.744381892
176.612,280.71021992
176.627,280.675916599
176.642,280.641471184
176.657,280.606882921
176.672,280.572151051
176.687,280.537274807
176.702,280.502253416
176.717,280.467086098
176.732,280.431772067
176.747,280.396310529
176.762,280.360700684
176.777,280.324941724
176.792,280.289032835
176.807,280.252973197
176.822,280.216761981
176.837,280.180398351
176.852,280.143881466
176.867,280.107210476
176.882,280.070384524
176.897,280.033402746
176.912,279.996264271
176.927,279.95896822
176.942,279.921513708
176.957,279.883899842
176.972,279.846125721
176.987,279.808190437
177.002,279.770093074
177.017,279.731832709
177.032,279.693408413
177.047,279.654819245
177.062,279.616064262
177.077,279.577142508
177.092,279.538053024
177.107,279.49879484
177.122,279.459366979
177.137,279.419768457
177.152,279.379998283
177.167,279.340055454
177.182,279.299938964
177.197,279.259647796
177.21,279.224586698
177.212,279.219180927
177.227,279.178537324
177.242,279.137715947
177.257,279.096715749
177.272,279.055535673
177.287,279.014174655
177.302,278.972631623
177.31,278.950400542
177.317,278.930905495
177.332,278.888995184
177.347,278.846899592
177.362,278.804617613
177.377,278.762148135
177.392,278.719490035
177.407,278.676642184
177.422,278.633603442
177.437,278.590372662
177.452,278.54694869
177.467,278.503330361
177.482,278.459516503
177.497,278.415505935
177.512,278.371297469
177.527,278.326889905
177.542,278.282282038
177.557,278.237472654
177.572,278.192460527
177.587,278.147244427
177.602,278.101823113
177.617,278.056195334
177.632,278.010359834
177.647,277.964315346
177.66,277.924240088
177.662,277.918060593
177.677,277.871594293
177.692,277.824915152
177.707,277.778021869
177.722,277.730913134
177.737,277.683587628
177.752,277.636044022
177.767,277.588280981
177.782,277.54029716
177.797,277.492091204
177.812,277.443661751
177.827,277.395007429
177.842,277.346126858
177.857,277.297018648
177.872,277.247681403
177.887,277.198113714
177.902,277.148314168
177.917,277.098281339
177.932,277.048013795
177.947,276.997510093
177.96,276.953548073
177.962,276.946768784
177.977,276.895788408
177.992,276.844567497
178.007,276.793104574
178.022,276.741398155
178.037,276.689446743
178.052,276.637248838
178.067,276.584802926
178.082,276.532107489
178.097,276.479160997
178.112,276.425961912
178.127,276.372508689
178.142,276.318799772
178.157,276.2648336
178.172,276.210608599
178.187,276.156123189
178.202,276.101375783
178.217,276.046364782
178.232,275.991088582
178.247,275.935545568
178.262,275.879734117
178.277,275.823652601
178.292,275.767299379
178.307,275.710672805
178.322,275.653771223
178.337,275.59659297
178.352,275.539136376
178.367,275.48139976
178.382,275.423381435
178.397,275.365079706
178.41,275.314320982
178.412,275.306492869
178.427,275.247619215
178.442,275.188457024
178.457,275.12900457
178.472,275.069260119
178.487,275.00922193
178.502,274.948888253
178.517,274.888257332
178.532,274.827327404
178.547,274.766096698
178.562,274.704563436
178.577,274.642725832
178.592,274.580582094
178.607,274.518130424
178.622,274.455369015
178.637,274.392296054
178.652,274.328909723
178.667,274.265208196
178.682,274.20118964
178.697,274.136852216
178.712,274.07219408
178.727,274.00721338
178.742,273.94190826
178.757,273.876276857
178.772,273.810317302
178.787,273.744027719
178.802,273.67740623
178.817,273.610450949
178.832,273.543159985
178.847,273.475531442
178.862,273.407563419
178.877,273.33925401
178.892,273.270601304
178.907,273.201603386
178.922,273.132258336
178.937,273.06256423
178.952,272.992519139
178.967,272.92212113
178.982,272.851368268
178.997,272.780258612
179.012,272.708790218
179.027,272.636961139
179.042,272.564769424
179.057,272.492213121
179.072,272.419290272
179.087,272.345998918
179.102,272.272337097
179.117,272.198302846
179.132,272.123894197
179.147,272.049109182
179.16,271.983989542
179.162,271.973945831
179.177,271.898402172
179.192,271.822476232
179.207,271.746166036
179.222,271.669469607
179.237,271.59238497
179.252,271.514910147
179.267,271.437043161
179.282,271.358782033
179.297,271.280124785
179.312,271.201069441
179.327,271.121614021
179.342,271.04175655
179.357,270.961495052
179.372,270.880827551
179.387,270.799752075
179.402,270.71826665
179.417,270.636369307
179.432,270.554058077
179.447,270.471330995
179.462,270.388186095
179.477,270.304621419
179.492,270.220635006
179.507,270.136224904
179.522,270.051389159
179.537,269.966125825
179.552,269.880432957
179.567,269.794308615
179.582,269.707750865
179.597,269.620757776
179.612,269.533327421
179.627,269.445457881
179.642,269.35714724
179.657,269.268393589
179.672,269.179195025
179.687,269.089549649
179.702,268.999455571
179.717,268.908910908
179.732,268.817913781
179.747,268.726462322
179.762,268.634554667
179.777,268.542188963
179.792,268.449363362
179.807,268.356076027
179.822,268.262325127
179.837,268.168108843
179.852,268.073425362
179.867,267.978272882
179.882,267.88264961
179.897,267.786553763
179.91,267.702887066
179.912,267.68998357
179.927,267.592937267
179.942,267.495413104
179.957,267.397409339
179.972,267.298924244
179.987,267.199956101
180.002,267.100503203
180.017,267.000563857
180.032,266.90013638
180.047,266.799219105
180.062,266.697810373
180.077,266.595908543
180.092,266.493511985
180.107,266.39061908
180.122,266.287228229
180.137,266.183337841
180.152,266.078946343
180.167,265.974052176
180.182,265.868653796
180.197,265.762749672
180.212,265.656338291
180.227,265.549418156
180.242,265.441987783
180.257,265.334045707
180.272,265.225590477
180.287,265.116620662
180.302,265.007134846
180.317,264.897131629
180.332,264.78660963
180.347,264.675567486
180.362,264.564003852
180.377,264.451917401
180.392,264.339306823
180.407,264.226170829
180.422,264.112508149
180.437,263.998317531
180.452,263.883597743
180.467,263.768347573
180.482,263.65256583
180.497,263.536251343
180.512,263.41940296
180.527,263.302019552
180.542,263.184100012
180.557,263.065643252
180.56,263.04188734
180.572,262.946648207
180.587,262.827113836
180.602,262.707039116
180.617,262.586423052
180.632,262.465264669
180.647,262.343563015
180.66,262.237648085
180.662,262.221317163
180.677,262.09852621
180.692,261.975189278
180.707,261.85130551
180.722,261.726874079
180.737,261.601894181
180.752,261.476365035
180.767,261.350285891
180.782,261.223656023
180.797,261.09647473
180.812,260.968741341
180.827,260.84045521
180.842,260.711615721
180.857,260.582222284
180.872,260.452274338
180.887,260.321771353
180.902,260.190712824
180.917,260.05909828
180.932,259.926927276
180.947,259.794199399
180.962,259.660914268
180.977,259.527071529
180.992,259.392670864
181.007,259.257711981
181.022,259.122194625
181.037,258.98611857
181.052,258.849483623
181.067,258.712289623
181.082,258.574536442
181.097,258.436223986
181.112,258.297352193
181.127,258.157921034
181.142,258.017930513
181.157,257.877380669
181.172,257.736271571
181.187,257.594603324
181.202,257.452376065
181.217,257.309589963
181.232,257.166245221
181.247,257.022342072
181.262,256.877880783
181.277,256.732861651
181.292,256.587285003
181.307,256.441151197
181.31,256.41185761
181.322,256.294460617
181.337,256.147213679
181.352,255.999410824
181.367,255.851052516
181.382,255.702139247
181.397,255.552671529
181.412,255.402649895
181.427,255.252074897
181.442,255.100947105
181.457,254.9492671
181.472,254.797035477
181.487,254.644252839
181.502,254.490919794
181.517,254.337036954
181.532,254.182604927
181.547,254.027624317
181.562,253.872095719
181.577,253.716019712
181.592,253.559396857
181.607,253.402227689
181.622,253.244512714
181.637,253.0862524
181.652,252.927447172
181.667,252.768097406
181.682,252.608203419
181.697,252.447765462
181.712,252.286783712
181.727,252.125258262
181.742,251.963189113
181.757,251.800576162
181.772,251.637419191
181.787,251.473717856
181.802,251.309471676
181.817,251.144680018
181.832,250.979342085
181.847,250.8134569
181.862,250.647023292
181.877,250.48003988
181.892,250.312505053
181.907,250.144416956
181.922,249.975773471
181.937,249.806572192
181.952,249.636810409
181.967,249.466485085
181.982,249.295592831
181.997,249.12412988
182.012,248.952092066
182.027,248.779474792
182.042,248.606273002
182.057,248.432481151
182.06,248.39765145
182.072,248.258093174
182.087,248.083102449
182.102,247.90750176
182.117,247.731283265
182.132,247.554438449
182.147,247.376958082
182.162,247.198832177
182.177,247.020049938
182.192,246.840599707
182.207,246.660468916
182.222,246.47964402
182.237,246.298110437
182.252,246.115852484
182.267,245.932853301
182.282,245.749094774
182.297,245.564557455
182.312,245.379220467
182.327,245.193061412
182.342,245.006056264
182.357,244.818179256
182.372,244.629402756
182.387,244.439697135
182.402,244.249030619
182.417,244.057369132
182.432,243.86467612
182.447,243.670912362
182.462,243.47603576
182.477,243.280001108
182.492,243.08275984
182.507,242.884259749
182.522,242.684444677
182.537,242.483254176
182.552,242.280623121
182.567,242.076481292
182.582,241.870752904
182.597,241.663356074
182.612,241.454202241
182.627,241.243195506
182.642,241.030231892
182.657,240.815198522
182.672,240.597972681
182.687,240.378420774
182.702,240.156397144
182.717,239.931742736
182.732,239.704283593
182.747,239.473829155
182.762,239.240170334
182.777,239.003077336
182.792,238.762297198
182.807,238.517551002
182.822,238.268530728
182.837,238.014895706
182.852,237.75626861
182.867,237.492230981
182.882,237.222318198
182.897,236.946013912
182.912,236.662743888
182.927,236.371869302
182.942,236.072679528
182.957,235.764384568
182.972,235.446107349
182.987,235.116876322
183.002,234.775619027
183.017,234.421157699
183.032,234.052208612
183.047,233.66738775
183.062,233.265226881
183.077,232.844206329
183.092,232.402814331
183.107,231.939648556
183.122,231.453584651
183.137,230.944051697
183.152,230.411478782
183.167,229.858015274
183.182,229.288684096
183.197,228.713198758
183.212,228.148722253
183.227,227.623711567
183.242,227.182153421
183.257,226.884433817
183.367,226.933160043
183.382,227.268759096
183.397,227.731400085
183.412,228.264651335
183.427,228.828925972
183.442,229.399106646
183.457,229.960265805
183.472,230.504102106
183.487,231.026455146
183.502,231.525687986
183.517,232.00166571
183.532,232.455118755
183.547,232.887248526
183.562,233.299484403
183.577,233.693335418
183.592,234.070301369
183.607,234.431821357
183.622,234.779245939
183.637,235.113824078
183.652,235.436699292
183.667,235.748911372
183.682,236.051401334
183.697,236.345018102
183.712,236.630525973
183.727,236.908612257
183.742,237.17989472
183.757,237.444928636
183.772,237.704213314
183.787,237.958198076
183.802,238.207287655
183.817,238.451847056
183.832,238.692205889
183.847,238.92866224
183.862,239.161486091
183.877,239.390922366
183.892,239.617193613
183.907,239.840502386
183.922,240.061033342
183.937,240.278955101
183.952,240.494421889
183.967,240.707574988
183.982,240.918544029
183.997,241.127448123
184.012,241.334396883
184.027,241.539491316
184.042,241.742824628
184.057,241.944482931
184.072,242.144545883
184.087,242.343087255
184.102,242.540175437
184.117,242.735873897
184.132,242.930241587
184.147,243.123333316
184.162,243.315200076
184.177,243.505889343
184.192,243.695445353
184.207,243.88390934
184.222,244.071319762
184.237,244.257712505
184.252,244.443121065
184.267,244.627576719
184.282,244.811108675
184.297,244.993744217
184.312,245.175508832
184.327,245.356426331
184.342,245.536518955
184.357,245.715807482
184.372,245.894311314
184.387,246.072048568
184.402,246.249036155
184.417,246.425289852
184.432,246.600824376
184.447,246.775653447
184.462,246.949789845
184.477,247.123245473
184.492,247.296031402
184.507,247.468157928
184.522,247.639634613
184.537,247.810470333
184.552,247.980673316
184.56,248.071192176
184.567,248.150251182
184.582,248.319210979
184.597,248.48755922
184.612,248.655301912
184.627,248.822444589
184.642,248.988992341
184.657,249.154949841
184.672,249.320321373
184.687,249.485110853
184.702,249.649321857
184.717,249.81295764
184.732,249.97602116
184.747,250.138515095
184.762,250.300441864
184.777,250.461803645
184.792,250.622602391
184.807,250.782839847
184.822,250.942517566
184.837,251.101636923
184.852,251.260199128
184.867,251.418205239
184.882,251.575656177
184.897,251.732552735
184.912,251.88889559
184.927,252.044685313
184.942,252.19992238
184.957,252.35460718
184.972,252.508740023
184.987,252.662321152
185.002,252.815350747
185.017,252.967828933
185.032,253.119755788
185.047,253.271131349
185.062,253.421955618
185.077,253.572228565
185.092,253.721950138
185.107,253.871120265
185.122,254.019738859
185.137,254.167805821
185.152,254.315321046
185.167,254.462284426
185.182,254.608695853
185.197,254.75455522
185.212,254.89986243
185.227,255.04461739
185.242,255.188820021
185.257,255.332470257
185.272,255.475568045
185.287,255.61811335
185.302,255.760106156
185.31,255.835609742
185.317,255.901546466
185.332,256.042434304
185.347,256.182769719
185.362,256.322552779
185.377,256.461783579
185.392,256.600462239
185.407,256.738588904
185.422,256.876163745
185.437,257.013186961
185.452,257.149658777
185.467,257.285579445
185.482,257.420949247
185.497,257.55576849
185.512,257.690037511
185.527,257.823756674
185.542,257.956926371
185.557,258.089547022
185.572,258.221619075
185.587,258.353143006
185.602,258.484119318
185.617,258.614548542
185.632,258.744431236
185.647,258.873767983
185.662,259.002559396
185.677,259.130806111
185.692,259.258508793
185.707,259.38566813
185.722,259.512284838
185.737,259.638359654
185.752,259.763893345
185.767,259.888886698
185.782,260.013340526
185.797,260.137255665
185.812,260.260632974
185.827,260.383473336
185.842,260.505777654
185.857,260.627546856
185.872,260.74878189
185.887,260.869483727
185.902,260.989653355
185.917,261.109291788
185.932,261.228400057
185.947,261.346979213
185.96,261.44932065
185.962,261.465030329
185.977,261.582554494
185.992,261.699552817
186.007,261.816026428
186.022,261.931976472
186.037,262.047404113
186.052,262.162310534
186.06,262.22338125
186.067,262.276696933
186.082,262.390564526
186.097,262.503914547
186.112,262.616748245
186.127,262.729066884
186.142,262.840871747
186.157,262.952164129
186.172,263.062945344
186.187,263.173216717
186.202,263.282979591
186.217,263.392235322
186.232,263.500985279
186.247,263.609230849
186.262,263.716973427
186.277,263.824214427
186.292,263.930955273
186.307,264.037197402
186.322,264.142942266
186.337,264.248191326
186.352,264.352946059
186.367,264.45720795
186.382,264.560978501
186.397,264.664259221
186.412,264.767051632
186.427,264.869357268
186.442,264.971177672
186.457,265.072514401
186.472,265.173369018
186.487,265.2737431
186.502,265.373638232
186.517,265.473056011
186.532,265.57199804
186.547,265.670465937
186.562,265.768461323
186.577,265.865985832
186.592,265.963041107
186.607,266.059628797
186.622,266.155750562
186.637,266.251408068
186.652,266.346602992
186.667,266.441337015
186.682,266.535611829
186.697,266.629429132
186.71,266.710368703
186.712,266.722790628
186.727,266.815698031
186.742,266.908153058
186.757,267.000157437
186.772,267.091712899
186.787,267.182821182
186.802,267.273484031
186.817,267.363703197
186.832,267.453480434
186.847,267.542817504
186.862,267.631716175
186.877,267.720178216
186.892,267.808205406
186.907,267.895799524
186.922,267.982962357
186.937,268.069695694
186.952,268.156001329
186.967,268.24188106
186.982,268.327336689
186.997,268.41237002
187.012,268.496982862
187.027,268.581177027
187.042,268.664954328
187.057,268.748316583
187.072,268.831265611
187.087,268.913803235
187.102,268.995931279
187.117,269.07765157
187.132,269.158965935
187.147,269.239876204
187.162,269.320384209
187.177,269.400491783
187.192,269.480200758
187.207,269.559512971
187.222,269.638430255
187.237,269.716954449
187.252,269.795087387
187.267,269.872830906
187.282,269.950186845
187.297,270.027157039
187.312,270.103743325
187.327,270.179947539
187.342,270.255771517
187.357,270.331217094
187.372,270.406286104
187.387,270.48098038
187.402,270.555301753
187.417,270.629252055
187.432,270.702833114
187.447,270.776046758
187.46,270.839202795
187.462,270.848894812
187.477,270.921379099
187.492,270.993501443
187.507,271.06526366
187.522,271.13666757
187.537,271.207714985
187.552,271.278407719
187.567,271.34874758
187.582,271.418736374
187.597,271.488375905
187.612,271.557667972
187.627,271.626614372
187.642,271.695216899
187.657,271.763477342
187.672,271.831397488
187.687,271.898979118
187.702,271.966224012
187.717,272.033133944
187.732,272.099710683
187.747,272.165955997
187.762,272.231871647
187.777,272.297459391
187.792,272.362720982
187.807,272.427658166
187.822,272.49227269
187.837,272.55656629
187.852,272.620540701
187.867,272.684197651
187.882,272.747538864
187.897,272.810566059
187.912,272.873280948
187.927,272.93568524
187.942,272.997780636
187.957,273.059568834
187.972,273.121051525
187.987,273.182230394
188.002,273.24310712
188.017,273.303683378
188.032,273.363960837
188.047,273.423941156
188.062,273.483625994
188.077,273.543016998
188.092,273.602115814
188.107,273.660924078
188.122,273.719443422
188.137,273.777675471
188.152,273.835621842
188.167,273.893284147
188.182,273.950663993
188.197,274.007762977
188.21,274.057022809
188.212,274.064582692
188.227,274.121124724
188.242,274.17739065
188.257,274.233382044
188.272,274.28910047
188.287,274.344547487
188.302,274.399724647
188.317,274.454633493
188.332,274.509275563
188.347,274.563652389
188.362,274.617765493
188.377,274.671616393
188.392,274.725206597
188.407,274.778537608
188.422,274.831610922
188.437,274.884428025
188.452,274.9369904
188.467,274.98929952
188.482,275.041356851
188.497,275.093163852
188.512,275.144721975
188.527,275.196032665
188.542,275.247097359
188.557,275.297917487
188.572,275.348494471
188.587,275.398829727
188.602,275.448924663
188.617,275.498780679
188.632,275.548399168
188.647,275.597781515
188.66,275.640389604
188.662,275.646929101
188.677,275.695843294
188.692,275.744525459
188.707,275.792976951
188.722,275.841199121
188.737,275.889193307
