# 10410 EDZE Essen Observations at 12Z 30 Sep 2019
Frequency [GHz],TB
175.31,271.152150269
175.322,271.141717365
175.337,271.128561171
175.352,271.115277102
175.367,271.101865142
175.382,271.088325258
175.397,271.074657438
175.412,271.060861671
175.427,271.046937945
175.442,271.032886248
175.457,271.018706592
175.472,271.004398963
175.487,270.989963374
175.502,270.975399828
175.517,270.96070834
175.532,270.945888922
175.547,270.9309416
175.562,270.91586639
175.577,270.90066332
175.592,270.885332421
175.607,270.869873723
175.622,270.854287271
175.637,270.83857309
175.652,270.822731236
175.667,270.806761759
175.682,270.790664697
175.697,270.774440115
175.712,270.758088068
175.727,270.741608615
175.742,270.725001824
175.757,270.708267758
175.772,270.691406497
175.787,270.674418106
175.802,270.657302673
175.817,270.640060271
175.832,270.622690991
175.847,270.605194919
175.862,270.587572144
175.877,270.569822769
175.892,270.551946879
175.907,270.53394459
175.922,270.515815996
175.937,270.497561207
175.952,270.479180332
175.967,270.460673489
175.982,270.442040791
175.997,270.42328236
176.012,270.404398315
176.027,270.385388788
176.042,270.366253902
176.057,270.346993792
176.072,270.327608591
176.087,270.308098434
176.102,270.288463463
176.117,270.268703819
176.132,270.248819649
176.147,270.228811102
176.162,270.208678322
176.177,270.188421468
176.192,270.168040696
176.207,270.147536162
176.222,270.126908024
176.237,270.106156447
176.252,270.085281598
176.267,270.064283644
176.282,270.043162747
176.297,270.021919087
176.31,270.003408744
176.312,270.000552836
176.327,269.979064164
176.342,269.957453259
176.357,269.935720293
176.372,269.913865448
176.387,269.89188891
176.402,269.869790862
176.417,269.847571494
176.432,269.825230989
176.447,269.802769542
176.46,269.783205272
176.462,269.780187341
176.477,269.757484583
176.492,269.734661462
176.507,269.711718167
176.522,269.688654904
176.537,269.665471862
176.552,269.642169249
176.567,269.618747256
176.582,269.595206094
176.597,269.571545956
176.612,269.547767051
176.627,269.523869578
176.642,269.499853747
176.657,269.47571976
176.672,269.451467821
176.687,269.427098135
176.702,269.402610913
176.717,269.37800636
176.732,269.353284676
176.747,269.32844608
176.762,269.303490768
176.777,269.278418949
176.792,269.253230832
176.807,269.227926626
176.822,269.202506537
176.837,269.176970763
176.852,269.151319514
176.867,269.125553
176.882,269.099671418
176.897,269.073674971
176.912,269.047563871
176.927,269.02133831
176.942,268.994998494
176.957,268.968544619
176.972,268.941976889
176.987,268.915295493
177.002,268.888500637
177.017,268.861592505
177.032,268.834571299
177.047,268.807437207
177.062,268.780190416
177.077,268.752831117
177.092,268.725359495
177.107,268.697775734
177.122,268.670080016
177.137,268.642272521
177.152,268.614353425
177.167,268.586322903
177.182,268.558181128
177.197,268.529928269
177.21,268.505352735
177.212,268.501564495
177.227,268.473089973
177.242,268.444504856
177.257,268.415809307
177.272,268.387003485
177.287,268.358087537
177.302,268.329061618
177.31,268.313536211
177.317,268.299925868
177.332,268.270680432
177.347,268.241325448
177.362,268.211861046
177.377,268.182287367
177.392,268.152604536
177.407,268.12281267
177.422,268.092911897
177.437,268.062902324
177.452,268.032784067
177.467,268.002557233
177.482,267.97222192
177.497,267.941778235
177.512,267.911226258
177.527,267.880566089
177.542,267.849797802
177.557,267.818921483
177.572,267.787937205
177.587,267.756845029
177.602,267.72564503
177.617,267.694337257
177.632,267.662921763
177.647,267.631398605
177.66,267.603991466
177.662,267.599767809
177.677,267.568029421
177.692,267.53618347
177.707,267.504229978
177.722,267.472168962
177.737,267.440000438
177.752,267.407724411
177.767,267.375340876
177.782,267.342849835
177.797,267.310251269
177.812,267.277545161
177.827,267.244731481
177.842,267.211810198
177.857,267.178781278
177.872,267.145644668
177.887,267.112400316
177.902,267.079048163
177.917,267.045588142
177.932,267.012020178
177.947,266.978344187
177.96,266.949070876
177.962,266.94456008
177.977,266.910667764
177.992,266.87666713
178.007,266.842558068
178.022,266.808340461
178.037,266.774014176
178.052,266.739579083
178.067,266.705035037
178.082,266.670381888
178.097,266.635619472
178.112,266.600747627
178.127,266.565766177
178.142,266.530674935
178.157,266.495473712
178.172,266.460162303
178.187,266.4247405
178.202,266.389208091
178.217,266.353564841
178.232,266.317810523
178.247,266.281944884
178.262,266.245967676
178.277,266.209878636
178.292,266.173677497
178.307,266.137363971
178.322,266.100937773
178.337,266.064398608
178.352,266.027746163
178.367,265.990980125
178.382,265.95410016
178.397,265.917105942
178.41,265.884951594
178.412,265.879997118
178.427,265.842773334
178.442,265.805434228
178.457,265.76797942
178.472,265.730408534
178.487,265.692721171
178.502,265.654916924
178.517,265.61699538
178.532,265.578956119
178.547,265.540798703
178.562,265.502522686
178.577,265.464127617
178.592,265.42561303
178.607,265.386978448
178.622,265.348223385
178.637,265.309347346
178.652,265.270349825
178.667,265.231230301
178.682,265.19198825
178.697,265.152623133
178.712,265.113134392
178.727,265.073521478
178.742,265.033783817
178.757,264.99392082
178.772,264.953931901
178.787,264.913816454
178.802,264.873573862
178.817,264.833203499
178.832,264.792704728
178.847,264.752076901
178.862,264.711319356
178.877,264.670431418
178.892,264.629412409
178.907,264.588261632
178.922,264.546978377
178.937,264.505561934
178.952,264.464011565
178.967,264.422326535
178.982,264.380506085
178.997,264.338549453
179.012,264.296455858
179.027,264.254224516
179.042,264.21185462
179.057,264.169345361
179.072,264.126695909
179.087,264.083905426
179.102,264.040973068
179.117,263.997897964
179.132,263.954679241
179.147,263.911316009
179.16,263.873616959
179.162,263.867807376
179.177,263.824152417
179.192,263.780350212
179.207,263.736399818
179.222,263.692300289
179.237,263.648050656
179.252,263.603649935
179.267,263.559097146
179.282,263.514391276
179.297,263.469531313
179.312,263.42451622
179.327,263.379344954
179.342,263.334016455
179.357,263.288529658
179.372,263.242883466
179.387,263.197076785
179.402,263.151108506
179.417,263.10497749
179.432,263.058682606
179.447,263.012222691
179.462,262.965596577
179.477,262.91880308
179.492,262.871840998
179.507,262.824709122
179.522,262.777406219
179.537,262.729931045
179.552,262.682282348
179.567,262.634458844
179.582,262.586459257
179.597,262.538282277
179.612,262.489926581
179.627,262.441390843
179.642,262.392673707
179.657,262.343773811
179.672,262.294689776
179.687,262.245420197
179.702,262.19596366
179.717,262.146318746
179.732,262.096484
179.747,262.046457965
179.762,261.996239163
179.777,261.94582609
179.792,261.895217244
179.807,261.844411094
179.822,261.793406085
179.837,261.742200667
179.852,261.690793249
179.867,261.639182237
179.882,261.587366016
179.897,261.535342952
179.91,261.490087704
179.912,261.483111389
179.927,261.430669666
179.942,261.378016088
179.957,261.325148949
179.972,261.272066529
179.987,261.218767083
180.002,261.165248849
180.017,261.111510041
180.032,261.057548863
180.047,261.003363498
180.062,260.948952101
180.077,260.894312817
180.092,260.839443764
180.107,260.784343045
180.122,260.729008739
180.137,260.673438912
180.152,260.617631598
180.167,260.561584818
180.182,260.50529657
180.197,260.448764834
180.212,260.391987561
180.227,260.334962688
180.242,260.27768813
180.257,260.220161774
180.272,260.162381487
180.287,260.104345121
180.302,260.046050495
180.317,259.987495412
180.332,259.92867765
180.347,259.869594963
180.362,259.810245086
180.377,259.750625723
180.392,259.690734562
180.407,259.630569261
180.422,259.570127458
180.437,259.509406765
180.452,259.448404769
180.467,259.387119033
180.482,259.325547093
180.497,259.263686465
180.512,259.201534635
180.527,259.139089063
180.542,259.076347184
180.557,259.013306412
180.56,259.000662159
180.572,258.949964123
180.587,258.886317679
180.602,258.822364413
180.617,258.758101623
180.632,258.693526582
180.647,258.628636548
180.66,258.572141572
180.662,258.563428737
180.677,258.497900343
180.692,258.432048532
180.707,258.36587044
180.722,258.29936318
180.737,258.232523828
180.752,258.165349443
180.767,258.09783704
180.782,258.029983621
180.797,257.961786145
180.812,257.893241552
180.827,257.824346748
180.842,257.755098608
180.857,257.685493979
180.872,257.61552968
180.887,257.545202497
180.902,257.474509188
180.917,257.403446478
180.932,257.332011064
180.947,257.260199613
180.962,257.188008762
180.977,257.115435114
180.992,257.042475244
181.007,256.969125699
181.022,256.895382991
181.037,256.821243604
181.052,256.746703988
181.067,256.671760568
181.082,256.596409735
181.097,256.520647855
181.112,256.444471257
181.127,256.367876244
181.142,256.290859087
181.157,256.213416034
181.172,256.135543293
181.187,256.057237052
181.202,255.978493466
181.217,255.899308669
181.232,255.819678755
181.247,255.7395998
181.262,255.659067854
181.277,255.578078931
181.292,255.496629028
181.307,255.414714117
181.31,255.398274977
181.322,255.332330143
181.337,255.249473025
181.352,255.166138668
181.367,255.082322944
181.382,254.998021715
181.397,254.913230814
181.412,254.827946067
181.427,254.742163271
181.442,254.655878214
181.457,254.56908667
181.472,254.481784401
181.487,254.393967151
181.502,254.305630664
181.517,254.216770668
181.532,254.127382898
181.547,254.037463071
181.562,253.947006921
181.577,253.856010172
181.592,253.764468553
181.607,253.672377809
181.622,253.579733688
181.637,253.48653196
181.652,253.392768406
181.667,253.298438839
181.682,253.203539088
181.697,253.108065016
181.712,253.012012521
181.727,252.915377549
181.742,252.818156078
181.757,252.720344145
181.772,252.621937849
181.787,252.522933341
181.802,252.423326852
181.817,252.323114686
181.832,252.222293236
181.847,252.120858983
181.862,252.018808514
181.877,251.91613853
181.892,251.812845849
181.907,251.708927417
181.922,251.604380331
181.937,251.499201834
181.952,251.393389347
181.967,251.286940449
181.982,251.179852938
181.997,251.072124796
182.012,250.96375424
182.027,250.854739731
182.042,250.745079971
182.057,250.634773946
182.06,250.612635118
182.072,250.523820928
182.087,250.41222051
182.102,250.29997261
182.117,250.187077504
182.132,250.073535853
182.147,249.95934871
182.162,249.84451756
182.177,249.729044347
182.192,249.612931483
182.207,249.496181914
182.222,249.378799103
182.237,249.260787101
182.252,249.142150556
182.267,249.022894759
182.282,248.90302567
182.297,248.782549961
182.312,248.66147505
182.327,248.539809145
182.342,248.417561275
182.357,248.294741324
182.372,248.171360097
182.387,248.047429337
182.402,247.922961776
182.417,247.797971174
182.432,247.672472361
182.447,247.546481288
182.462,247.420015044
182.477,247.293091923
182.492,247.165731433
182.507,247.037954349
182.522,246.909782731
182.537,246.781239958
182.552,246.652350736
182.567,246.52314113
182.582,246.393638544
182.597,246.263871725
182.612,246.133870757
182.627,246.003667003
182.642,245.873293069
182.657,245.742782722
182.672,245.612170797
182.687,245.481493072
182.702,245.350786081
182.717,245.220086944
182.732,245.089433069
182.747,244.958861863
182.762,244.828410334
182.777,244.698114625
182.792,244.568009431
182.807,244.438127309
182.822,244.308497853
182.837,244.179146667
182.852,244.050094149
182.867,243.921354021
182.882,243.792931541
182.897,243.664821319
182.912,243.537004687
182.927,243.409446454
182.942,243.282090942
182.957,243.154857043
182.972,243.027632151
182.987,242.900264482
183.002,242.772553447
183.017,242.644237396
183.032,242.514977912
183.047,242.384339492
183.062,242.25176302
183.077,242.116530836
183.092,241.977720215
183.107,241.834140935
183.122,241.684250719
183.137,241.526039976
183.152,241.356874177
183.167,241.173279064
183.182,240.970653136
183.197,240.742901638
183.212,240.482033076
183.227,240.177922758
183.242,239.818966213
183.257,239.395866157
183.367,239.494396463
183.382,239.89728028
183.397,240.237763043
183.412,240.526410893
183.427,240.774612627
183.442,240.991951029
183.457,241.185897583
183.472,241.362127947
183.487,241.524924853
183.502,241.677524786
183.517,241.822385617
183.532,241.961385219
183.547,242.095967005
183.562,242.227246354
183.577,242.356088846
183.592,242.483168103
183.607,242.609009032
183.622,242.734020322
183.637,242.858519253
183.652,242.982750664
183.667,243.10690172
183.682,243.231113419
183.697,243.355489678
183.712,243.480104538
183.727,243.605007968
183.742,243.7302305
183.757,243.855787007
183.772,243.981679781
183.787,244.107901041
183.802,244.234435015
183.817,244.361259627
183.832,244.488347915
183.847,244.615669194
183.862,244.743190023
183.877,244.870874995
183.892,244.998687413
183.907,245.126589823
183.922,245.254544473
183.937,245.382513685
183.952,245.510460141
183.967,245.638347154
183.982,245.766138834
183.997,245.893800282
184.012,246.021297665
184.027,246.148598356
184.042,246.275670958
184.057,246.402485398
184.072,246.529012923
184.087,246.65522612
184.102,246.781098942
184.117,246.906606684
184.132,247.031725968
184.147,247.156434737
184.162,247.280712212
184.177,247.404538877
184.192,247.527896428
184.207,247.65076776
184.222,247.773136902
184.237,247.894989004
184.252,248.016310263
184.267,248.137087919
184.282,248.257310188
184.297,248.376966228
184.312,248.496046095
184.327,248.614540715
184.342,248.732441822
184.357,248.849741945
184.372,248.966434348
184.387,249.082513
184.402,249.197972555
184.417,249.312808284
184.432,249.427016075
184.447,249.540592381
184.462,249.6535342
184.477,249.765839033
184.492,249.877504862
184.507,249.98853013
184.522,250.098913699
184.537,250.208654843
184.552,250.3177532
184.56,250.37567615
184.567,250.426208773
184.582,250.534021901
184.597,250.641193227
184.612,250.747723693
184.627,250.85361451
184.642,250.958867153
184.657,251.063483331
184.672,251.167464974
184.687,251.270814223
184.702,251.373533418
184.717,251.475625064
184.732,251.577091851
184.747,251.67793661
184.762,251.778162323
184.777,251.877772095
184.792,251.976769163
184.807,252.075156872
184.822,252.17293867
184.837,252.270118099
184.852,252.366698783
184.867,252.462684434
184.882,252.558078827
184.897,252.652885805
184.912,252.747109268
184.927,252.840753161
184.942,252.933821493
184.957,253.02631829
184.972,253.118247637
184.987,253.209613636
185.002,253.300420421
185.017,253.39067214
185.032,253.48037297
185.047,253.5695271
185.062,253.658138735
185.077,253.746212077
185.092,253.833751339
185.107,253.920760745
185.122,254.007244504
185.137,254.093206834
185.152,254.178651942
185.167,254.263584036
185.182,254.348007305
185.197,254.431925935
185.212,254.515344092
185.227,254.598265939
185.242,254.680695615
185.257,254.762637243
185.272,254.844094932
185.287,254.925072763
185.302,255.005574809
185.31,255.04831609
185.317,255.085605114
185.332,255.165167699
185.347,255.244266564
185.362,255.322905683
185.377,255.401089007
185.392,255.478820459
185.407,255.556103938
185.422,255.63294332
185.437,255.709342445
185.452,255.785305135
185.467,255.860835174
185.482,255.935936324
185.497,256.01061232
185.512,256.084866861
185.527,256.15870362
185.542,256.232126242
185.557,256.305138343
185.572,256.377743503
185.587,256.449945283
185.602,256.521747198
185.617,256.593152749
185.632,256.664165395
185.647,256.734788571
185.662,256.805025679
185.677,256.87488009
185.692,256.944355147
185.707,257.013454162
185.722,257.082180413
185.737,257.150537156
185.752,257.218527607
185.767,257.286154958
185.782,257.353422373
185.797,257.420332975
185.812,257.486889874
185.827,257.553096138
185.842,257.618954805
185.857,257.68446889
185.872,257.74964138
185.887,257.814475223
185.902,257.878973349
185.917,257.943138656
185.932,258.006974009
185.947,258.070482253
185.96,258.125260304
185.962,258.13366619
185.977,258.196528614
185.992,258.259072278
186.007,258.321299912
186.022,258.383214215
186.037,258.444817861
186.052,258.506113501
186.06,258.538679477
186.067,258.567103758
186.082,258.627791219
186.097,258.688178456
186.112,258.748268011
186.127,258.808062404
186.142,258.86756412
186.157,258.926775629
186.172,258.985699369
186.187,259.044337757
186.202,259.102693182
186.217,259.160768011
186.232,259.218564589
186.247,259.276085231
186.262,259.333332231
186.277,259.390307861
186.292,259.447014372
186.307,259.503453981
186.322,259.559628895
186.337,259.615541292
186.352,259.671193324
186.367,259.726587133
186.382,259.781724823
186.397,259.836608485
186.412,259.891240196
186.427,259.945621995
186.442,259.999755913
186.457,260.053643949
186.472,260.107288091
186.487,260.160690305
186.502,260.213852525
186.517,260.266776688
186.532,260.319464687
186.547,260.37191841
186.562,260.42413972
186.577,260.476130458
186.592,260.527892454
186.607,260.579427513
186.622,260.630737421
186.637,260.68182395
186.652,260.732688845
186.667,260.783333845
186.682,260.833760656
186.697,260.883970982
186.71,260.927312779
186.712,260.9339665
186.727,260.983748866
186.742,261.033319729
186.757,261.082680712
186.772,261.131833426
186.787,261.180779461
186.802,261.229520396
186.817,261.278057792
186.832,261.326393186
186.847,261.37452811
186.862,261.42246407
186.877,261.470202562
186.892,261.517745067
186.907,261.565093047
186.922,261.612247947
186.937,261.659211206
186.952,261.705984235
186.967,261.752568442
186.982,261.79896521
186.997,261.845175913
187.012,261.89120191
187.027,261.937044542
187.042,261.98270514
187.057,262.028185023
187.072,262.073485487
187.087,262.11860782
187.102,262.163553295
187.117,262.208323173
187.132,262.252918703
187.147,262.29734111
187.162,262.34159162
187.177,262.385671437
187.192,262.429581755
187.207,262.473323753
187.222,262.516898598
187.237,262.560307448
187.252,262.60355144
187.267,262.646631708
187.282,262.689549363
187.297,262.73230552
187.312,262.774901265
187.327,262.817337677
187.342,262.859615828
187.357,262.901736774
187.372,262.94370156
187.387,262.985511223
187.402,263.02716678
187.417,263.068669246
187.432,263.110019615
187.447,263.15121888
187.46,263.186803434
187.462,263.192268013
187.477,263.233167985
187.492,263.273919745
187.507,263.314524242
187.522,263.354982405
187.537,263.395295162
187.552,263.43546342
187.567,263.475488081
187.582,263.515370035
187.597,263.555110167
187.612,263.594709345
187.627,263.634168427
187.642,263.673488267
187.657,263.712669702
187.672,263.751713563
187.687,263.79062067
187.702,263.829391837
187.717,263.868027859
187.732,263.906529532
187.747,263.944897636
187.762,263.983132942
187.777,264.021236215
187.792,264.059208209
187.807,264.09704967
187.822,264.134761331
187.837,264.172343914
187.852,264.209798145
187.867,264.247124727
187.882,264.28432436
187.897,264.321397736
187.912,264.358345538
187.927,264.395168436
187.942,264.431867098
187.957,264.468442182
187.972,264.504894329
187.987,264.541224184
188.002,264.57743238
188.017,264.613519534
188.032,264.649486267
188.047,264.685333179
188.062,264.721060879
188.077,264.756669946
188.092,264.792160971
188.107,264.827534525
188.122,264.862791182
188.137,264.89793149
188.152,264.932956014
188.167,264.967865289
188.182,265.002659856
188.197,265.03734024
188.21,265.067304622
188.212,265.071906974
188.227,265.106360561
188.242,265.140701515
188.257,265.174930332
188.272,265.209047509
188.287,265.243053529
188.302,265.276948873
188.317,265.310734016
188.332,265.344409416
188.347,265.377975537
188.362,265.41143283
188.377,265.444781736
188.392,265.478022697
188.407,265.511156144
188.422,265.544182502
188.437,265.577102186
188.452,265.609915615
188.467,265.642623189
188.482,265.675225309
188.497,265.707722371
188.512,265.740114757
188.527,265.772402854
188.542,265.804587032
188.557,265.83666766
188.572,265.868645102
188.587,265.900519714
188.602,265.932291851
188.617,265.963961855
188.632,265.995530066
188.647,266.026996816
188.66,266.05418619
188.662,266.05836244
188.677,266.089627251
188.692,266.120791576
188.707,266.151855719
188.722,266.182819991
188.737,266.213684692
188.752,266.244450117
