# 10410 EDZE Essen Observations at 12Z 08 Nov 2019
Frequency [GHz],TB
175.31,267.083958207
175.322,267.093138978
175.337,267.104433136
175.352,267.115524418
175.367,267.12641189
175.382,267.137094627
175.397,267.147571701
175.412,267.157842191
175.427,267.167905178
175.442,267.177759745
175.457,267.187404982
175.472,267.196839977
175.487,267.206063827
175.502,267.215075629
175.517,267.223874485
175.532,267.232459501
175.547,267.240829788
175.562,267.248984458
175.577,267.25692263
175.592,267.264643425
175.607,267.272145972
175.622,267.2794294
175.637,267.286492844
175.652,267.293335446
175.667,267.299956351
175.682,267.306354708
175.697,267.312529671
175.712,267.318480402
175.727,267.324206064
175.742,267.329705828
175.757,267.33497887
175.772,267.340024371
175.787,267.344841518
175.802,267.349429502
175.817,267.353787524
175.832,267.357914785
175.847,267.361810496
175.862,267.365473875
175.877,267.368904143
175.892,267.372100529
175.907,267.375062267
175.922,267.377788601
175.937,267.380278778
175.952,267.382532052
175.967,267.384547687
175.982,267.386324951
175.997,267.38786312
176.012,267.389161476
176.027,267.390219312
176.042,267.391035922
176.057,267.391610615
176.072,267.391942702
176.087,267.392031503
176.102,267.391876346
176.117,267.391476568
176.132,267.390831513
176.147,267.389940534
176.162,267.38880299
176.177,267.387418249
176.192,267.38578569
176.207,267.383904698
176.222,267.381774666
176.237,267.379394998
176.252,267.376765106
176.267,267.37388441
176.282,267.370752338
176.297,267.36736833
176.31,267.364231308
176.312,267.363731834
176.327,267.359842306
176.342,267.355699214
176.357,267.351302031
176.372,267.346650244
176.387,267.341743349
176.402,267.336580848
176.417,267.331162258
176.432,267.325487102
176.447,267.319554914
176.46,267.314205422
176.462,267.313365239
176.477,267.306917631
176.492,267.300211656
176.507,267.293246887
176.522,267.28602291
176.537,267.278539322
176.552,267.270795728
176.567,267.262791745
176.582,267.254527001
176.597,267.246001134
176.612,267.237213794
176.627,267.228164639
176.642,267.218853343
176.657,267.209279584
176.672,267.199443057
176.687,267.189343468
176.702,267.178980528
176.717,267.168353966
176.732,267.15746352
176.747,267.146308938
176.762,267.134889981
176.777,267.12320642
176.792,267.111258039
176.807,267.099044631
176.822,267.086566005
176.837,267.073821976
176.852,267.060812376
176.867,267.047537044
176.882,267.033995834
176.897,267.02018861
176.912,267.006115248
176.927,266.991775635
176.942,266.97716967
176.957,266.962297266
176.972,266.947158345
176.987,266.931752842
177.002,266.916080703
177.017,266.900141887
177.032,266.883936362
177.047,266.867464112
177.062,266.85072513
177.077,266.83371942
177.092,266.816446999
177.107,266.798907896
177.122,266.781102152
177.137,266.763029817
177.152,266.744690956
177.167,266.726085643
177.182,266.707213965
177.197,266.68807602
177.21,266.671274504
177.212,266.668671917
177.227,266.649001777
177.242,266.629065731
177.257,266.608863924
177.272,266.588396511
177.287,266.567663657
177.302,266.546665537
177.31,266.535358141
177.317,266.525402342
177.332,266.503874269
177.347,266.482081528
177.362,266.460024339
177.377,266.437702933
177.392,266.415117553
177.407,266.392268449
177.422,266.369155885
177.437,266.345780133
177.452,266.322141475
177.467,266.298240206
177.482,266.274076627
177.497,266.249651051
177.512,266.224963801
177.527,266.200015207
177.542,266.174805612
177.557,266.149335366
177.572,266.123604827
177.587,266.097614365
177.602,266.071364357
177.617,266.044855188
177.632,266.018087253
177.647,265.991060954
177.66,265.967429491
177.662,265.963776702
177.677,265.936234915
177.692,265.90843602
177.707,265.88038045
177.722,265.852068648
177.737,265.823501061
177.752,265.794678145
177.767,265.765600362
177.782,265.73626818
177.797,265.706682075
177.812,265.676842528
177.827,265.646750025
177.842,265.61640506
177.857,265.585808131
177.872,265.554959741
177.887,265.523860398
177.902,265.492510616
177.917,265.460910911
177.932,265.429061806
177.947,265.396963825
177.96,265.368944673
177.962,265.364617499
177.977,265.33202336
177.992,265.299181944
178.007,265.26609379
178.022,265.232759438
178.037,265.199179433
178.052,265.16535432
178.067,265.131284647
178.082,265.096970962
178.097,265.062413815
178.112,265.027613759
178.127,264.992571342
178.142,264.957287118
178.157,264.921761638
178.172,264.885995453
178.187,264.849989114
178.202,264.813743171
178.217,264.777258171
178.232,264.740534661
178.247,264.703573186
178.262,264.666374287
178.277,264.628938505
178.292,264.591266376
178.307,264.553358434
178.322,264.515215208
178.337,264.476837223
178.352,264.438225003
178.367,264.399379062
178.382,264.360299913
178.397,264.320988061
178.41,264.286729947
178.412,264.281444009
178.427,264.24166825
178.442,264.201661273
178.457,264.161423558
178.472,264.12095558
178.487,264.080257807
178.502,264.039330696
178.517,263.998174699
178.532,263.956790258
178.547,263.915177807
178.562,263.873337769
178.577,263.83127056
178.592,263.788976583
178.607,263.746456234
178.622,263.703709895
178.637,263.66073794
178.652,263.61754073
178.667,263.574118615
178.682,263.530471931
178.697,263.486601005
178.712,263.442506147
178.727,263.398187658
178.742,263.353645824
178.757,263.308880916
178.772,263.263893192
178.787,263.218682896
178.802,263.173250256
178.817,263.127595486
178.832,263.081718783
178.847,263.035620329
178.862,262.989300291
178.877,262.942758818
178.892,262.895996042
178.907,262.84901208
178.922,262.801807029
178.937,262.754380971
178.952,262.706733967
178.967,262.658866062
178.982,262.61077728
178.997,262.56246763
179.012,262.513937098
179.027,262.465185652
179.042,262.41621324
179.057,262.36701979
179.072,262.31760521
179.087,262.267969386
179.102,262.218112186
179.117,262.168033453
179.132,262.117733013
179.147,262.067210667
179.16,262.023244967
179.162,262.016466195
179.177,261.965499355
179.192,261.914309884
179.207,261.862897495
179.222,261.811261878
179.237,261.7594027
179.252,261.707319607
179.267,261.655012218
179.282,261.602480132
179.297,261.549722922
179.312,261.496740139
179.327,261.443531306
179.342,261.390095927
179.357,261.336433477
179.372,261.282543409
179.387,261.228425151
179.402,261.174078106
179.417,261.11950165
179.432,261.064695138
179.447,261.009657895
179.462,260.954389225
179.477,260.898888404
179.492,260.843154682
179.507,260.787187287
179.522,260.730985416
179.537,260.674548244
179.552,260.617874921
179.567,260.560964567
179.582,260.50381628
179.597,260.446429129
179.612,260.388802161
179.627,260.330934393
179.642,260.272824819
179.657,260.214472405
179.672,260.155876092
179.687,260.097034794
179.702,260.037947402
179.717,259.978612778
179.732,259.91902976
179.747,259.859197159
179.762,259.799113761
179.777,259.738778329
179.792,259.678189595
179.807,259.617346271
179.822,259.556247041
179.837,259.494890564
179.852,259.433275474
179.867,259.371400382
179.882,259.309263873
179.897,259.246864507
179.91,259.192571305
179.912,259.184200821
179.927,259.121271327
179.942,259.058074514
179.957,258.994608847
179.972,258.930872766
179.987,258.866864691
180.002,258.802583017
180.017,258.738026118
180.032,258.673192344
180.047,258.608080025
180.062,258.542687466
180.077,258.477012956
180.092,258.411054758
180.107,258.344811118
180.122,258.27828026
180.137,258.211460389
180.152,258.144349692
180.167,258.076946334
180.182,258.009248465
180.197,257.941254216
180.212,257.872961699
180.227,257.804369012
180.242,257.735474235
180.257,257.666275432
180.272,257.596770655
180.287,257.526957937
180.302,257.456835301
180.317,257.386400755
180.332,257.315652294
180.347,257.244587904
180.362,257.173205557
180.377,257.101503216
180.392,257.029478835
180.407,256.957130359
180.422,256.884455724
180.437,256.811452862
180.452,256.738119696
180.467,256.664454146
180.482,256.590454127
180.497,256.516117552
180.512,256.44144233
180.527,256.36642637
180.542,256.291067582
180.557,256.215363876
180.56,256.200181562
180.572,256.139313166
180.587,256.062913368
180.602,255.986162403
180.617,255.9090582
180.632,255.831598694
180.647,255.753781828
180.66,255.686049899
180.662,255.675605557
180.677,255.597067848
180.692,255.51816668
180.707,255.438900047
180.722,255.359265959
180.737,255.279262446
180.752,255.198887555
180.767,255.118139356
180.782,255.037015942
180.797,254.95551543
180.812,254.873635965
180.827,254.79137572
180.842,254.7087329
180.857,254.62570574
180.872,254.542292514
180.887,254.458491528
180.902,254.374301132
180.917,254.289719714
180.932,254.204745708
180.947,254.119377592
180.962,254.033613894
180.977,253.947453194
180.992,253.860894122
181.007,253.773935368
181.022,253.686575679
181.037,253.598813864
181.052,253.510648796
181.067,253.422079416
181.082,253.333104735
181.097,253.243723837
181.112,253.153935881
181.127,253.063740109
181.142,252.973135842
181.157,252.882122489
181.172,252.790699547
181.187,252.698866607
181.202,252.606623355
181.217,252.513969577
181.232,252.420905162
181.247,252.327430108
181.262,252.233544522
181.277,252.139248625
181.292,252.044542758
181.307,251.949427384
181.31,251.930355218
181.322,251.853903093
181.337,251.757970606
181.352,251.661630777
181.367,251.564884602
181.382,251.467733218
181.397,251.370177911
181.412,251.27222012
181.427,251.17386144
181.442,251.075103628
181.457,250.975948607
181.472,250.876398471
181.487,250.776455491
181.502,250.676122116
181.517,250.575400982
181.532,250.474294917
181.547,250.372806943
181.562,250.270940281
181.577,250.168698361
181.592,250.066084823
181.607,249.963103522
181.622,249.859758535
181.637,249.756054167
181.652,249.651994954
181.667,249.54758567
181.682,249.442831332
181.697,249.337737206
181.712,249.23230881
181.727,249.126551925
181.742,249.020472593
181.757,248.914077129
181.772,248.807372124
181.787,248.70036445
181.802,248.593061264
181.817,248.48547002
181.832,248.377598465
181.847,248.269454653
181.862,248.161046946
181.877,248.052384018
181.892,247.943474866
181.907,247.834328808
181.922,247.724955494
181.937,247.615364909
181.952,247.505567375
181.967,247.395573561
181.982,247.285394484
181.997,247.175041515
182.012,247.064526383
182.027,246.953861178
182.042,246.843058357
182.057,246.732130746
182.06,246.709931404
182.072,246.621091543
182.087,246.509954324
182.102,246.398733041
182.117,246.287442029
182.132,246.176096006
182.147,246.064710073
182.162,245.953299716
182.177,245.841880809
182.192,245.730469608
182.207,245.619082757
182.222,245.507737281
182.237,245.396450583
182.252,245.285240447
182.267,245.174125025
182.282,245.063122838
182.297,244.952252764
182.312,244.841534035
182.327,244.73098622
182.342,244.620629218
182.357,244.510483245
182.372,244.400568814
182.387,244.290906719
182.402,244.181518015
182.417,244.072423991
182.432,243.963646143
182.447,243.855206146
182.462,243.747125814
182.477,243.639427063
182.492,243.532131865
182.507,243.425262194
182.522,243.31883997
182.537,243.212886995
182.552,243.107424874
182.567,243.002474938
182.582,242.898058142
182.597,242.794194963
182.612,242.69090528
182.627,242.588208234
182.642,242.486122073
182.657,242.384663981
182.672,242.28384987
182.687,242.183694164
182.702,242.084209527
182.717,241.985406577
182.732,241.887293543
182.747,241.789875871
182.762,241.693155781
182.777,241.597131746
182.792,241.501797888
182.807,241.407143279
182.822,241.313151123
182.837,241.219797798
182.852,241.127051721
182.867,241.034872011
182.882,240.943206891
182.897,240.851991785
182.912,240.76114701
182.927,240.670574998
182.942,240.580156887
182.957,240.489748344
182.972,240.399174381
182.987,240.308222875
183.002,240.216636398
183.017,240.124101799
183.032,240.030236794
183.047,239.934572485
183.062,239.836530299
183.077,239.735391137
183.092,239.630253498
183.107,239.519975713
183.122,239.403094871
183.137,239.277710905
183.152,239.141317508
183.167,238.990550346
183.182,238.820804366
183.197,238.625641736
183.212,238.395867797
183.227,238.118112099
183.242,237.772844454
183.257,237.332649562
183.367,237.439322539
183.382,237.848817132
183.397,238.17110192
183.412,238.431545513
183.427,238.647903148
183.442,238.832316283
183.457,238.993166916
183.472,239.136355117
183.487,239.2661243
183.502,239.385590441
183.517,239.497085544
183.532,239.602384752
183.547,239.702859679
183.562,239.799584072
183.577,239.893408069
183.592,239.985011343
183.607,240.074941795
183.622,240.163644173
183.637,240.251481531
183.652,240.338751553
183.667,240.425699121
183.682,240.512526093
183.697,240.599399
183.712,240.686455166
183.727,240.773807605
183.742,240.861548994
183.757,240.949754895
183.772,241.038486414
183.787,241.127792389
183.802,241.217711214
183.817,241.308272364
183.832,241.399497676
183.847,241.491402435
183.862,241.583996293
183.877,241.677284057
183.892,241.771266362
183.907,241.865940246
183.922,241.961299658
183.937,242.057335881
183.952,242.154037916
183.967,242.251392804
183.982,242.349385916
183.997,242.4480012
184.012,242.547221401
184.027,242.647028255
184.042,242.747402657
184.057,242.848324814
184.072,242.94977437
184.087,243.051730531
184.102,243.154172159
184.117,243.257077872
184.132,243.360426116
184.147,243.464195244
184.162,243.568363572
184.177,243.67290944
184.192,243.777811259
184.207,243.883047554
184.222,243.988597003
184.237,244.094438471
184.252,244.200551041
184.267,244.306914035
184.282,244.413507043
184.297,244.520309939
184.312,244.627302899
184.327,244.734466417
184.342,244.841781315
184.357,244.949228758
184.372,245.056790258
184.387,245.164447685
184.402,245.272183276
184.417,245.379979631
184.432,245.487819725
184.447,245.59568691
184.462,245.703564913
184.477,245.811437838
184.492,245.919290172
184.507,246.027106777
184.522,246.134872894
184.537,246.24257414
184.552,246.350196507
184.56,246.407558127
184.567,246.45772636
184.582,246.565150431
184.597,246.672455823
184.612,246.779629997
184.627,246.886660778
184.642,246.993536345
184.657,247.10024523
184.672,247.206776311
184.687,247.313118811
184.702,247.41926229
184.717,247.525196642
184.732,247.630912092
184.747,247.736399187
184.762,247.841648793
184.777,247.946652092
184.792,248.051400572
184.807,248.155886027
184.822,248.260100548
184.837,248.364036518
184.852,248.46768661
184.867,248.571043777
184.882,248.674101249
184.897,248.77685253
184.912,248.879291386
184.927,248.981411846
184.942,249.083208195
184.957,249.184674966
184.972,249.285806939
184.987,249.38659913
185.002,249.487046792
185.017,249.587145406
185.032,249.686890675
185.047,249.786278523
185.062,249.885305087
185.077,249.983966709
185.092,250.082259938
185.107,250.18018152
185.122,250.277728393
185.137,250.374897686
185.152,250.471686709
185.167,250.568092953
185.182,250.664114082
185.197,250.75974793
185.212,250.854992495
185.227,250.949845938
185.242,251.044306573
185.257,251.138372867
185.272,251.232043435
185.287,251.325317035
185.302,251.418192563
185.31,251.46756307
185.317,251.510669049
185.332,251.602745657
185.347,251.694421675
185.362,251.785696514
185.377,251.876569706
185.392,251.967040897
185.407,252.057109844
185.422,252.146776413
185.437,252.236040575
185.452,252.3249024
185.467,252.413362057
185.482,252.501419809
185.497,252.589076009
185.512,252.676331099
185.527,252.763185605
185.542,252.849640133
185.557,252.93569537
185.572,253.021352076
185.587,253.106611085
185.602,253.191473302
185.617,253.275939695
185.632,253.360011299
185.647,253.443689212
185.662,253.526974588
185.677,253.60986864
185.692,253.692372633
185.707,253.774487885
185.722,253.856215764
185.737,253.937557683
185.752,254.018515103
185.767,254.099089524
185.782,254.17928249
185.797,254.259095582
185.812,254.338530416
185.827,254.417588646
185.842,254.496271957
185.857,254.574582063
185.872,254.652520711
185.887,254.730089673
185.902,254.807290745
185.917,254.88412575
185.932,254.960596533
185.947,255.036704957
185.96,255.10237394
185.962,255.112452908
185.977,255.187842287
185.992,255.262875012
186.007,255.337553018
186.022,255.41187825
186.037,255.485852668
186.052,255.559478243
186.06,255.598603261
186.067,255.632756955
186.082,255.705690792
186.097,255.77828175
186.112,255.850531833
186.127,255.922443048
186.142,255.994017406
186.157,256.065256925
186.172,256.13616362
186.187,256.206739511
186.202,256.276986616
186.217,256.346906954
186.232,256.416502542
186.247,256.485775395
186.262,256.554727525
186.277,256.623360939
186.292,256.691677641
186.307,256.759679629
186.322,256.827368895
186.337,256.894747423
186.352,256.961817192
186.367,257.028580173
186.382,257.095038325
186.397,257.161193603
186.412,257.227047947
186.427,257.292603291
186.442,257.357861557
186.457,257.422824654
186.472,257.487494482
186.487,257.551872926
186.502,257.61596186
186.517,257.679763146
186.532,257.743278631
186.547,257.806510148
186.562,257.869459517
186.577,257.932128542
186.592,257.994519013
186.607,258.056632706
186.622,258.118471379
186.637,258.180036775
186.652,258.241330623
186.667,258.302354632
186.682,258.363110498
186.697,258.423599898
186.71,258.475809788
186.712,258.483824493
186.727,258.543785926
186.742,258.603485822
186.757,258.66292579
186.772,258.72210742
186.787,258.781032285
186.802,258.839701939
186.817,258.898117917
186.832,258.956281738
186.847,259.014194899
186.862,259.071858882
186.877,259.129275147
186.892,259.186445139
186.907,259.243370279
186.922,259.300051973
186.937,259.356491607
186.952,259.412690547
186.967,259.46865014
186.982,259.524371714
186.997,259.579856578
187.012,259.635106021
187.027,259.690121313
187.042,259.744903706
187.057,259.799454429
187.072,259.853774696
187.087,259.907865698
187.102,259.961728609
187.117,260.015364584
187.132,260.068774755
187.147,260.12196024
187.162,260.174922133
187.177,260.227661513
187.192,260.280179436
187.207,260.332476941
187.222,260.384555049
187.237,260.436414759
187.252,260.488057053
187.267,260.539482895
187.282,260.590693229
187.297,260.641688979
187.312,260.692471054
187.327,260.743040342
187.342,260.793397712
187.357,260.843544017
187.372,260.893480091
187.387,260.943206748
187.402,260.992724788
187.417,261.042034989
187.432,261.091138114
187.447,261.140034908
187.46,261.182245792
187.462,261.188726097
187.477,261.237212392
187.492,261.285494486
187.507,261.333573053
187.522,261.381448753
187.537,261.429122228
187.552,261.476594105
187.567,261.52386499
187.582,261.570935478
187.597,261.617806145
187.612,261.664477553
187.627,261.710950245
187.642,261.757224752
187.657,261.803301588
187.672,261.849181251
187.687,261.894864225
187.702,261.940350979
187.717,261.985641967
187.732,262.030737629
187.747,262.075638389
187.762,262.120344659
187.777,262.164856836
187.792,262.209175303
187.807,262.25330043
187.822,262.297232574
187.837,262.340972077
187.852,262.38451927
187.867,262.42787447
187.882,262.471037983
187.897,262.5140101
187.912,262.556791102
187.927,262.599381258
187.942,262.641780824
187.957,262.683990045
187.972,262.726009155
187.987,262.767838376
188.002,262.809477921
188.017,262.850927991
188.032,262.892188775
188.047,262.933260455
188.062,262.974143201
188.077,263.014837172
188.092,263.055342521
188.107,263.095659388
188.122,263.135787905
188.137,263.175728196
188.152,263.215480376
188.167,263.255044549
188.182,263.294420815
188.197,263.333609263
188.21,263.367420723
188.212,263.372609973
188.227,263.411423021
188.242,263.450048473
188.257,263.488486387
188.272,263.526736818
188.287,263.564799809
188.302,263.602675399
188.317,263.640363624
188.332,263.677864505
188.347,263.715178066
188.362,263.752304322
188.377,263.78924328
188.392,263.825994945
188.407,263.862559316
188.422,263.898936386
188.437,263.935126144
188.452,263.971128575
188.467,264.00694366
188.482,264.042571376
188.497,264.078011692
188.512,264.11326458
188.527,264.148330004
188.542,264.183207926
188.557,264.217898305
188.572,264.252401097
188.587,264.286716255
188.602,264.320843729
188.617,264.354783469
188.632,264.38853542
188.647,264.422099527
188.66,264.451036431
188.662,264.455475733
188.677,264.488663978
188.692,264.521664203
188.707,264.554476344
188.722,264.587100341
188.737,264.619536129
