# 01004 ENAS Ny-Alesund Ii Observations at 12Z 25 Nov 2019
Frequency [GHz],TB
175.31,232.027460254
175.322,232.094228121
175.337,232.177762394
175.352,232.261378389
175.367,232.345075041
175.382,232.428851276
175.397,232.512705989
175.412,232.596638072
175.427,232.680646406
175.442,232.764729846
175.457,232.848887236
175.472,232.933117406
175.487,233.017419173
175.502,233.101791328
175.517,233.186232658
175.532,233.270741928
175.547,233.355317889
175.562,233.439959277
175.577,233.524664806
175.592,233.609433179
175.607,233.694263084
175.622,233.779153192
175.637,233.864102149
175.652,233.949108596
175.667,234.034171145
175.682,234.119288403
175.697,234.204458955
175.712,234.289681362
175.727,234.374954178
175.742,234.460275933
175.757,234.545645141
175.772,234.631060304
175.787,234.716519892
175.802,234.802022372
175.817,234.887566185
175.832,234.973149753
175.847,235.058771485
175.862,235.144429766
175.877,235.230122965
175.892,235.315849433
175.907,235.4016075
175.922,235.487395479
175.937,235.573211663
175.952,235.659054323
175.967,235.744921719
175.982,235.830812081
175.997,235.916723623
176.012,236.00265455
176.027,236.088603028
176.042,236.174567217
176.057,236.260545255
176.072,236.346535256
176.087,236.432535314
176.102,236.518543507
176.117,236.604557888
176.132,236.690576492
176.147,236.776597334
176.162,236.862618405
176.177,236.948637677
176.192,237.034653103
176.207,237.120662609
176.222,237.206664105
176.237,237.292655483
176.252,237.378634604
176.267,237.464599311
176.282,237.55054743
176.297,237.636476763
176.31,237.710931941
176.312,237.722385088
176.327,237.808270165
176.342,237.894129724
176.357,237.979961483
176.372,238.065763131
176.387,238.15153234
176.402,238.237266753
176.417,238.322963997
176.432,238.408621676
176.447,238.494237366
176.46,238.568401777
176.462,238.579808623
176.477,238.665332983
176.492,238.750807961
176.507,238.836231041
176.522,238.921599688
176.537,239.00691135
176.552,239.092163439
176.567,239.17735336
176.582,239.262478478
176.597,239.34753615
176.612,239.432523701
176.627,239.517438436
176.642,239.602277631
176.657,239.687038548
176.672,239.771718419
176.687,239.856314453
176.702,239.940823841
176.717,240.025243742
176.732,240.109571296
176.747,240.19380362
176.762,240.277937806
176.777,240.361970928
176.792,240.445900025
176.807,240.529722121
176.822,240.613434213
176.837,240.697033281
176.852,240.780516269
176.867,240.863880108
176.882,240.947121702
176.897,241.030237931
176.912,241.113225651
176.927,241.196081696
176.942,241.278802875
176.957,241.361385976
176.972,241.44382776
176.987,241.526124966
177.002,241.608274316
177.017,241.690272495
177.032,241.772116177
177.047,241.853802009
177.062,241.93532661
177.077,242.016686587
177.092,242.097878515
177.107,242.178898947
177.122,242.259744419
177.137,242.340411435
177.152,242.420896489
177.167,242.50119604
177.182,242.581306531
177.197,242.661224385
177.21,242.730327918
177.212,242.740945999
177.227,242.820467747
177.242,242.899785988
177.257,242.978897049
177.272,243.057797244
177.287,243.136482866
177.302,243.214950181
177.31,243.256708856
177.317,243.293195436
177.332,243.371214861
177.347,243.449004662
177.362,243.526561023
177.377,243.603880113
177.392,243.680958077
177.407,243.757791041
177.422,243.834375117
177.437,243.910706386
177.452,243.986780919
177.467,244.062594767
177.482,244.138143963
177.497,244.213424517
177.512,244.288432427
177.527,244.363163669
177.542,244.437614205
177.557,244.511779979
177.572,244.585656916
177.587,244.659240926
177.602,244.732527902
177.617,244.805513727
177.632,244.878194262
177.647,244.950565355
177.66,245.013033445
177.662,245.022622837
177.677,245.094362531
177.692,245.165780242
177.707,245.236871758
177.722,245.307632862
177.737,245.378059318
177.752,245.44814688
177.767,245.517891291
177.782,245.587288282
177.797,245.656333573
177.812,245.725022869
177.827,245.793351878
177.842,245.861316284
177.857,245.928911771
177.872,245.99613401
177.887,246.062978667
177.902,246.129441399
177.917,246.195517859
177.932,246.261203686
177.947,246.326494528
177.96,246.382757044
177.962,246.391386011
177.977,246.455873765
177.992,246.51995342
178.007,246.583620594
178.022,246.646870905
178.037,246.709699973
178.052,246.772103413
178.067,246.83407684
178.082,246.895615869
178.097,246.956716114
178.112,247.017373192
178.127,247.077582723
178.142,247.137340327
178.157,247.196641629
178.172,247.255482257
178.187,247.313857844
178.202,247.371764031
178.217,247.42919646
178.232,247.486150789
178.247,247.542622672
178.262,247.598607782
178.277,247.654101798
178.292,247.709100405
178.307,247.763599305
178.322,247.817594213
178.337,247.871080849
178.352,247.924054952
178.367,247.976512279
178.382,248.028448592
178.397,248.07985968
178.41,248.12398786
178.412,248.130741344
178.427,248.181089402
178.442,248.230899696
178.457,248.280168081
178.472,248.328890437
178.487,248.377062667
178.502,248.424680694
178.517,248.471740466
178.532,248.518237954
178.547,248.564169156
178.562,248.609530096
178.577,248.654316827
178.592,248.698525426
178.607,248.742152006
178.622,248.785192706
178.637,248.827643697
178.652,248.869501182
178.667,248.9107614
178.682,248.951420625
178.697,248.991475163
178.712,249.030921357
178.727,249.069755589
178.742,249.107974282
178.757,249.145573893
178.772,249.182550925
178.787,249.218901919
178.802,249.254623461
178.817,249.289712181
178.832,249.324164752
178.847,249.357977894
178.862,249.391148373
178.877,249.423673004
178.892,249.455548653
178.907,249.48677223
178.922,249.517340705
178.937,249.54725109
178.952,249.576500457
178.967,249.605085928
178.982,249.633004687
178.997,249.660253966
179.012,249.686831058
179.027,249.712733314
179.042,249.737958146
179.057,249.76250302
179.072,249.78636547
179.087,249.809543088
179.102,249.83203353
179.117,249.853834517
179.132,249.874943832
179.147,249.895359328
179.16,249.91248992
179.162,249.915078919
179.177,249.934100593
179.192,249.952422402
179.207,249.970042467
179.222,249.986958982
179.237,250.00317021
179.252,250.018674486
179.267,250.033470218
179.282,250.047555889
179.297,250.060930049
179.312,250.073591331
179.327,250.085538438
179.342,250.096770152
179.357,250.107285334
179.372,250.117082915
179.387,250.126161911
179.402,250.134521413
179.417,250.142160592
179.432,250.149078699
179.447,250.155275063
179.462,250.1607491
179.477,250.165500298
179.492,250.169528235
179.507,250.172832564
179.522,250.175413024
179.537,250.177269438
179.552,250.178401705
179.567,250.178809816
179.582,250.178493841
179.597,250.17745393
179.612,250.175690323
179.627,250.173203338
179.642,250.169993383
179.657,250.166060943
179.672,250.161406593
179.687,250.156030987
179.702,250.149934866
179.717,250.143119049
179.732,250.13558445
179.747,250.127332052
179.762,250.118362931
179.777,250.10867824
179.792,250.098279219
179.807,250.087167185
179.822,250.075343539
179.837,250.062809766
179.852,250.049567426
179.867,250.035618162
179.882,250.020963695
179.897,250.005605827
179.91,249.991728151
179.912,249.989546437
179.927,249.972787479
179.942,249.955330986
179.957,249.937179071
179.972,249.918333911
179.987,249.898797764
180.002,249.878572964
180.017,249.857661912
180.032,249.83606708
180.047,249.813791013
180.062,249.790836323
180.077,249.767205689
180.092,249.74290186
180.107,249.717927643
180.122,249.692285918
180.137,249.665979621
180.152,249.639011752
180.167,249.611385371
180.182,249.583103595
180.197,249.554169599
180.212,249.524586613
180.227,249.494357921
180.242,249.463486859
180.257,249.431976816
180.272,249.399831227
180.287,249.367053576
180.302,249.333647391
180.317,249.299616245
180.332,249.264963756
180.347,249.229693577
180.362,249.193809405
180.377,249.157314969
180.392,249.120214035
180.407,249.082510403
180.422,249.044207904
180.437,249.005310396
180.452,248.965821767
180.467,248.925745929
180.482,248.885086819
180.497,248.843848392
180.512,248.802034628
180.527,248.759649519
180.542,248.716697077
180.557,248.673181326
180.56,248.664410935
180.572,248.629106303
180.587,248.584476053
180.602,248.539294628
180.617,248.493566091
180.632,248.447294505
180.647,248.400483935
180.66,248.35948194
180.662,248.353138449
180.677,248.305262112
180.692,248.256858984
180.707,248.207933123
180.722,248.158488579
180.737,248.108529391
180.752,248.058059589
180.767,248.007083193
180.782,247.955604207
180.797,247.903626617
180.812,247.8511544
180.827,247.798191504
180.842,247.744741866
180.857,247.690809395
180.872,247.636397982
180.887,247.581511492
180.902,247.526153763
180.917,247.470328608
180.932,247.414039811
180.947,247.357291132
180.962,247.300086291
180.977,247.242428988
180.992,247.184322886
181.007,247.125771614
181.022,247.066778771
181.037,247.007347922
181.052,246.947482595
181.067,246.887186284
181.082,246.826462449
181.097,246.765314514
181.112,246.703745866
181.127,246.641759858
181.142,246.579359803
181.157,246.516548983
181.172,246.453330642
181.187,246.389707988
181.202,246.325684194
181.217,246.2612624
181.232,246.19644571
181.247,246.131237194
181.262,246.065639893
181.277,245.999656811
181.292,245.933290928
181.307,245.866545187
181.31,245.853150713
181.322,245.799422509
181.337,245.731925784
181.352,245.664057878
181.367,245.595821634
181.382,245.527219872
181.397,245.458255389
181.412,245.38893097
181.427,245.319249377
181.442,245.249213363
181.457,245.178825665
181.472,245.108089014
181.487,245.037006133
181.502,244.965579741
181.517,244.893812555
181.532,244.821707295
181.547,244.749266685
181.562,244.676493458
181.577,244.603390357
181.592,244.529960141
181.607,244.456205586
181.622,244.382129491
181.637,244.307734681
181.652,244.233024009
181.667,244.158000366
181.682,244.082666675
181.697,244.007025907
181.712,243.931081075
181.727,243.854835246
181.742,243.778291542
181.757,243.701453145
181.772,243.624323303
181.787,243.546905332
181.802,243.469202626
181.817,243.391218656
181.832,243.312956982
181.847,243.23442125
181.862,243.155615204
181.877,243.076542688
181.892,242.997207654
181.907,242.917614162
181.922,242.837766393
181.937,242.757668645
181.952,242.677325348
181.967,242.596741062
181.982,242.515920487
181.997,242.434868463
182.012,242.353589982
182.027,242.272090186
182.042,242.190374375
182.057,242.108448013
182.06,242.092037967
182.072,242.026316729
182.087,241.943986325
182.102,241.861462776
182.117,241.778752234
182.132,241.695861037
182.147,241.612795702
182.162,241.529562935
182.177,241.446169629
182.192,241.362622867
182.207,241.278929921
182.222,241.195098252
182.237,241.111135509
182.252,241.027049525
182.267,240.942848318
182.282,240.858540083
182.297,240.774133187
182.312,240.689636162
182.327,240.605057695
182.342,240.520406623
182.357,240.435691913
182.372,240.35092265
182.387,240.266108024
182.402,240.181257305
182.417,240.096379823
182.432,240.011484942
182.447,239.926582029
182.462,239.841680423
182.477,239.756789396
182.492,239.671918109
182.507,239.587075568
182.522,239.502270562
182.537,239.417511609
182.552,239.332806883
182.567,239.248164139
182.582,239.163590621
182.597,239.079092968
182.612,238.994677101
182.627,238.910348097
182.642,238.826110048
182.657,238.7419659
182.672,238.657917274
182.687,238.573964254
182.702,238.490105155
182.717,238.406336254
182.732,238.322651481
182.747,238.239042065
182.762,238.155496124
182.777,238.071998195
182.792,237.988528685
182.807,237.905063227
182.822,237.821571933
182.837,237.738018512
182.852,237.654359227
182.867,237.570541654
182.882,237.486503209
182.897,237.402169375
182.912,237.31745156
182.927,237.232244509
182.942,237.146423135
182.957,237.05983863
182.972,236.972313649
182.987,236.883636308
183.002,236.793552633
183.017,236.701756979
183.032,236.607879753
183.047,236.511471495
183.062,236.411982
183.077,236.308732536
183.092,236.200878335
183.107,236.087357055
183.122,235.966816627
183.137,235.837512076
183.152,235.697154455
183.167,235.5426839
183.182,235.369918975
183.197,235.172998762
183.212,234.943469406
183.227,234.668754875
183.242,234.329599069
183.257,233.896145044
183.367,234.001663828
183.382,234.404164747
183.397,234.721234783
183.412,234.979604497
183.427,235.196513317
183.442,235.383295304
183.457,235.547629628
183.472,235.69488034
183.487,235.82890025
183.502,235.952525349
183.517,236.067887879
183.532,236.176620441
183.547,236.279992769
183.562,236.379005727
183.577,236.474457408
183.592,236.566990579
183.607,236.657127373
183.622,236.745295077
183.637,236.831845595
183.652,236.917070323
183.667,237.001211662
183.682,237.084472026
183.697,237.167020952
183.712,237.249000772
183.727,237.330531171
183.742,237.411712869
183.757,237.492630632
183.772,237.573355738
183.787,237.653948011
183.802,237.734457516
183.817,237.814925967
183.832,237.895387909
183.847,237.975871723
183.862,238.056400467
183.877,238.136992597
183.892,238.217662584
183.907,238.29842144
183.922,238.379277175
183.937,238.46023519
183.952,238.541298619
183.967,238.622468627
183.982,238.70374467
183.997,238.785124723
184.012,238.866605478
184.027,238.948182526
184.042,239.029850507
184.057,239.111603249
184.072,239.193433893
184.087,239.275334996
184.102,239.35729863
184.117,239.439316468
184.132,239.521379857
184.147,239.603479888
184.162,239.685607455
184.177,239.767753304
184.192,239.849908088
184.207,239.932062404
184.222,240.014206828
184.237,240.096331954
184.252,240.178428417
184.267,240.260486921
184.282,240.342498261
184.297,240.424453342
184.312,240.506343197
184.327,240.588158998
184.342,240.669892071
184.357,240.751533909
184.372,240.833076173
184.387,240.914510708
184.402,240.995829541
184.417,241.077024892
184.432,241.158089172
184.447,241.239014989
184.462,241.319795148
184.477,241.400422652
184.492,241.480890698
184.507,241.561192685
184.522,241.641322204
184.537,241.721273037
184.552,241.801039161
184.56,241.843503546
184.567,241.880614739
184.582,241.959994116
184.597,242.039171822
184.612,242.118142561
184.627,242.196901212
184.642,242.275442821
184.657,242.3537626
184.672,242.431855918
184.687,242.509718302
184.702,242.587345427
184.717,242.664733113
184.732,242.741877322
184.747,242.818774149
184.762,242.895419821
184.777,242.971810689
184.792,243.047943222
184.807,243.123814009
184.822,243.199419745
184.837,243.274757231
184.852,243.349823371
184.867,243.424615159
184.882,243.499129684
184.897,243.57336412
184.912,243.647315721
184.927,243.72098182
184.942,243.794359819
184.957,243.867447192
184.972,243.940241472
184.987,244.012740256
185.002,244.084941193
185.017,244.156841984
185.032,244.22844038
185.047,244.299734172
185.062,244.370721193
185.077,244.441399313
185.092,244.511766433
185.107,244.581820485
185.122,244.651559427
185.137,244.720981241
185.152,244.790083927
185.167,244.858865504
185.182,244.927324006
185.197,244.995457477
185.212,245.063263971
185.227,245.130741549
185.242,245.197888276
185.257,245.264702217
185.272,245.331181441
185.287,245.397324011
185.302,245.463127987
185.31,245.498084322
185.317,245.528591423
185.332,245.593712365
185.347,245.65848885
185.362,245.722918902
185.377,245.787000534
185.392,245.850731747
185.407,245.914110521
185.422,245.977134826
185.437,246.03980261
185.452,246.102111806
185.467,246.164060323
185.482,246.225646053
185.497,246.286866869
185.512,246.347720617
185.527,246.408205124
185.542,246.468318197
185.557,246.528057613
185.572,246.587421132
185.587,246.646406486
185.602,246.705011388
185.617,246.763233522
185.632,246.82107055
185.647,246.878520112
185.662,246.935579821
185.677,246.992247269
185.692,247.048520025
185.707,247.104395631
185.722,247.159871609
185.737,247.214945462
185.752,247.269614664
185.767,247.323876675
185.782,247.377728929
185.797,247.431168844
185.812,247.484193816
185.827,247.536801224
185.842,247.588988427
185.857,247.640752771
185.872,247.692091583
185.887,247.743002175
185.902,247.793481846
185.917,247.843527883
185.932,247.893137559
185.947,247.942308134
185.96,247.984565327
185.962,247.991036863
185.977,248.039320987
185.992,248.087157745
186.007,248.134544365
186.022,248.181478072
186.037,248.227956084
186.052,248.273975622
186.06,248.298330946
186.067,248.319533896
186.082,248.364628126
186.097,248.409255529
186.112,248.453413321
186.127,248.497098724
186.142,248.540308969
186.157,248.583041287
186.172,248.625292919
186.187,248.667061117
186.202,248.708343141
186.217,248.749136263
186.232,248.78943777
186.247,248.82924496
186.262,248.868555148
186.277,248.907365668
186.292,248.945673871
186.307,248.983477127
186.322,249.020772828
186.337,249.05755839
186.352,249.093831249
186.367,249.12958887
186.382,249.16482874
186.397,249.199548377
186.412,249.233745327
186.427,249.267417165
186.442,249.300561498
186.457,249.333175967
186.472,249.365258243
186.487,249.396806035
186.502,249.427817086
186.517,249.458289177
186.532,249.488220129
186.547,249.517607797
186.562,249.546450081
186.577,249.574744921
186.592,249.602490299
186.607,249.629684241
186.622,249.656324816
186.637,249.682410137
186.652,249.70793837
186.667,249.732907718
186.682,249.757316437
186.697,249.781162834
186.71,249.801373579
186.712,249.80444526
186.727,249.827162119
186.742,249.849311867
186.757,249.870893008
186.772,249.891904102
186.787,249.912343757
186.802,249.93221064
186.817,249.95150347
186.832,249.970221019
186.847,249.988362114
186.862,250.005925641
186.877,250.022910539
186.892,250.039315805
186.907,250.05514049
186.922,250.070383705
186.937,250.085044621
186.952,250.09912246
186.967,250.112616506
186.982,250.125526105
186.997,250.137850657
187.012,250.149589621
187.027,250.160742515
187.042,250.171308918
187.057,250.18128847
187.072,250.190680863
187.087,250.199485856
187.102,250.207703266
187.117,250.215332965
187.132,250.222374888
187.147,250.228829032
187.162,250.234695446
187.177,250.239974245
187.192,250.2446656
187.207,250.24876974
187.222,250.252286955
187.237,250.255217593
187.252,250.25756206
187.267,250.259320821
187.282,250.260494397
187.297,250.261083368
187.312,250.261088371
187.327,250.2605101
187.342,250.259349306
187.357,250.257606796
187.372,250.255283433
187.387,250.252380134
187.402,250.248897874
187.417,250.244837682
187.432,250.240200635
187.447,250.234987876
187.46,250.230005381
187.462,250.229200592
187.477,250.222840024
187.492,250.21590747
187.507,250.208404272
187.522,250.20033183
187.537,250.191691593
187.552,250.182485056
187.567,250.172713773
187.582,250.162379335
187.597,250.151483394
187.612,250.14002764
187.627,250.12801381
187.642,250.115443696
187.657,250.102319131
187.672,250.08864199
187.687,250.0744142
187.702,250.059637727
187.717,250.044314578
187.732,250.028446813
187.747,250.012036521
187.762,249.99508584
187.777,249.97759695
187.792,249.959572067
187.807,249.941013443
187.822,249.921923378
187.837,249.902304204
187.852,249.882158291
187.867,249.861488043
187.882,249.840295907
187.897,249.818584355
187.912,249.796355902
187.927,249.773613091
187.942,249.750358503
187.957,249.726594744
187.972,249.70232446
187.987,249.677550321
188.002,249.652275033
188.017,249.626501323
188.032,249.600231952
188.047,249.573469713
188.062,249.546217417
188.077,249.518477908
188.092,249.490254051
188.107,249.461548743
188.122,249.432364897
188.137,249.402705456
188.152,249.372573383
188.167,249.341971663
188.182,249.310903304
188.197,249.279371333
188.21,249.251670975
188.212,249.247378802
188.227,249.214928776
188.242,249.182024343
188.257,249.148668606
188.272,249.114864688
188.287,249.080615732
188.302,249.045924888
188.317,249.010795327
188.332,248.975230239
188.347,248.939232819
188.362,248.902806286
188.377,248.865953862
188.392,248.828678788
188.407,248.790984313
188.422,248.752873698
188.437,248.714350218
188.452,248.675417153
188.467,248.636077793
188.482,248.596335444
188.497,248.556193405
188.512,248.515654997
188.527,248.474723546
188.542,248.433402374
188.557,248.391694821
188.572,248.349604223
188.587,248.307133931
188.602,248.264287287
188.617,248.221067651
188.632,248.177478378
188.647,248.133522824
188.66,248.095134328
188.662,248.08920435
188.677,248.044526323
188.692,247.999492106
188.707,247.954105059
188.722,247.908368556
