# 48698 WSSS Singapore Observations at 12Z 18 Jul 2019
Frequency [GHz],TB
175.31,280.88615914
175.322,280.868907887
175.337,280.847290291
175.352,280.825613025
175.367,280.803875847
175.382,280.782078543
175.397,280.760220855
175.412,280.73830255
175.427,280.716323401
175.442,280.694283155
175.457,280.672181565
175.472,280.650018401
175.487,280.627793391
175.502,280.605506323
175.517,280.583156902
175.532,280.560744901
175.547,280.538270049
175.562,280.515732091
175.577,280.493130747
175.592,280.470465802
175.607,280.447736936
175.622,280.424943902
175.637,280.402086439
175.652,280.379164258
175.667,280.3561771
175.682,280.333124661
175.697,280.310006667
175.712,280.286822853
175.727,280.263572901
175.742,280.24025657
175.757,280.216873506
175.772,280.19342346
175.787,280.169906137
175.802,280.146321205
175.817,280.122668387
175.832,280.098947385
175.847,280.075157857
175.862,280.051299516
175.877,280.027372073
175.892,280.003375169
175.907,279.979308511
175.922,279.955171781
175.937,279.930964623
175.952,279.906686745
175.967,279.882337789
175.982,279.857917456
175.997,279.833425396
176.012,279.808861268
176.027,279.784224711
176.042,279.759515416
176.057,279.734733011
176.072,279.709877148
176.087,279.684947494
176.102,279.65994366
176.117,279.634865311
176.132,279.609712093
176.147,279.584483594
176.162,279.559179509
176.177,279.533799408
176.192,279.508342946
176.207,279.482809733
176.222,279.4571994
176.237,279.431511536
176.252,279.405745774
176.267,279.379901718
176.282,279.353978967
176.297,279.327977138
176.31,279.305377929
176.312,279.301895799
176.327,279.275734589
176.342,279.249493055
176.357,279.223170807
176.372,279.196767414
176.387,279.170282472
176.402,279.14371555
176.417,279.117066223
176.432,279.090334049
176.447,279.063518611
176.46,279.040210872
176.462,279.036619471
176.477,279.009636163
176.492,278.982568255
176.507,278.955415324
176.522,278.928176868
176.537,278.900852474
176.552,278.873441657
176.567,278.845943943
176.582,278.8183589
176.597,278.790686011
176.612,278.762924844
176.627,278.735074876
176.642,278.707135651
176.657,278.679106667
176.672,278.650987441
176.687,278.622777469
176.702,278.59447626
176.717,278.566083271
176.732,278.537598054
176.747,278.509020039
176.762,278.480348729
176.777,278.451583601
176.792,278.422724132
176.807,278.393769783
176.822,278.364720035
176.837,278.335574332
176.852,278.306332115
176.867,278.276992877
176.882,278.24755602
176.897,278.218021013
176.912,278.188387257
176.927,278.158654228
176.942,278.128821349
176.957,278.098887994
176.972,278.06885364
176.987,278.038717664
177.002,278.008479486
177.017,277.978138486
177.032,277.947694102
177.047,277.917145705
177.062,277.886492676
177.077,277.855734409
177.092,277.824870289
177.107,277.793899674
177.122,277.762821927
177.137,277.731636405
177.152,277.700342509
177.167,277.668939531
177.182,277.637426856
177.197,277.605803812
177.21,277.578307367
177.212,277.574069725
177.227,277.542223928
177.242,277.510265756
177.257,277.478194535
177.272,277.446009541
177.287,277.413710105
177.302,277.381295536
177.31,277.363960434
177.317,277.348765105
177.332,277.316118122
177.347,277.283353839
177.362,277.250471584
177.377,277.217470582
177.392,277.184350129
177.407,277.151109466
177.422,277.117747832
177.437,277.084264501
177.452,277.050658717
177.467,277.016929691
177.482,276.983076651
177.497,276.949098837
177.512,276.914995437
177.527,276.880765699
177.542,276.846408767
177.557,276.811923883
177.572,276.777310223
177.587,276.742566934
177.602,276.707693245
177.617,276.672688262
177.632,276.637551206
177.647,276.602281205
177.66,276.571605645
177.662,276.566877378
177.677,276.531338898
177.692,276.49566487
177.707,276.45985444
177.722,276.423906695
177.737,276.387820757
177.752,276.351595765
177.767,276.31523073
177.782,276.278724819
177.797,276.242077053
177.812,276.20528653
177.827,276.168352295
177.842,276.131273408
177.857,276.094048913
177.872,276.056677836
177.887,276.019159225
177.902,275.981492068
177.917,275.94367541
177.932,275.905708257
177.947,275.867589576
177.96,275.83443004
177.962,275.829318376
177.977,275.790893574
177.992,275.75231422
178.007,275.713579193
178.022,275.674687512
178.037,275.635638072
178.052,275.596429822
178.067,275.557061655
178.082,275.517532529
178.097,275.477841291
178.112,275.437986852
178.127,275.397968112
178.142,275.357783931
178.157,275.31743314
178.172,275.276914632
178.187,275.236227218
178.202,275.195369733
178.217,275.15434099
178.232,275.113139825
178.247,275.07176499
178.262,275.030215292
178.277,274.988489533
178.292,274.94658643
178.307,274.904504737
178.322,274.862243229
178.337,274.819800595
178.352,274.777175577
178.367,274.734366879
178.382,274.691373153
178.397,274.648193097
178.41,274.610618677
178.412,274.604825424
178.427,274.561268706
178.442,274.51752166
178.457,274.47358287
178.472,274.429450935
178.487,274.385124476
178.502,274.340602082
178.517,274.295882373
178.532,274.250963806
178.547,274.205844994
178.562,274.160524464
178.577,274.115000712
178.592,274.069272217
178.607,274.023337522
178.622,273.977195061
178.637,273.930843309
178.652,273.884280685
178.667,273.837505632
178.682,273.790516543
178.697,273.743311843
178.712,273.695889853
178.727,273.648248982
178.742,273.600387537
178.757,273.552303872
178.772,273.503996261
178.787,273.455462991
178.802,273.406702408
178.817,273.357712666
178.832,273.308492081
178.847,273.259038821
178.862,273.209351114
178.877,273.159427097
178.892,273.109264974
178.907,273.058862865
178.922,273.008218898
178.937,272.957331154
178.952,272.906197724
178.967,272.854816687
178.982,272.803186037
178.997,272.75130383
179.012,272.699168022
179.027,272.646776613
179.042,272.594127528
179.057,272.541218718
179.072,272.488048079
179.087,272.434613456
179.102,272.380912769
179.117,272.326943797
179.132,272.2727044
179.147,272.218192297
179.16,272.17072618
179.162,272.163405302
179.177,272.108341095
179.192,272.052997405
179.207,271.997371922
179.222,271.94146229
179.237,271.885266163
179.252,271.828781093
179.267,271.772004679
179.282,271.714934452
179.297,271.65756793
179.312,271.599902626
179.327,271.541935947
179.342,271.483665346
179.357,271.425088223
179.372,271.36620193
179.387,271.307003804
179.402,271.247491147
179.417,271.18766123
179.432,271.127511321
179.447,271.067038582
179.462,271.006240184
179.477,270.945113298
179.492,270.883655029
179.507,270.821862423
179.522,270.759732518
179.537,270.697262293
179.552,270.634448765
179.567,270.571288803
179.582,270.507779346
179.597,270.443917229
179.612,270.3796992
179.627,270.315122116
179.642,270.250182683
179.657,270.184877617
179.672,270.119203542
179.687,270.05315709
179.702,269.986734807
179.717,269.919933281
179.732,269.852748936
179.747,269.785178289
179.762,269.717217677
179.777,269.648863502
179.792,269.580112073
179.807,269.510959642
179.822,269.44140247
179.837,269.371436708
179.852,269.301058504
179.867,269.23026396
179.882,269.159049085
179.897,269.087409884
179.91,269.024976214
179.912,269.015342312
179.927,268.942842248
179.942,268.869905553
179.957,268.796528013
179.972,268.722705369
179.987,268.648433319
180.002,268.573707531
180.017,268.498523562
180.032,268.422876977
180.047,268.346763246
180.062,268.270177811
180.077,268.193116051
180.092,268.115573294
180.107,268.037544792
180.122,267.95902578
180.137,267.88001142
180.152,267.800496819
180.167,267.720477022
180.182,267.639946995
180.197,267.558901708
180.212,267.477336039
180.227,267.395244781
180.242,267.312622724
180.257,267.229464548
180.272,267.145764912
180.287,267.061518409
180.302,266.97671956
180.317,266.891362828
180.332,266.805442624
180.347,266.718953282
180.362,266.631889131
180.377,266.544244361
180.392,266.456013163
180.407,266.367189608
180.422,266.277767805
180.437,266.187741692
180.452,266.097105219
180.467,266.005852238
180.482,265.913976574
180.497,265.821471951
180.512,265.728332083
180.527,265.634550573
180.542,265.540120997
180.557,265.445036866
180.56,265.425940901
180.572,265.349291608
180.587,265.25287864
180.602,265.155791264
180.617,265.058022802
180.632,264.959566413
180.647,264.860415286
180.66,264.773916989
180.662,264.760562503
180.677,264.660001141
180.692,264.558724163
180.707,264.456724501
180.722,264.353995051
180.737,264.250528633
180.752,264.146318039
180.767,264.041355989
180.782,263.935635145
180.797,263.829148151
180.812,263.721887564
180.827,263.613845936
180.842,263.505015734
180.857,263.395389418
180.872,263.284959383
180.887,263.173717948
180.902,263.061657477
180.917,262.948770244
180.932,262.835048488
180.947,262.720484375
180.962,262.605070128
180.977,262.488797877
180.992,262.371659715
181.007,262.253647774
181.022,262.134754055
181.037,262.014970661
181.052,261.894289534
181.067,261.772702748
181.082,261.65020228
181.097,261.526780033
181.112,261.402428062
181.127,261.277138259
181.142,261.150902589
181.157,261.023713011
181.172,260.895561473
181.187,260.766439918
181.202,260.636340335
181.217,260.505254675
181.232,260.37317494
181.247,260.240093142
181.262,260.106001303
181.277,259.97089148
181.292,259.834755793
181.307,259.697586287
181.31,259.670027637
181.322,259.559375185
181.337,259.420114672
181.352,259.279796985
181.367,259.138414441
181.382,258.995959377
181.397,258.852424229
181.412,258.707801446
181.427,258.562083621
181.442,258.415263321
181.457,258.267333317
181.472,258.118286359
181.487,257.968115342
181.502,257.816813255
181.517,257.664373183
181.532,257.510788293
181.547,257.356051915
181.562,257.200157469
181.577,257.043098521
181.592,256.88486873
181.607,256.725461953
181.622,256.564872188
181.637,256.403093513
181.652,256.240120286
181.667,256.075946933
181.682,255.910568097
181.697,255.743978611
181.712,255.576173524
181.727,255.40714803
181.742,255.236897574
181.757,255.065417834
181.772,254.892704634
181.787,254.718754177
181.802,254.543562799
181.817,254.367127177
181.832,254.189444153
181.847,254.010510962
181.862,253.830325103
181.877,253.648884336
181.892,253.466186814
181.907,253.282230946
181.922,253.09701553
181.937,252.910539726
181.952,252.722803093
181.967,252.533805519
181.982,252.343547351
181.997,252.15202937
182.012,251.95925277
182.027,251.765219231
182.042,251.569930913
182.057,251.373390511
182.06,251.333932461
182.072,251.175601205
182.087,250.976566771
182.102,250.776291511
182.117,250.574780409
182.132,250.37203905
182.147,250.168073676
182.162,249.96289122
182.177,249.756499398
182.192,249.548906644
182.207,249.340122232
182.222,249.130156262
182.237,248.919019688
182.252,248.706724522
182.267,248.493283606
182.282,248.278710918
182.297,248.063021488
182.312,247.846231503
182.327,247.628358378
182.342,247.409420746
182.357,247.189438654
182.372,246.968433489
182.387,246.746428208
182.402,246.523447349
182.417,246.299517016
182.432,246.07466521
182.447,245.848921744
182.462,245.622318378
182.477,245.394889023
182.492,245.166669732
182.507,244.937698972
182.522,244.708017638
182.537,244.477669291
182.552,244.246700226
182.567,244.015159795
182.582,243.78310034
182.597,243.550577622
182.612,243.317650896
182.627,243.084383087
182.642,242.850841177
182.657,242.617096199
182.672,242.383223689
182.687,242.14930388
182.702,241.915421892
182.717,241.681668137
182.732,241.448138497
182.747,241.214934701
182.762,240.982164549
182.777,240.749942323
182.792,240.518388983
182.807,240.287632489
182.822,240.057808166
182.837,239.829058782
182.852,239.601534963
182.867,239.375395287
182.882,239.150806395
182.897,238.927943025
182.912,238.706987953
182.927,238.488131723
182.942,238.271572361
182.957,238.057514532
182.972,237.846168901
182.987,237.637750506
183.002,237.43247729
183.017,237.230567648
183.032,237.032237384
183.047,236.837696004
183.062,236.647141646
183.077,236.46075517
183.092,236.278692672
183.107,236.101076676
183.122,235.927986298
183.137,235.759446751
183.152,235.595420815
183.167,235.435805932
183.182,235.280447294
183.197,235.129185143
183.212,234.981973539
183.227,234.839139469
183.242,234.701893346
183.257,234.573227961
183.367,234.587732134
183.382,234.714574208
183.397,234.849026934
183.412,234.988656214
183.427,235.132541002
183.442,235.28048307
183.457,235.43257316
183.472,235.58897606
183.487,235.749834755
183.502,235.915234476
183.517,236.085194881
183.532,236.25967497
183.547,236.438582523
183.562,236.621784476
183.577,236.809116525
183.592,237.000391714
183.607,237.195407398
183.622,237.393951032
183.637,237.595804813
183.652,237.800749292
183.667,238.0085662
183.682,238.219040563
183.697,238.431962454
183.712,238.647128069
183.727,238.864340611
183.742,239.083410934
183.757,239.304157792
183.772,239.526408088
183.787,239.749996886
183.802,239.97476742
183.817,240.200570819
183.832,240.427266096
183.847,240.654719754
183.862,240.882805623
183.877,241.111404502
183.892,241.340403942
183.907,241.569697787
183.922,241.799186087
183.937,242.028774615
183.952,242.258374637
183.967,242.487902605
183.982,242.717279946
183.997,242.946432665
184.012,243.175291235
184.027,243.403790248
184.042,243.631868166
184.057,243.859467244
184.072,244.086533156
184.087,244.313014879
184.102,244.53886448
184.117,244.764036977
184.132,244.988490144
184.147,245.212184358
184.162,245.435082427
184.177,245.657149506
184.192,245.878352929
184.207,246.098662063
184.222,246.318048281
184.237,246.536484792
184.252,246.7539465
184.267,246.970410026
184.282,247.185853447
184.297,247.400256441
184.312,247.613599941
184.327,247.825866356
184.342,248.037039208
184.357,248.247103267
184.372,248.456044448
184.387,248.663849673
184.402,248.870506922
184.417,249.076005121
184.432,249.280334096
184.447,249.483484564
184.462,249.685448036
184.477,249.886216823
184.492,250.085783992
184.507,250.284143282
184.522,250.481289136
184.537,250.677216648
184.552,250.871921519
184.56,250.975262863
184.567,251.065399999
184.582,251.257648938
184.597,251.448665698
184.612,251.638448139
184.627,251.826994645
184.642,252.014304025
184.657,252.200375541
184.672,252.385208888
184.687,252.56880414
184.702,252.751161813
184.717,252.932282725
184.732,253.112168066
184.747,253.290819398
184.762,253.468238601
184.777,253.644427846
184.792,253.819389584
184.807,253.99312659
184.822,254.165641922
184.837,254.336938821
184.852,254.507020892
184.867,254.675891864
184.882,254.843555797
184.897,255.010016902
184.912,255.175279627
184.927,255.339348623
184.942,255.502228722
184.957,255.663924968
184.972,255.824442525
184.987,255.983786772
185.002,256.141963274
185.017,256.29897764
185.032,256.45483576
185.047,256.609543582
185.062,256.763107206
185.077,256.91553283
185.092,257.066826827
185.107,257.216995649
185.122,257.366045878
185.137,257.513984151
185.152,257.660817249
185.167,257.806552035
185.182,257.951195441
185.197,258.094754457
185.212,258.237236245
185.227,258.378647922
185.242,258.518996738
185.257,258.658289987
185.272,258.796535021
185.287,258.933739237
185.302,259.069910112
185.31,259.142114596
185.317,259.205055077
185.332,259.33918174
185.347,259.47229763
185.362,259.604410365
185.377,259.735527592
185.392,259.865656946
185.407,259.99480609
185.422,260.122982755
185.437,260.250194641
185.452,260.376449466
185.467,260.501754963
185.482,260.62611885
185.497,260.749548913
185.512,260.872052843
185.527,260.993638392
185.542,261.114313307
185.557,261.234085287
185.572,261.352962029
185.587,261.470951264
185.602,261.588060681
185.617,261.704297899
185.632,261.819670546
185.647,261.934186334
185.662,262.047852806
185.677,262.160677514
185.692,262.272668027
185.707,262.383831856
185.722,262.494176479
185.737,262.603709369
185.752,262.712437903
185.767,262.820369481
185.782,262.927511431
185.797,263.033871102
185.812,263.139455701
185.827,263.244272463
185.842,263.348328596
185.857,263.451631164
185.872,263.554187356
185.887,263.656004176
185.902,263.757088566
185.917,263.857447543
185.932,263.957087977
185.947,264.05601675
185.96,264.141184604
185.962,264.154240639
185.977,264.251766399
185.992,264.348600705
186.007,264.444750258
186.022,264.540221629
186.037,264.635021334
186.052,264.729155901
186.06,264.779091263
186.067,264.822631736
186.082,264.915455273
186.097,265.007632754
186.112,265.099170514
186.127,265.190074742
186.142,265.280351586
186.157,265.370007166
186.172,265.459047545
186.187,265.547478698
186.202,265.635306562
186.217,265.72253703
186.232,265.809175899
186.247,265.895228958
186.262,265.980701901
186.277,266.065600385
186.292,266.149930022
186.307,266.233696357
186.322,266.316904877
186.337,266.399560975
186.352,266.481670057
186.367,266.563237457
186.382,266.644268397
186.397,266.724768112
186.412,266.804741764
186.427,266.884194404
186.442,266.963131146
186.457,267.041556946
186.472,267.119476711
186.487,267.196895378
186.502,267.273817731
186.517,267.350248573
186.532,267.426192602
186.547,267.501654538
186.562,267.576638956
186.577,267.651150435
186.592,267.725193489
186.607,267.798772606
186.622,267.871892161
186.637,267.944556539
186.652,268.016770084
186.667,268.088537014
186.682,268.1598616
186.697,268.230747955
186.71,268.291831543
186.712,268.301200234
186.727,268.371222525
186.742,268.440818817
186.757,268.509993135
186.772,268.578749361
186.787,268.647091417
186.802,268.715023148
186.817,268.782548351
186.832,268.849670751
186.847,268.916394133
186.862,268.982722082
186.877,269.048658255
186.892,269.114206249
186.907,269.179369589
186.922,269.244151781
186.937,269.308556259
186.952,269.37258646
186.967,269.436245787
186.982,269.499537522
186.997,269.562464997
187.012,269.625031477
187.027,269.687240165
187.042,269.749094239
187.057,269.810596875
187.072,269.871751149
187.087,269.932560155
187.102,269.993026928
187.117,270.05315445
187.132,270.112945704
187.147,270.17240361
187.162,270.231531077
187.177,270.290330961
187.192,270.348806074
187.207,270.406959258
187.222,270.464793235
187.237,270.522310737
187.252,270.579514491
187.267,270.636407142
187.282,270.692991345
187.297,270.749269683
187.312,270.805244748
187.327,270.860919095
187.342,270.916295235
187.357,270.971375663
187.372,271.026162814
187.387,271.080659137
187.402,271.134867041
187.417,271.188788908
187.432,271.24242707
187.447,271.295783852
187.46,271.341800573
187.462,271.348861548
187.477,271.401662464
187.492,271.454188806
187.507,271.506442805
187.522,271.558426659
187.537,271.610142522
187.552,271.661592582
187.567,271.712778897
187.582,271.763703627
187.597,271.814368816
187.612,271.864776528
187.627,271.914928782
187.642,271.964827591
187.657,272.014474913
187.672,272.063872765
187.687,272.113023059
187.702,272.161927726
187.717,272.210588622
187.732,272.259007688
187.747,272.307186761
187.762,272.355127684
187.777,272.402832254
187.792,272.450302273
187.807,272.497539556
187.822,272.544545834
187.837,272.591322855
187.852,272.637872338
187.867,272.684196026
187.882,272.730295558
187.897,272.776172623
187.912,272.821828902
187.927,272.867265984
187.942,272.912485525
187.957,272.957489122
187.972,273.002278335
187.987,273.046854757
188.002,273.091219949
188.017,273.135375416
188.032,273.17932272
188.047,273.22306332
188.062,273.266598752
188.077,273.309930482
188.092,273.353059968
188.107,273.395988638
188.122,273.438717953
188.137,273.481249288
188.152,273.523584112
188.167,273.565723768
188.182,273.607669634
188.197,273.649423094
188.21,273.685454837
188.212,273.690985501
188.227,273.73235816
188.242,273.77354242
188.257,273.814539581
188.272,273.855350951
188.287,273.895977797
188.302,273.936421412
188.317,273.976683042
188.332,274.016763972
188.347,274.056665367
188.362,274.096388529
188.377,274.135934612
188.392,274.175304865
188.407,274.214500447
188.422,274.253522559
188.437,274.292372361
188.452,274.331051006
188.467,274.369559642
188.482,274.407899414
188.497,274.446071424
188.512,274.484076854
188.527,274.521916722
188.542,274.559592187
188.557,274.597104305
188.572,274.634454145
188.587,274.671642818
188.602,274.708671335
188.617,274.745540763
188.632,274.78225213
188.647,274.818806463
188.66,274.85036066
188.662,274.855204794
188.677,274.891448123
188.692,274.92753745
188.707,274.963473785
188.722,274.999258077
188.737,275.034891325
