# 10410 EDZE Essen Observations at 12Z 18 Jul 2019
Frequency [GHz],TB
175.31,274.272817766
175.322,274.256824383
175.337,274.236697524
175.352,274.216420498
175.367,274.195993268
175.382,274.17541581
175.397,274.154688111
175.412,274.133810151
175.427,274.112781913
175.442,274.091603397
175.457,274.0702746
175.472,274.04879552
175.487,274.027166168
175.502,274.005386553
175.517,273.983456691
175.532,273.961376598
175.547,273.939146304
175.562,273.916765835
175.577,273.894235226
175.592,273.871554517
175.607,273.848723742
175.622,273.825742958
175.637,273.802612211
175.652,273.779331559
175.667,273.755901062
175.682,273.732320783
175.697,273.708590791
175.712,273.684711166
175.727,273.660681979
175.742,273.636503316
175.757,273.612175266
175.772,273.587697918
175.787,273.563071367
175.802,273.538295714
175.817,273.513371068
175.832,273.488297533
175.847,273.463075223
175.862,273.437704262
175.877,273.412184762
175.892,273.386516857
175.907,273.360700674
175.922,273.334736351
175.937,273.308624026
175.952,273.28236384
175.967,273.255955945
175.982,273.229400489
175.997,273.202697633
176.012,273.175847526
176.027,273.148850346
176.042,273.121706255
176.057,273.094415425
176.072,273.066978029
176.087,273.039394255
176.102,273.011664281
176.117,272.983788294
176.132,272.955766494
176.147,272.927599066
176.162,272.899286218
176.177,272.870828151
176.192,272.842225071
176.207,272.813477188
176.222,272.784584716
176.237,272.75554788
176.252,272.72636689
176.267,272.697041979
176.282,272.667573372
176.297,272.637961305
176.31,272.612181645
176.312,272.608206005
176.327,272.578307718
176.342,272.548266685
176.357,272.518083153
176.372,272.487757361
176.387,272.457289572
176.402,272.426680035
176.417,272.395929003
176.432,272.365036744
176.447,272.334003517
176.46,272.306994232
176.462,272.302829588
176.477,272.27151523
176.492,272.240060712
176.507,272.208466307
176.522,272.176732296
176.537,272.144858954
176.552,272.112846566
176.567,272.080695419
176.582,272.048405794
176.597,272.015977982
176.612,271.983412274
176.627,271.950708969
176.642,271.917868355
176.657,271.884890735
176.672,271.851776407
176.687,271.818525668
176.702,271.78513883
176.717,271.751616195
176.732,271.717958065
176.747,271.684164756
176.762,271.650236571
176.777,271.616173824
176.792,271.581976832
176.807,271.547645902
176.822,271.513181354
176.837,271.478583503
176.852,271.443852666
176.867,271.408989163
176.882,271.373993314
176.897,271.338865433
176.912,271.30360585
176.927,271.268214881
176.942,271.232692855
176.957,271.197040085
176.972,271.161256902
176.987,271.125343629
177.002,271.089300582
177.017,271.053128097
177.032,271.01682649
177.047,270.980396087
177.062,270.943837215
177.077,270.907150193
177.092,270.870335351
177.107,270.83339301
177.122,270.796323492
177.137,270.759127118
177.152,270.721804215
177.167,270.684355098
177.182,270.646780096
177.197,270.609079521
177.21,270.576304366
177.212,270.571253697
177.227,270.53330294
177.242,270.495227568
177.257,270.457027895
177.272,270.418704237
177.287,270.380256904
177.302,270.341686214
177.31,270.321064844
177.317,270.30299247
177.332,270.264175985
177.347,270.225237068
177.362,270.186176025
177.377,270.146993148
177.392,270.107688748
177.407,270.068263125
177.422,270.028716573
177.437,269.989049388
177.452,269.949261866
177.467,269.909354292
177.482,269.869326958
177.497,269.829180152
177.512,269.788914149
177.527,269.748529241
177.542,269.708025696
177.557,269.667403795
177.572,269.626663804
177.587,269.585806
177.602,269.544830643
177.617,269.503737996
177.632,269.462528322
177.647,269.421201879
177.66,269.385291365
177.662,269.379758913
177.677,269.338199683
177.692,269.296524428
177.707,269.254733392
177.722,269.212826818
177.737,269.17080494
177.752,269.128667987
177.767,269.08641619
177.782,269.044049773
177.797,269.001568951
177.812,268.958973948
177.827,268.91626497
177.842,268.873442228
177.857,268.830505924
177.872,268.787456258
177.887,268.744293425
177.902,268.701017615
177.917,268.657629015
177.932,268.614127809
177.947,268.570514173
177.96,268.532624874
177.962,268.526788277
177.977,268.482950288
177.992,268.439000374
178.007,268.394938691
178.022,268.350765396
178.037,268.306480634
178.052,268.262084548
178.067,268.217577281
178.082,268.172958964
178.097,268.12822973
178.112,268.083389699
178.127,268.03843899
178.142,267.993377721
178.157,267.948205994
178.172,267.902923917
178.187,267.857531588
178.202,267.812029099
178.217,267.766416534
178.232,267.720693981
178.247,267.674861512
178.262,267.6289192
178.277,267.582867109
178.292,267.536705301
178.307,267.490433831
178.322,267.444052747
178.337,267.397562091
178.352,267.350961903
178.367,267.304252216
178.382,267.257433053
178.397,267.210504438
178.41,267.169744447
178.412,267.163466383
178.427,267.116318902
178.442,267.069061995
178.457,267.021695659
178.472,266.974219891
178.487,266.926634668
178.502,266.878939979
178.517,266.831135794
178.532,266.783222084
178.547,266.735198808
178.562,266.687065924
178.577,266.638823384
178.592,266.590471129
178.607,266.542009104
178.622,266.493437233
178.637,266.444755447
178.652,266.395963664
178.667,266.347061803
178.682,266.298049767
178.697,266.248927459
178.712,266.199694774
178.727,266.150351603
178.742,266.100897827
178.757,266.051333324
178.772,266.001657966
178.787,265.951871612
178.802,265.901974126
178.817,265.851965355
178.832,265.801845146
178.847,265.751613335
178.862,265.701269757
178.877,265.650814236
178.892,265.600246589
178.907,265.54956663
178.922,265.498774164
178.937,265.447868991
178.952,265.3968509
178.967,265.345719677
178.982,265.294475099
178.997,265.24311694
179.012,265.191644962
179.027,265.140058924
179.042,265.088358576
179.057,265.036543657
179.072,264.984613904
179.087,264.932569048
179.102,264.880408807
179.117,264.828132894
179.132,264.775741015
179.147,264.723232867
179.16,264.67763152
179.162,264.670608143
179.177,264.617866524
179.192,264.56500768
179.207,264.51203128
179.222,264.458936983
179.237,264.405724438
179.252,264.352393286
179.267,264.298943154
179.282,264.245373672
179.297,264.191684451
179.312,264.137875103
179.327,264.083945216
179.342,264.029894381
179.357,263.975722179
179.372,263.921428172
179.387,263.867011923
179.402,263.812472975
179.417,263.757810871
179.432,263.703025135
179.447,263.648115287
179.462,263.593080831
179.477,263.537921259
179.492,263.482636061
179.507,263.427224705
179.522,263.371686653
179.537,263.316021348
179.552,263.260228232
179.567,263.204306726
179.582,263.148256239
179.597,263.092076169
179.612,263.035765901
179.627,262.979324804
179.642,262.92275223
179.657,262.866047528
179.672,262.809210017
179.687,262.752239013
179.702,262.695133808
179.717,262.637893685
179.732,262.580517903
179.747,262.523005713
179.762,262.465356342
179.777,262.407569002
179.792,262.34964289
179.807,262.291577175
179.822,262.233371018
179.837,262.175023558
179.852,262.116533904
179.867,262.057901161
179.882,261.999124399
179.897,261.940202675
179.91,261.889019173
179.912,261.881135018
179.927,261.82192044
179.942,261.762557928
179.957,261.703046441
179.972,261.643384918
179.987,261.583572274
180.002,261.52360739
180.017,261.463489135
180.032,261.403216335
180.047,261.342787802
180.062,261.282202307
180.077,261.221458605
180.092,261.160555409
180.107,261.09949141
180.122,261.038265262
180.137,260.976875592
180.152,260.915320985
180.167,260.853600003
180.182,260.791711168
180.197,260.729652963
180.212,260.667423839
180.227,260.605022214
180.242,260.542446454
180.257,260.479694899
180.272,260.416765846
180.287,260.353657544
180.302,260.290368207
180.317,260.226896002
180.332,260.163239058
180.347,260.099395447
180.362,260.035363211
180.377,259.971140327
180.392,259.906724735
180.407,259.842114324
180.422,259.777306929
180.437,259.712300339
180.452,259.647092285
180.467,259.581680445
180.482,259.516062439
180.497,259.450235838
180.512,259.384198148
180.527,259.317946822
180.542,259.251479246
180.557,259.184792756
180.56,259.171428946
180.572,259.117884611
180.587,259.050752017
180.602,258.983392111
180.617,258.915801961
180.632,258.847978574
180.647,258.77991888
180.66,258.720740247
180.662,258.711619746
180.677,258.643077964
180.692,258.574290251
180.707,258.505253253
180.722,258.43596354
180.737,258.366417604
180.752,258.296611855
180.767,258.226542632
180.782,258.156206187
180.797,258.085598696
180.812,258.014716238
180.827,257.943554821
180.842,257.87211036
180.857,257.800378687
180.872,257.728355541
180.887,257.656036572
180.902,257.583417341
180.917,257.51049331
180.932,257.437259859
180.947,257.363712262
180.962,257.289845702
180.977,257.215655267
180.992,257.141135939
181.007,257.066282607
181.022,256.991090059
181.037,256.915552984
181.052,256.839665958
181.067,256.76342347
181.082,256.686819893
181.097,256.609849494
181.112,256.532506446
181.127,256.454784801
181.142,256.376678518
181.157,256.298181437
181.172,256.2192873
181.187,256.139989732
181.202,256.060282258
181.217,255.980158285
181.232,255.899611116
181.247,255.818633945
181.262,255.737219856
181.277,255.655361826
181.292,255.573052721
181.307,255.490285302
181.31,255.473676176
181.322,255.407052218
181.337,255.323346016
181.352,255.239159137
181.367,255.154483916
181.382,255.069312582
181.397,254.983637265
181.412,254.897449995
181.427,254.8107427
181.442,254.723507217
181.457,254.635735281
181.472,254.547418541
181.487,254.458548553
181.502,254.369116794
181.517,254.279114643
181.532,254.188533421
181.547,254.097364347
181.562,254.005598595
181.577,253.913227254
181.592,253.820241363
181.607,253.726631894
181.622,253.632389775
181.637,253.537505889
181.652,253.441971079
181.667,253.34577616
181.682,253.248911916
181.697,253.151369128
181.712,253.053138563
181.727,252.95421099
181.742,252.854577199
181.757,252.754227994
181.772,252.65315422
181.787,252.551346765
181.802,252.448796583
181.817,252.345494696
181.832,252.241432215
181.847,252.136600352
181.862,252.030990446
181.877,251.924593966
181.892,251.817402538
181.907,251.709407966
181.922,251.600602241
181.937,251.490977581
181.952,251.380526439
181.967,251.269241532
181.982,251.157115863
181.997,251.044142763
182.012,250.9303159
182.027,250.815629313
182.042,250.700077462
182.057,250.583655234
182.06,250.56026593
182.072,250.466358002
182.087,250.348181641
182.102,250.229122586
182.117,250.10917786
182.132,249.988345115
182.147,249.866622687
182.162,249.744009635
182.177,249.620505792
182.192,249.496111807
182.207,249.370829219
182.222,249.244660488
182.237,249.11760907
182.252,248.989679458
182.267,248.860877265
182.282,248.731209273
182.297,248.600683504
182.312,248.469309282
182.327,248.33709731
182.342,248.204059738
182.357,248.070210238
182.372,247.935564073
182.387,247.80013818
182.402,247.663951244
182.417,247.527023773
182.432,247.389378179
182.447,247.251038859
182.462,247.112032259
182.477,246.972386972
182.492,246.832133788
182.507,246.691305786
182.522,246.5499384
182.537,246.408069469
182.552,246.265739309
182.567,246.12299077
182.582,245.979869268
182.597,245.836422833
182.612,245.69270213
182.627,245.548760469
182.642,245.404653813
182.657,245.260440743
182.672,245.116182434
182.687,244.971942589
182.702,244.827787351
182.717,244.683785193
182.732,244.540006759
182.747,244.396524689
182.762,244.253413387
182.777,244.110748737
182.792,243.968607798
182.807,243.827068376
182.822,243.686208604
182.837,243.546106381
182.852,243.406838761
182.867,243.26848123
182.882,243.131106872
182.897,242.994785421
182.912,242.859582139
182.927,242.72555657
182.942,242.592761069
182.957,242.461239121
182.972,242.331023417
182.987,242.202133601
183.002,242.0745737
183.017,241.948329094
183.032,241.823363053
183.047,241.699612664
183.062,241.576984175
183.077,241.455347671
183.092,241.334531261
183.107,241.214315087
183.122,241.09442622
183.137,240.974536575
183.152,240.854268508
183.167,240.733217082
183.182,240.611005988
183.197,240.487406915
183.212,240.362569731
183.227,240.237426
183.242,240.114314485
183.257,239.997772779
183.367,240.011395566
183.382,240.126293882
183.397,240.246383746
183.412,240.367759005
183.427,240.488507857
183.442,240.607946437
183.457,240.726050768
183.472,240.84310318
183.487,240.959495632
183.502,241.075630103
183.517,241.191873382
183.532,241.308540208
183.547,241.425890245
183.562,241.544131224
183.577,241.663424422
183.592,241.783890645
183.607,241.905615947
183.622,242.028656777
183.637,242.153044479
183.652,242.278789189
183.667,242.4058832
183.682,242.534303832
183.697,242.664015954
183.712,242.794974106
183.727,242.927124375
183.742,243.060406022
183.757,243.194752882
183.772,243.330094573
183.787,243.46635758
183.802,243.603466169
183.817,243.741343184
183.832,243.879910744
183.847,244.019090853
183.862,244.158805901
183.877,244.298979111
183.892,244.439534912
183.907,244.580399251
183.922,244.721499869
183.937,244.862766509
183.952,245.004131093
183.967,245.145527872
183.982,245.286893514
183.997,245.428167226
184.012,245.569290757
184.027,245.710208475
184.042,245.850867368
184.057,245.991217032
184.072,246.131209679
184.087,246.270800094
184.102,246.4099456
184.117,246.548606019
184.132,246.686743609
184.147,246.824323016
184.162,246.961311194
184.177,247.097677348
184.192,247.233392864
184.207,247.368431228
184.222,247.50276795
184.237,247.636380503
184.252,247.769248218
184.267,247.901352235
184.282,248.032675416
184.297,248.163202259
184.312,248.292918843
184.327,248.421812738
184.342,248.549872945
184.357,248.677089821
184.372,248.803455006
184.387,248.92896136
184.402,249.053602904
184.417,249.177374756
184.432,249.300273062
184.447,249.422294943
184.462,249.543438445
184.477,249.663702472
184.492,249.783086757
184.507,249.901591781
184.522,250.01921875
184.537,250.135969542
184.552,250.251846656
184.56,250.313291591
184.567,250.366853186
184.582,250.480992766
184.597,250.594269543
184.612,250.706688135
184.627,250.818253599
184.642,250.928971395
184.657,251.038847359
184.672,251.147887673
184.687,251.25609884
184.702,251.363487648
184.717,251.470061156
184.732,251.575826655
184.747,251.680791664
184.762,251.784963904
184.777,251.888351263
184.792,251.990961794
184.807,252.092803696
184.822,252.19388528
184.837,252.294214972
184.852,252.39380129
184.867,252.492652837
184.882,252.59077827
184.897,252.688186307
184.912,252.784885704
184.927,252.880885248
184.942,252.976193744
184.957,253.070820014
184.972,253.164772869
184.987,253.258061117
185.002,253.350693556
185.017,253.442678956
185.032,253.534026056
185.047,253.624743558
185.062,253.714840123
185.077,253.804324362
185.092,253.893204834
185.107,253.981490038
185.122,254.069188412
185.137,254.156308321
185.152,254.242858067
185.167,254.32884587
185.182,254.414279878
185.197,254.499168152
185.212,254.583518679
185.227,254.66733935
185.242,254.750637977
185.257,254.833422271
185.272,254.915699857
185.287,254.997478271
185.302,255.078764945
185.31,255.121919312
185.317,255.15956722
185.332,255.23989234
185.347,255.319747446
185.362,255.399139586
185.377,255.478075706
185.392,255.556562644
185.407,255.634607152
185.422,255.712215869
185.437,255.789395338
185.452,255.866152001
185.467,255.942492199
185.482,256.018422168
185.497,256.093948049
185.512,256.169075879
185.527,256.243811594
185.542,256.318161032
185.557,256.392129932
185.572,256.465723936
185.587,256.538948583
185.602,256.611809318
185.617,256.68431149
185.632,256.756460354
185.647,256.828261061
185.662,256.899718678
185.677,256.970838176
185.692,257.04162443
185.707,257.112082228
185.722,257.182216264
185.737,257.252031144
185.752,257.32153139
185.767,257.390721431
185.782,257.45960561
185.797,257.528188187
185.812,257.596473342
185.827,257.664465165
185.842,257.732167668
185.857,257.799584783
185.872,257.86672036
185.887,257.933578174
185.902,258.000161925
185.917,258.066475226
185.932,258.132521629
185.947,258.198304608
185.96,258.25510607
185.962,258.26382756
185.977,258.329093817
185.992,258.394106641
186.007,258.458869221
186.022,258.523384681
186.037,258.587656083
186.052,258.651686415
186.06,258.685738369
186.067,258.715478605
186.082,258.779035525
186.097,258.842359981
186.112,258.905454709
186.127,258.968322396
186.142,259.030965675
186.157,259.093387114
186.172,259.155589224
186.187,259.217574465
186.202,259.279345243
186.217,259.340903916
186.232,259.402252778
186.247,259.463394086
186.262,259.524330035
186.277,259.585062787
186.292,259.64559444
186.307,259.705927055
186.322,259.766062652
186.337,259.826003191
186.352,259.885750607
186.367,259.945306783
186.382,260.004673554
186.397,260.063852726
186.412,260.122846061
186.427,260.181655286
186.442,260.240282079
186.457,260.29872809
186.472,260.356994931
186.487,260.415084181
186.502,260.472997379
186.517,260.530736028
186.532,260.588301613
186.547,260.645695569
186.562,260.702919311
186.577,260.759974217
186.592,260.816861636
186.607,260.873582893
186.622,260.930139278
186.637,260.98653206
186.652,261.042762468
186.667,261.09883172
186.682,261.154740997
186.697,261.210491458
186.71,261.258680941
186.712,261.266084245
186.727,261.321520458
186.742,261.376801192
186.757,261.43192751
186.772,261.486900453
186.787,261.54172104
186.802,261.596390271
186.817,261.650909129
186.832,261.705278565
186.847,261.759499521
186.862,261.813572916
186.877,261.867499652
186.892,261.921280608
186.907,261.974916648
186.922,262.028408624
186.937,262.081757361
186.952,262.134963674
186.967,262.188028362
186.982,262.240952208
186.997,262.293735973
187.012,262.346380412
187.027,262.398886261
187.042,262.451254243
187.057,262.503485066
187.072,262.555579426
187.087,262.607538006
187.102,262.659361474
187.117,262.711050485
187.132,262.762605688
187.147,262.814027712
187.162,262.865317178
187.177,262.916474696
187.192,262.967500863
187.207,263.018396269
187.222,263.069161489
187.237,263.119797087
187.252,263.170303624
187.267,263.220681646
187.282,263.270931684
187.297,263.321054273
187.312,263.371049927
187.327,263.420919156
187.342,263.470662458
187.357,263.52028033
187.372,263.569773251
187.387,263.619141697
187.402,263.668386135
187.417,263.717507026
187.432,263.766504818
187.447,263.815379956
187.46,263.857639536
187.462,263.864132881
187.477,263.912764014
187.492,263.961273783
187.507,264.009662601
187.522,264.057930877
187.537,264.106079009
187.552,264.154107399
187.567,264.202016431
187.582,264.249806486
187.597,264.297477943
187.612,264.345031172
187.627,264.392466534
187.642,264.43978439
187.657,264.486985089
187.672,264.534068981
187.687,264.581036406
187.702,264.627887698
187.717,264.674623188
187.732,264.7212432
187.747,264.767748058
187.762,264.81413807
187.777,264.86041355
187.792,264.906574799
187.807,264.952622117
187.822,264.9985558
187.837,265.044376134
187.852,265.090083414
187.867,265.135677908
187.882,265.181159897
187.897,265.226529652
187.912,265.271787441
187.927,265.316933526
187.942,265.361968161
187.957,265.406891607
187.972,265.451704103
187.987,265.496405903
188.002,265.540997243
188.017,265.585478364
188.032,265.629849495
188.047,265.674110863
188.062,265.718262698
188.077,265.762305217
188.092,265.806238639
188.107,265.850063177
188.122,265.893779034
188.137,265.937386424
188.152,265.980885541
188.167,266.02427659
188.182,266.067559758
188.197,266.110735242
188.21,266.14806703
188.212,266.153803222
188.227,266.196763887
188.242,266.239617412
188.257,266.282363978
188.272,266.325003755
188.287,266.36753691
188.302,266.409963615
188.317,266.452284023
188.332,266.494498299
188.347,266.5366066
188.362,266.578609076
188.377,266.620505874
188.392,266.662297143
188.407,266.703983024
188.422,266.745563656
188.437,266.787039175
188.452,266.828409719
188.467,266.869675409
188.482,266.910836376
188.497,266.951892744
188.512,266.992844636
188.527,267.033692165
188.542,267.074435448
188.557,267.115074596
188.572,267.155609718
188.587,267.196040917
188.602,267.236368304
188.617,267.276591974
188.632,267.316712021
188.647,267.356728543
188.66,267.391325862
188.662,267.396641634
188.677,267.436451379
188.692,267.476157866
188.707,267.515761175
188.722,267.555261394
188.737,267.594658597
