# 78954 TBPB Grantley Adams Observations at 12Z 14 Dec 2019
Frequency [GHz],TB
175.31,275.427147651
175.322,275.407494907
175.337,275.38287878
175.352,275.358206785
175.367,275.333478818
175.382,275.308694778
175.397,275.283854562
175.412,275.258958066
175.427,275.234005186
175.442,275.20899582
175.457,275.183929861
175.472,275.158807207
175.487,275.133627751
175.502,275.108391388
175.517,275.083098013
175.532,275.057747518
175.547,275.032339799
175.562,275.006874747
175.577,274.981352256
175.592,274.955772217
175.607,274.930134524
175.622,274.904439068
175.637,274.878685739
175.652,274.85287443
175.667,274.82700503
175.682,274.80107743
175.697,274.775091521
175.712,274.749047191
175.727,274.72294433
175.742,274.696782828
175.757,274.670562572
175.772,274.644283451
175.787,274.617945353
175.802,274.591548166
175.817,274.565091777
175.832,274.538576073
175.847,274.512000941
175.862,274.485366267
175.877,274.458671938
175.892,274.431917839
175.907,274.405103856
175.922,274.378229874
175.937,274.351295778
175.952,274.324301453
175.967,274.297246782
175.982,274.270131651
175.997,274.242955943
176.012,274.215719541
176.027,274.188422328
176.042,274.161064189
176.057,274.133645005
176.072,274.106164658
176.087,274.078623032
176.102,274.051020008
176.117,274.023355468
176.132,273.995629293
176.147,273.967841365
176.162,273.939991565
176.177,273.912079773
176.192,273.88410587
176.207,273.856069736
176.222,273.827971252
176.237,273.799810298
176.252,273.771586752
176.267,273.743300496
176.282,273.714951407
176.297,273.686539366
176.31,273.661864582
176.312,273.658064251
176.327,273.629525942
176.342,273.600924316
176.357,273.572259252
176.372,273.543530629
176.387,273.514738324
176.402,273.485882217
176.417,273.456962183
176.432,273.427978103
176.447,273.398929852
176.46,273.3737027
176.462,273.369817308
176.477,273.340640349
176.492,273.311398852
176.507,273.282092694
176.522,273.252721753
176.537,273.223285904
176.552,273.193785026
176.567,273.164218994
176.582,273.134587685
176.597,273.104890976
176.612,273.075128744
176.627,273.045300865
176.642,273.015407215
176.657,272.985447671
176.672,272.955422109
176.687,272.925330405
176.702,272.895172436
176.717,272.864948078
176.732,272.834657207
176.747,272.804299699
176.762,272.773875431
176.777,272.743384279
176.792,272.712826118
176.807,272.682200826
176.822,272.651508278
176.837,272.620748352
176.852,272.589920922
176.867,272.559025865
176.882,272.528063059
176.897,272.497032378
176.912,272.465933701
176.927,272.434766903
176.942,272.40353186
176.957,272.372228451
176.972,272.340856551
176.987,272.309416038
177.002,272.277906787
177.017,272.246328678
177.032,272.214681585
177.047,272.182965388
177.062,272.151179963
177.077,272.119325188
177.092,272.08740094
177.107,272.055407098
177.122,272.023343539
177.137,271.99121014
177.152,271.959006782
177.167,271.926733341
177.182,271.894389696
177.197,271.861975726
177.21,271.83382664
177.212,271.82949131
177.227,271.796936327
177.242,271.764310655
177.257,271.731614175
177.272,271.698846765
177.287,271.666008306
177.302,271.633098677
177.31,271.615517733
177.317,271.600117759
177.332,271.567065431
177.347,271.533941574
177.362,271.500746069
177.377,271.467478797
177.392,271.434139639
177.407,271.400728475
177.422,271.367245188
177.437,271.333689658
177.452,271.300061769
177.467,271.266361402
177.482,271.232588439
177.497,271.198742763
177.512,271.164824257
177.527,271.130832803
177.542,271.096768285
177.557,271.062630585
177.572,271.028419588
177.587,270.994135177
177.602,270.959777236
177.617,270.92534565
177.632,270.890840302
177.647,270.856261077
177.66,270.826232568
177.662,270.82160786
177.677,270.786880536
177.692,270.752078989
177.707,270.717203105
177.722,270.682252769
177.737,270.647227868
177.752,270.612128286
177.767,270.57695391
177.782,270.541704625
177.797,270.506380317
177.812,270.470980874
177.827,270.43550618
177.842,270.399956123
177.857,270.36433059
177.872,270.328629466
177.887,270.292852639
177.902,270.256999995
177.917,270.221071421
177.932,270.185066803
177.947,270.14898603
177.96,270.117654337
177.962,270.112828987
177.977,270.076595561
177.992,270.04028564
178.007,270.003899109
178.022,269.967435855
178.037,269.930895766
178.052,269.894278727
178.067,269.857584624
178.082,269.820813345
178.097,269.783964774
178.112,269.747038798
178.127,269.710035302
178.142,269.672954171
178.157,269.635795291
178.172,269.598558546
178.187,269.56124382
178.202,269.523850998
178.217,269.486379963
178.232,269.448830599
178.247,269.411202787
178.262,269.37349641
178.277,269.335711351
178.292,269.297847489
178.307,269.259904706
178.322,269.221882882
178.337,269.183781895
178.352,269.145601624
178.367,269.107341947
178.382,269.06900274
178.397,269.03058388
178.41,268.997223008
178.412,268.992085242
178.427,268.953506701
178.442,268.914848128
178.457,268.876109397
178.472,268.837290378
178.487,268.798390941
178.502,268.759410955
178.517,268.720350287
178.532,268.681208803
178.547,268.641986369
178.562,268.602682846
178.577,268.563298097
178.592,268.523831982
178.607,268.48428436
178.622,268.444655086
178.637,268.404944016
178.652,268.365151003
178.667,268.325275899
178.682,268.285318551
178.697,268.245278808
178.712,268.205156514
178.727,268.164951512
178.742,268.124663642
178.757,268.084292742
178.772,268.043838646
178.787,268.003301189
178.802,267.962680199
178.817,267.921975505
178.832,267.88118693
178.847,267.840314295
178.862,267.79935742
178.877,267.758316118
178.892,267.717190203
178.907,267.675979482
178.922,267.634683759
178.937,267.593302837
178.952,267.551836512
178.967,267.510284579
178.982,267.468646826
178.997,267.426923039
179.012,267.385113
179.027,267.343216485
179.042,267.301233267
179.057,267.259163112
179.072,267.217005785
179.087,267.174761043
179.102,267.132428639
179.117,267.09000832
179.132,267.04749983
179.147,267.004902905
179.16,266.967913828
179.162,266.962217275
179.177,266.919442668
179.192,266.8765788
179.207,266.833625387
179.222,266.790582135
179.237,266.747448744
179.252,266.704224907
179.267,266.660910312
179.282,266.617504639
179.297,266.57400756
179.312,266.53041874
179.327,266.486737836
179.342,266.442964499
179.357,266.39909837
179.372,266.355139083
179.387,266.311086263
179.402,266.266939526
179.417,266.22269848
179.432,266.178362723
179.447,266.133931845
179.462,266.089405425
179.477,266.044783033
179.492,266.00006423
179.507,265.955248564
179.522,265.910335575
179.537,265.865324792
179.552,265.820215731
179.567,265.7750079
179.582,265.729700792
179.597,265.684293891
179.612,265.638786666
179.627,265.593178578
179.642,265.54746907
179.657,265.501657576
179.672,265.455743516
179.687,265.409726295
179.702,265.363605306
179.717,265.317379926
179.732,265.271049519
179.747,265.224613433
179.762,265.178071001
179.777,265.131421543
179.792,265.084664358
179.807,265.037798735
179.822,264.99082394
179.837,264.943739228
179.852,264.896543833
179.867,264.849236972
179.882,264.801817845
179.897,264.754285632
179.91,264.712998926
179.912,264.706639495
179.927,264.658878577
179.942,264.611002001
179.957,264.563008869
179.972,264.514898263
179.987,264.466669246
180.002,264.418320855
180.017,264.36985211
180.032,264.321262005
180.047,264.272549514
180.062,264.223713584
180.077,264.174753141
180.092,264.125667086
180.107,264.076454295
180.122,264.027113618
180.137,263.977643879
180.152,263.928043878
180.167,263.878312384
180.182,263.82844814
180.197,263.778449862
180.212,263.728316236
180.227,263.678045917
180.242,263.627637534
180.257,263.577089681
180.272,263.526400922
180.287,263.475569791
180.302,263.424594786
180.317,263.373474374
180.332,263.322206987
180.347,263.270791022
180.362,263.219224841
180.377,263.167506769
180.392,263.115635094
180.407,263.063608067
180.422,263.011423899
180.437,262.959080762
180.452,262.906576788
180.467,262.853910067
180.482,262.801078648
180.497,262.748080537
180.512,262.694913694
180.527,262.641576036
180.542,262.588065435
180.557,262.534379714
180.56,262.523621361
180.572,262.48051665
180.587,262.42647397
180.602,262.372249352
180.617,262.317840423
180.632,262.263244757
180.647,262.208459876
180.66,262.160824636
180.662,262.153483248
180.677,262.098312284
180.692,262.042944339
180.707,261.987376711
180.722,261.931606639
180.737,261.8756313
180.752,261.819447809
180.767,261.763053222
180.782,261.706444525
180.797,261.649618642
180.812,261.592572428
180.827,261.535302671
180.842,261.477806087
180.857,261.42007932
180.872,261.362118941
180.887,261.303921448
180.902,261.24548326
180.917,261.186800719
180.932,261.127870084
180.947,261.068687538
180.962,261.009249173
180.977,260.949551003
180.992,260.889588948
181.007,260.829358842
181.022,260.768856428
181.037,260.708077354
181.052,260.647017174
181.067,260.585671342
181.082,260.524035214
181.097,260.462104045
181.112,260.399872982
181.127,260.337337069
181.142,260.274491237
181.157,260.21133031
181.172,260.147848994
181.187,260.084041879
181.202,260.019903437
181.217,259.955428017
181.232,259.890609841
181.247,259.825443007
181.262,259.759921479
181.277,259.694039089
181.292,259.627789531
181.307,259.561166361
181.31,259.547796316
181.322,259.494162988
181.337,259.426772678
181.352,259.358988545
181.367,259.290803551
181.382,259.2222105
181.397,259.153202034
181.412,259.083770633
181.427,259.013908607
181.442,258.943608094
181.457,258.872861055
181.472,258.801659273
181.487,258.729994341
181.502,258.657857668
181.517,258.585240466
181.532,258.51213375
181.547,258.438528329
181.562,258.364414808
181.577,258.289783575
181.592,258.214624801
181.607,258.138928434
181.622,258.06268419
181.637,257.985881552
181.652,257.908509762
181.667,257.830557813
181.682,257.752014448
181.697,257.672868146
181.712,257.593107124
181.727,257.512719322
181.742,257.431692403
181.757,257.350013739
181.772,257.267670409
181.787,257.184649187
181.802,257.100936536
181.817,257.0165186
181.832,256.931381192
181.847,256.845509789
181.862,256.758889517
181.877,256.671505148
181.892,256.583341083
181.907,256.494381344
181.922,256.404609561
181.937,256.314008964
181.952,256.222562365
181.967,256.130252147
181.982,256.037060249
181.997,255.942968155
182.012,255.847956872
182.027,255.752006918
182.042,255.655098303
182.057,255.557210508
182.06,255.537513604
182.072,255.45832247
182.087,255.358412554
182.102,255.257458536
182.117,255.155437575
182.132,255.052326184
182.147,254.94810021
182.162,254.842734793
182.177,254.73620434
182.192,254.628482485
182.207,254.519542049
182.222,254.409355
182.237,254.297892404
182.252,254.185124373
182.267,254.071020012
182.282,253.955547351
182.297,253.838673281
182.312,253.720363476
182.327,253.600582312
182.342,253.479292771
182.357,253.356456337
182.372,253.232032883
182.387,253.105980541
182.402,252.97825556
182.417,252.848812138
182.432,252.717602249
182.447,252.584575432
182.462,252.449678563
182.477,252.312855596
182.492,252.174047266
182.507,252.033190756
182.522,251.89021932
182.537,251.74506185
182.552,251.597642383
182.567,251.447879549
182.582,251.29568592
182.597,251.140967286
182.612,250.983621814
182.627,250.823539083
182.642,250.660598977
182.657,250.494670411
182.672,250.325609863
182.687,250.153259674
182.702,249.977446088
182.717,249.797976979
182.732,249.614639218
182.747,249.427195613
182.762,249.235381348
182.777,249.038899841
182.792,248.83741791
182.807,248.630560121
182.822,248.417902181
182.837,248.198963199
182.852,247.973196603
182.867,247.739979476
182.882,247.498600004
182.897,247.248242719
182.912,246.987971089
182.927,246.716707016
182.942,246.433206652
182.957,246.136031898
182.972,245.823516852
182.987,245.493728389
183.002,245.14442
183.017,244.772978024
183.032,244.376359519
183.047,243.951021341
183.062,243.492840672
183.077,242.99702856
183.092,242.458040468
183.107,241.869492128
183.122,241.22409674
183.137,240.513653175
183.152,239.729139389
183.167,238.861009465
183.182,237.899873408
183.197,236.837885286
183.212,235.671423516
183.227,234.406063132
183.242,233.065347691
183.257,231.704845762
183.367,232.028364163
183.382,233.386053777
183.397,234.706087831
183.412,235.942734402
183.427,237.078129012
183.442,238.109660988
183.457,239.042348781
183.472,239.88458312
183.487,240.645854911
183.502,241.335591561
183.517,241.962598413
183.532,242.534826153
183.547,243.059310748
183.562,243.542201523
183.577,243.988830969
183.592,244.403800863
183.607,244.791071101
183.622,245.154044282
183.637,245.495642797
183.652,245.818377265
183.667,246.124406292
183.682,246.415588077
183.697,246.693524652
183.712,246.959599641
183.727,247.215010378
183.742,247.460795188
183.757,247.697856524
183.772,247.926980612
183.787,248.148854102
183.802,248.364078218
183.817,248.573180775
183.832,248.776626408
183.847,248.974825279
183.862,249.168140504
183.877,249.356894496
183.892,249.541374393
183.907,249.721836699
183.922,249.898511269
183.937,250.071604735
183.952,250.241303448
183.967,250.40777601
183.982,250.571175471
183.997,250.731641209
184.012,250.889300574
184.027,251.044270299
184.042,251.196657734
184.057,251.346561913
184.072,251.494074484
184.087,251.639280517
184.102,251.782259218
184.117,251.923084542
184.132,252.061825735
184.147,252.198547811
184.162,252.333311969
184.177,252.466175958
184.192,252.5971944
184.207,252.726419077
184.222,252.853899183
184.237,252.979681547
184.252,253.10381083
184.267,253.226329703
184.282,253.347279003
184.297,253.466697872
184.312,253.584623885
184.327,253.701093159
184.342,253.816140453
184.357,253.929799263
184.372,254.042101899
184.387,254.15307956
184.402,254.262762404
184.417,254.371179601
184.432,254.478359396
184.447,254.584329154
184.462,254.689115408
184.477,254.7927439
184.492,254.895239619
184.507,254.996626839
184.522,255.096929147
184.537,255.196169478
184.552,255.29437014
184.56,255.346326236
184.567,255.39155284
184.582,255.48773871
184.597,255.582948326
184.612,255.677201733
184.627,255.77051846
184.642,255.862917544
184.657,255.954417542
184.672,256.04503655
184.687,256.134792218
184.702,256.223701766
184.717,256.311781993
184.732,256.399049295
184.747,256.485519675
184.762,256.571208756
184.777,256.656131792
184.792,256.740303676
184.807,256.823738954
184.822,256.906451834
184.837,256.988456194
184.852,257.069765591
184.867,257.150393272
184.882,257.230352178
184.897,257.309654959
184.912,257.388313974
184.927,257.466341302
184.942,257.543748751
184.957,257.620547862
184.972,257.696749917
184.987,257.772365944
185.002,257.847406726
185.017,257.921882805
185.032,257.995804488
185.047,258.069181855
185.062,258.142024761
185.077,258.214342843
185.092,258.286145526
185.107,258.357442028
185.122,258.428241365
185.137,258.498552351
185.152,258.568383612
185.167,258.637743583
185.182,258.706640515
185.197,258.775082478
185.212,258.843077368
185.227,258.910632909
185.242,258.977756656
185.257,259.044456003
185.272,259.110738181
185.287,259.176610265
185.302,259.24207918
185.31,259.276833428
185.317,259.307151699
185.332,259.371834449
185.347,259.436133915
185.362,259.500056445
185.377,259.563608247
185.392,259.626795397
185.407,259.689623844
185.422,259.752099405
185.437,259.814227776
185.452,259.87601453
185.467,259.937465122
185.482,259.998584891
185.497,260.059379062
185.512,260.119852748
185.527,260.180010955
185.542,260.239858582
185.557,260.299400425
185.572,260.358641178
185.587,260.417585436
185.602,260.476237696
185.617,260.534602361
185.632,260.592683742
185.647,260.650486058
185.662,260.708013439
185.677,260.765269929
185.692,260.822259486
185.707,260.878985988
185.722,260.935453227
185.737,260.991664919
185.752,261.047624701
185.767,261.103336135
185.782,261.158802706
185.797,261.21402783
185.812,261.269014849
185.827,261.323767036
185.842,261.378287595
185.857,261.432579666
185.872,261.48664632
185.887,261.540490568
185.902,261.594115355
185.917,261.647523567
185.932,261.70071803
185.947,261.753701511
185.96,261.799451962
185.962,261.806476718
185.977,261.859046307
185.992,261.911412876
186.007,261.963578969
186.022,262.015547079
186.037,262.067319647
186.052,262.118899064
186.06,262.146329919
186.067,262.17028767
186.082,262.221487759
186.097,262.272501577
186.112,262.323331322
186.127,262.373979149
186.142,262.424447169
186.157,262.474737446
186.172,262.524852006
186.187,262.57479283
186.202,262.62456186
186.217,262.674160998
186.232,262.723592107
186.247,262.77285701
186.262,262.821957496
186.277,262.870895314
186.292,262.919672179
186.307,262.968289771
186.322,263.016749733
186.337,263.065053678
186.352,263.113203184
186.367,263.161199797
186.382,263.20904503
186.397,263.256740368
186.412,263.304287264
186.427,263.35168714
186.442,263.39894139
186.457,263.446051381
186.472,263.493018451
186.487,263.539843909
186.502,263.586529039
186.517,263.6330751
186.532,263.679483321
186.547,263.725754912
186.562,263.771891052
186.577,263.817892901
186.592,263.863761592
186.607,263.909498237
186.622,263.955103925
186.637,264.000579721
186.652,264.045926671
186.667,264.091145797
186.682,264.136238103
186.697,264.181204571
186.71,264.220074464
186.712,264.226046162
186.727,264.27076382
186.742,264.315358468
186.757,264.359831011
186.772,264.404182336
186.787,264.44841331
186.802,264.492524785
186.817,264.536517594
186.832,264.580392554
186.847,264.624150466
186.862,264.667792113
186.877,264.711318264
186.892,264.754729672
186.907,264.798027073
186.922,264.841211192
186.937,264.884282736
186.952,264.9272424
186.967,264.970090863
186.982,265.012828792
186.997,265.05545684
187.012,265.097975647
187.027,265.140385841
187.042,265.182688037
187.057,265.224882837
187.072,265.266970832
187.087,265.308952601
187.102,265.350828712
187.117,265.39259972
187.132,265.434266173
187.147,265.475828603
187.162,265.517287536
187.177,265.558643486
187.192,265.599896956
187.207,265.641048441
187.222,265.682098425
187.237,265.723047385
187.252,265.763895785
187.267,265.804644084
187.282,265.84529273
187.297,265.885842162
187.312,265.926292812
187.327,265.966645105
187.342,266.006899454
187.357,266.047056269
187.372,266.087115948
187.387,266.127078885
187.402,266.166945465
187.417,266.206716067
187.432,266.246391061
187.447,266.285970813
187.46,266.320196501
187.462,266.325455681
187.477,266.364846015
187.492,266.404142162
187.507,266.44334446
187.522,266.482453243
187.537,266.521468838
187.552,266.560391567
187.567,266.599221746
187.582,266.637959685
187.597,266.67660569
187.612,266.715160061
187.627,266.753623094
187.642,266.791995078
187.657,266.830276299
187.672,266.868467038
187.687,266.906567571
187.702,266.94457817
187.717,266.982499102
187.732,267.020330632
187.747,267.058073018
187.762,267.095726515
187.777,267.133291376
187.792,267.170767846
187.807,267.208156172
187.822,267.245456592
187.837,267.282669344
187.852,267.319794661
187.867,267.356832773
187.882,267.393783909
187.897,267.43064829
187.912,267.467426139
187.927,267.504117673
187.942,267.540723107
187.957,267.577242654
187.972,267.613676523
187.987,267.65002492
188.002,267.686288052
188.017,267.722466118
188.032,267.75855932
188.047,267.794567853
188.062,267.830491914
188.077,267.866331694
188.092,267.902087384
188.107,267.937759174
188.122,267.973347249
188.137,268.008851793
188.152,268.044272991
188.167,268.079611022
188.182,268.114866066
188.197,268.1500383
188.21,268.180454054
188.212,268.1851279
188.227,268.22013504
188.242,268.255059893
188.257,268.289902629
188.272,268.324663419
188.287,268.359342431
188.302,268.393939832
188.317,268.428455787
188.332,268.462890461
188.347,268.497244016
188.362,268.531516616
188.377,268.56570842
188.392,268.599819588
188.407,268.633850279
188.422,268.667800651
188.437,268.701670861
188.452,268.735461063
188.467,268.769171413
188.482,268.802802066
188.497,268.836353173
188.512,268.869824887
188.527,268.90321736
188.542,268.936530743
188.557,268.969765185
188.572,269.002920836
188.587,269.035997844
188.602,269.068996359
188.617,269.101916526
188.632,269.134758494
188.647,269.167522408
188.66,269.195854776
188.662,269.200208414
188.677,269.232816657
188.692,269.265347283
188.707,269.297800435
188.722,269.330176257
188.737,269.362474893
188.752,269.394696486
