# 78954 TBPB Grantley Adams Observations at 12Z 21 Jan 2019
Frequency [GHz],TB
175.31,283.424797335
175.322,283.412525451
175.337,283.397140373
175.352,283.38170506
175.367,283.366219525
175.382,283.350683783
175.397,283.335097845
175.412,283.319461723
175.427,283.303775428
175.442,283.288038971
175.457,283.272252363
175.472,283.256415612
175.487,283.240528726
175.502,283.224591715
175.517,283.208604583
175.532,283.19256734
175.547,283.176479989
175.562,283.160342535
175.577,283.144154983
175.592,283.127917336
175.607,283.111629595
175.622,283.095291762
175.637,283.078903837
175.652,283.06246582
175.667,283.045977709
175.682,283.029439502
175.697,283.012851194
175.712,282.996212782
175.727,282.979524259
175.742,282.96278562
175.757,282.945996855
175.772,282.929157956
175.787,282.912268912
175.802,282.895329713
175.817,282.878340346
175.832,282.861300797
175.847,282.84421105
175.862,282.827071089
175.877,282.809880897
175.892,282.792640455
175.907,282.775349742
175.922,282.758008736
175.937,282.740617414
175.952,282.723175752
175.967,282.705683723
175.982,282.688141299
175.997,282.670548453
176.012,282.652905152
176.027,282.635211365
176.042,282.617467058
176.057,282.599672195
176.072,282.581826739
176.087,282.563930652
176.102,282.545983893
176.117,282.52798642
176.132,282.509938188
176.147,282.491839153
176.162,282.473689266
176.177,282.455488478
176.192,282.437236737
176.207,282.418933992
176.222,282.400580186
176.237,282.382175262
176.252,282.363719163
176.267,282.345211825
176.282,282.326653187
176.297,282.308043184
176.31,282.291872913
176.312,282.289381748
176.327,282.270668809
176.342,282.251904298
176.357,282.233088139
176.372,282.214220258
176.387,282.195300576
176.402,282.176329012
176.417,282.157305485
176.432,282.138229909
176.447,282.119102198
176.46,282.102482607
176.462,282.099922261
176.477,282.080690007
176.492,282.061405341
176.507,282.042068167
176.522,282.022678384
176.537,282.003235892
176.552,281.983740586
176.567,281.964192358
176.582,281.9445911
176.597,281.924936698
176.612,281.905229039
176.627,281.885468004
176.642,281.865653473
176.657,281.845785323
176.672,281.825863429
176.687,281.805887661
176.702,281.785857888
176.717,281.765773976
176.732,281.745635787
176.747,281.725443181
176.762,281.705196015
176.777,281.684894143
176.792,281.664537415
176.807,281.644125679
176.822,281.62365878
176.837,281.603136558
176.852,281.582558853
176.867,281.5619255
176.882,281.54123633
176.897,281.520491172
176.912,281.49968985
176.927,281.478832188
176.942,281.457918004
176.957,281.436947113
176.972,281.415919327
176.987,281.394834453
177.002,281.373692298
177.017,281.352492662
177.032,281.331235343
177.047,281.309920135
177.062,281.288546828
177.077,281.267115211
177.092,281.245625064
177.107,281.224076169
177.122,281.2024683
177.137,281.18080123
177.152,281.159074726
177.167,281.137288553
177.182,281.11544247
177.197,281.093536233
177.21,281.074501979
177.212,281.071569595
177.227,281.049542305
177.242,281.027454105
177.257,281.005304736
177.272,280.983093934
177.287,280.960821431
177.302,280.938486952
177.31,280.926549794
177.317,280.916090223
177.332,280.89363096
177.347,280.87110888
177.362,280.848523691
177.377,280.825875099
177.392,280.803162806
177.407,280.780386507
177.422,280.757545896
177.437,280.734640658
177.452,280.711670477
177.467,280.688635031
177.482,280.665533992
177.497,280.64236703
177.512,280.619133808
177.527,280.595833984
177.542,280.572467212
177.557,280.549033142
177.572,280.525531417
177.587,280.501961674
177.602,280.478323549
177.617,280.454616669
177.632,280.430840658
177.647,280.406995132
177.66,280.386272481
177.662,280.383079705
177.677,280.359093984
177.692,280.33503757
177.707,280.31091006
177.722,280.286711043
177.737,280.262440106
177.752,280.238096827
177.767,280.21368078
177.782,280.189191532
177.797,280.164628647
177.812,280.139991679
177.827,280.115280179
177.842,280.090493691
177.857,280.065631753
177.872,280.040693898
177.887,280.015679649
177.902,279.990588528
177.917,279.965420047
177.932,279.940173713
177.947,279.914849026
177.96,279.892837194
177.962,279.88944548
177.977,279.863962562
177.992,279.838399751
178.007,279.812756523
178.022,279.787032343
178.037,279.761226673
178.052,279.735338964
178.067,279.709368663
178.082,279.683315208
178.097,279.657178032
178.112,279.630956558
178.127,279.604650205
178.142,279.578258381
178.157,279.551780488
178.172,279.525215922
178.187,279.498564069
178.202,279.471824308
178.217,279.444996011
178.232,279.418078541
178.247,279.391071253
178.262,279.363973495
178.277,279.336784605
178.292,279.309503915
178.307,279.282130747
178.322,279.254664415
178.337,279.227104224
178.352,279.199449472
178.367,279.171699445
178.382,279.143853423
178.397,279.115910676
178.41,279.091614818
178.412,279.087870465
178.427,279.059732043
178.442,279.031494651
178.457,279.003157523
178.472,278.974719882
178.487,278.946180943
178.502,278.917539911
178.517,278.888795978
178.532,278.859948331
178.547,278.830996144
178.562,278.801938581
178.577,278.772774796
178.592,278.743503933
178.607,278.714125124
178.622,278.684637493
178.637,278.655040151
178.652,278.625332199
178.667,278.595512726
178.682,278.56558081
178.697,278.535535519
178.712,278.505375909
178.727,278.475101023
178.742,278.444709894
178.757,278.414201543
178.772,278.383574977
178.787,278.352829193
178.802,278.321963174
178.817,278.290975893
178.832,278.259866308
178.847,278.228633366
178.862,278.197275998
178.877,278.165793126
178.892,278.134183656
178.907,278.102446481
178.922,278.070580482
178.937,278.038584524
178.952,278.006457459
178.967,277.974198127
178.982,277.941805349
178.997,277.909277937
179.012,277.876614684
179.027,277.843814371
179.042,277.810875762
179.057,277.777797608
179.072,277.744578643
179.087,277.711217586
179.102,277.677713141
179.117,277.644063994
179.132,277.610268818
179.147,277.576326266
179.16,277.546789126
179.162,277.542234978
179.177,277.507993574
179.192,277.473600661
179.207,277.439054825
179.222,277.404354637
179.237,277.369498649
179.252,277.334485397
179.267,277.299313398
179.282,277.263981149
179.297,277.228487132
179.312,277.192829808
179.327,277.15700762
179.342,277.121018992
179.357,277.084862327
179.372,277.04853601
179.387,277.012038407
179.402,276.975367861
179.417,276.938522698
179.432,276.90150122
179.447,276.864301711
179.462,276.826922433
179.477,276.789361626
179.492,276.75161751
179.507,276.71368828
179.522,276.675572113
179.537,276.63726716
179.552,276.598771553
179.567,276.560083396
179.582,276.521200775
179.597,276.48212175
179.612,276.442844357
179.627,276.403366609
179.642,276.363686494
179.657,276.323801975
179.672,276.283710992
179.687,276.243411457
179.702,276.202901259
179.717,276.16217826
179.732,276.121240297
179.747,276.080085178
179.762,276.038710688
179.777,275.997114583
179.792,275.955294591
179.807,275.913248414
179.822,275.870973726
179.837,275.828468171
179.852,275.785729367
179.867,275.742754902
179.882,275.699542334
179.897,275.656089193
179.91,275.618233276
179.912,275.612392979
179.927,275.568451161
179.942,275.524261179
179.957,275.47982044
179.972,275.435126322
179.987,275.390176172
180.002,275.344967304
180.017,275.299497
180.032,275.25376251
180.047,275.207761051
180.062,275.161489809
180.077,275.114945934
180.092,275.068126543
180.107,275.021028721
180.122,274.973649516
180.137,274.925985943
180.152,274.878034982
180.167,274.829793577
180.182,274.781258638
180.197,274.732427036
180.212,274.683295611
180.227,274.63386116
180.242,274.584120449
180.257,274.534070204
180.272,274.483707113
180.287,274.433027828
180.302,274.382028962
180.317,274.330707089
180.332,274.279058746
180.347,274.22708043
180.362,274.174768599
180.377,274.122119672
180.392,274.069130026
180.407,274.015796
180.422,273.962113892
180.437,273.90807996
180.452,273.85369042
180.467,273.798941447
180.482,273.743829176
180.497,273.688349697
180.512,273.632499062
180.527,273.576273279
180.542,273.519668312
180.557,273.462680084
180.56,273.451236086
180.572,273.405304477
180.587,273.347537326
180.602,273.289374425
180.617,273.230811524
180.632,273.171844329
180.647,273.112468503
180.66,273.060675531
180.662,273.052679665
180.677,272.992473387
180.692,272.9318452
180.707,272.870790589
180.722,272.809304995
180.737,272.747383811
180.752,272.68502239
180.767,272.622216036
180.782,272.55896001
180.797,272.495249525
180.812,272.431079751
180.827,272.366445812
180.842,272.301342786
180.857,272.235765704
180.872,272.169709553
180.887,272.103169275
180.902,272.036139763
180.917,271.968615866
180.932,271.900592387
180.947,271.832064082
180.962,271.763025663
180.977,271.693471793
180.992,271.623397092
181.007,271.552796132
181.022,271.481663439
181.037,271.409993493
181.052,271.337780729
181.067,271.265019536
181.082,271.191704254
181.097,271.117829182
181.112,271.043388568
181.127,270.968376617
181.142,270.892787488
181.157,270.816615293
181.172,270.739854098
181.187,270.662497926
181.202,270.58454075
181.217,270.5059765
181.232,270.42679906
181.247,270.347002266
181.262,270.266579912
181.277,270.185525742
181.292,270.103833458
181.307,270.021496713
181.31,270.004951467
181.322,269.938509115
181.337,269.854864228
181.352,269.770555568
181.367,269.685576604
181.382,269.599920761
181.397,269.513581416
181.412,269.426551899
181.427,269.338825495
181.442,269.250395441
181.457,269.161254925
181.472,269.071397091
181.487,268.980815032
181.502,268.889501794
181.517,268.797450374
181.532,268.70465372
181.547,268.61110473
181.562,268.516796253
181.577,268.421721086
181.592,268.325871975
181.607,268.229241614
181.622,268.131822645
181.637,268.033607654
181.652,267.934589175
181.667,267.834759686
181.682,267.734111607
181.697,267.632637303
181.712,267.530329078
181.727,267.427179177
181.742,267.323179784
181.757,267.218323019
181.772,267.11260094
181.787,267.006005538
181.802,266.898528735
181.817,266.790162387
181.832,266.680898275
181.847,266.570728109
181.862,266.459643522
181.877,266.347636071
181.892,266.23469723
181.907,266.120818392
181.922,266.005990863
181.937,265.890205859
181.952,265.773454506
181.967,265.655727831
181.982,265.537016764
181.997,265.41731213
182.012,265.296604645
182.027,265.174884912
182.042,265.052143417
182.057,264.928370521
182.06,264.903491316
182.072,264.803556454
182.087,264.677691309
182.102,264.550765035
182.117,264.422767427
182.132,264.293688117
182.147,264.163516566
182.162,264.032242048
182.177,263.899853643
182.192,263.766340216
182.207,263.631690408
182.222,263.495892611
182.237,263.358934953
182.252,263.22080527
182.267,263.081491084
182.282,262.94097957
182.297,262.799257524
182.312,262.656311322
182.327,262.512126878
182.342,262.366689591
182.357,262.21998429
182.372,262.071995166
182.387,261.922705698
182.402,261.772098562
182.417,261.620155535
182.432,261.466857379
182.447,261.312183707
182.462,261.156112835
182.477,260.998621602
182.492,260.83968517
182.507,260.679276791
182.522,260.517367537
182.537,260.35392599
182.552,260.188917877
182.567,260.02230566
182.582,259.854048044
182.597,259.684099425
182.612,259.512409229
182.627,259.338921159
182.642,259.163572314
182.657,258.986292157
182.672,258.807001316
182.687,258.62561018
182.702,258.442017258
182.717,258.256107252
182.732,258.067748794
182.747,257.876791784
182.762,257.683064253
182.777,257.486368651
182.792,257.286477458
182.807,257.083127971
182.822,256.876016106
182.837,256.664788998
182.852,256.449036156
182.867,256.228278855
182.882,256.001957364
182.897,255.769415546
182.912,255.529882204
182.927,255.282448427
182.942,255.026039972
182.957,254.759383494
182.972,254.480965094
182.987,254.188979272
183.002,253.881265858
183.017,253.555231855
183.032,253.207754332
183.047,252.835059551
183.062,252.432572397
183.077,251.994729011
183.092,251.514744499
183.107,250.984327316
183.122,250.393333568
183.137,249.729360656
183.152,248.977295568
183.167,248.118869287
183.182,247.132345725
183.197,245.992631558
183.212,244.672412752
183.227,243.145579957
183.242,241.395639478
183.257,239.435210896
183.367,239.924841756
183.382,241.830122501
183.397,243.517538127
183.412,244.984690018
183.427,246.25170323
183.442,247.345465861
183.457,248.292880831
183.472,249.118201172
183.487,249.842238417
183.502,250.482398864
183.517,251.053046097
183.532,251.565954862
183.547,252.030753086
183.562,252.455312541
183.577,252.846078217
183.592,253.208339138
183.607,253.546448081
183.622,253.863998585
183.637,254.163967155
183.652,254.448827434
183.667,254.720641973
183.682,254.981136148
183.697,255.231757852
183.712,255.47372586
183.727,255.70806913
183.742,255.935658863
183.757,256.157234744
183.772,256.373426484
183.787,256.584771576
183.802,256.791729978
183.817,256.994696284
183.832,257.194009851
183.847,257.389963257
183.862,257.582809362
183.877,257.772767252
183.892,257.960027219
183.907,258.144754976
183.922,258.327095208
183.937,258.507174587
183.952,258.685104323
183.967,258.860982343
183.982,259.034895136
183.997,259.206919336
184.012,259.37712307
184.027,259.545567112
184.042,259.712305879
184.057,259.877388271
184.072,260.040858409
184.087,260.202756261
184.102,260.363118179
184.117,260.521977371
184.132,260.679364299
184.147,260.835307027
184.162,260.989831525
184.177,261.142961923
184.192,261.294720741
184.207,261.445129079
184.222,261.594206791
184.237,261.741972627
184.252,261.888444365
184.267,262.033638915
184.282,262.177572423
184.297,262.320260348
184.312,262.46171754
184.327,262.601958299
184.342,262.740996433
184.357,262.878845308
184.372,263.015517886
184.387,263.151026765
184.402,263.285384212
184.417,263.418602189
184.432,263.550692379
184.447,263.681666212
184.462,263.811534877
184.477,263.940309344
184.492,264.068000381
184.507,264.194618561
184.522,264.320174282
184.537,264.444677771
184.552,264.568139099
184.56,264.633562442
184.567,264.690568184
184.582,264.811974804
184.597,264.932368602
184.612,265.051759093
184.627,265.170155667
184.642,265.287567597
184.657,265.404004047
184.672,265.519474067
184.687,265.633986608
184.702,265.747550518
184.717,265.86017455
184.732,265.971867363
184.747,266.082637525
184.762,266.192493517
184.777,266.301443736
184.792,266.409496496
184.807,266.516660032
184.822,266.6229425
184.837,266.728351982
184.852,266.832896486
184.867,266.936583947
184.882,267.039422231
184.897,267.141419138
184.912,267.242582397
184.927,267.342919675
184.942,267.442438575
184.957,267.541146636
184.972,267.639051336
184.987,267.736160095
185.002,267.832480272
185.017,267.928019169
185.032,268.022784031
185.047,268.116782046
185.062,268.210020349
185.077,268.302506019
185.092,268.394246083
185.107,268.485247513
185.122,268.57551723
185.137,268.665062104
185.152,268.753888953
185.167,268.842004546
185.182,268.929415601
185.197,269.016128787
185.212,269.102150722
185.227,269.187487979
185.242,269.272147079
185.257,269.356134498
185.272,269.439456662
185.287,269.522119952
185.302,269.604130698
185.31,269.647605118
185.317,269.685495188
185.332,269.76621966
185.347,269.846310306
185.362,269.925773272
185.377,270.004614658
185.392,270.082840517
185.407,270.160456857
185.422,270.23746964
185.437,270.313884782
185.452,270.389708154
185.467,270.46494558
185.482,270.53960284
185.497,270.613685668
185.512,270.687199752
185.527,270.760150736
185.542,270.832544219
185.557,270.904385752
185.572,270.975680845
185.587,271.046434958
185.602,271.116653512
185.617,271.186341877
185.632,271.255505381
185.647,271.324149308
185.662,271.392278896
185.677,271.459899338
185.692,271.527015782
185.707,271.593633332
185.722,271.659757048
185.737,271.725391944
185.752,271.790542991
185.767,271.855215114
185.782,271.919413195
185.797,271.983142072
185.812,272.046406538
185.827,272.109211342
185.842,272.17156119
185.857,272.233460744
185.872,272.294914622
185.887,272.355927398
185.902,272.416503603
185.917,272.476647725
185.932,272.53636421
185.947,272.595657458
185.96,272.646705959
185.962,272.654531829
185.977,272.71299164
185.992,272.771041164
186.007,272.828684632
186.022,272.885926235
186.037,272.94277012
186.052,272.999220392
186.06,273.029167665
186.067,273.055281117
186.082,273.110956316
186.097,273.166249972
186.112,273.221166026
186.127,273.275708378
186.142,273.329880888
186.157,273.383687375
186.172,273.43713162
186.187,273.490217361
186.202,273.542948299
186.217,273.595328097
186.232,273.647360374
186.247,273.699048716
186.262,273.750396666
186.277,273.801407731
186.292,273.852085381
186.307,273.902433046
186.322,273.95245412
186.337,274.00215196
186.352,274.051529884
186.367,274.100591177
186.382,274.149339085
186.397,274.197776819
186.412,274.245907554
186.427,274.29373443
186.442,274.341260552
186.457,274.38848899
186.472,274.435422778
186.487,274.482064919
186.502,274.528418378
186.517,274.574486091
186.532,274.620270957
186.547,274.665775844
186.562,274.711003585
186.577,274.755956984
186.592,274.80063881
186.607,274.845051802
186.622,274.889198667
186.637,274.933082079
186.652,274.976704685
186.667,275.020069097
186.682,275.0631779
186.697,275.106033648
186.71,275.142972555
186.712,275.148638865
186.727,275.190996046
186.742,275.233107656
186.757,275.274976133
186.772,275.316603885
186.787,275.357993293
186.802,275.399146709
186.817,275.440066458
186.832,275.480754838
186.847,275.521214119
186.862,275.561446545
186.877,275.601454335
186.892,275.641239678
186.907,275.680804742
186.922,275.720151666
186.937,275.759282564
186.952,275.798199528
186.967,275.836904621
186.982,275.875399885
186.997,275.913687335
187.012,275.951768966
187.027,275.989646745
187.042,276.02732262
187.057,276.064798511
187.072,276.10207632
187.087,276.139157924
187.102,276.176045177
187.117,276.212739914
187.132,276.249243945
187.147,276.28555906
187.162,276.321687028
187.177,276.357629597
187.192,276.393388494
187.207,276.428965424
187.222,276.464362075
187.237,276.499580112
187.252,276.534621181
187.267,276.569486911
187.282,276.604178908
187.297,276.63869876
187.312,276.673048038
187.327,276.707228293
187.342,276.741241057
187.357,276.775087846
187.372,276.808770154
187.387,276.842289463
187.402,276.875647232
187.417,276.908844906
187.432,276.941883913
187.447,276.974765662
187.46,277.003137051
187.462,277.007491546
187.477,277.040062944
187.492,277.072481216
187.507,277.104747706
187.522,277.136863744
187.537,277.168830642
187.552,277.200649699
187.567,277.232322198
187.582,277.263849405
187.597,277.295232573
187.612,277.326472941
187.627,277.35757173
187.642,277.388530151
187.657,277.419349399
187.672,277.450030653
187.687,277.48057508
187.702,277.510983835
187.717,277.541258057
187.732,277.571398873
187.747,277.601407395
187.762,277.631284725
187.777,277.661031949
187.792,277.690650143
187.807,277.720140368
187.822,277.749503676
187.837,277.778741103
187.852,277.807853676
187.867,277.836842408
187.882,277.865708302
187.897,277.894452347
187.912,277.923075523
187.927,277.951578798
187.942,277.979963128
187.957,278.008229458
187.972,278.036378723
187.987,278.064411847
188.002,278.092329743
188.017,278.120133313
188.032,278.14782345
188.047,278.175401036
188.062,278.202866942
188.077,278.230222031
188.092,278.257467154
188.107,278.284603153
188.122,278.311630862
188.137,278.338551103
188.152,278.365364689
188.167,278.392072426
188.182,278.418675108
188.197,278.445173522
188.21,278.468055073
188.212,278.471568444
188.227,278.497860644
188.242,278.524050879
188.257,278.550139903
188.272,278.576128456
188.287,278.602017274
188.302,278.627807081
188.317,278.653498595
188.332,278.679092526
188.347,278.704589575
188.362,278.729990436
188.377,278.755295793
188.392,278.780506325
188.407,278.805622703
188.422,278.830645588
188.437,278.855575636
188.452,278.880413495
188.467,278.905159805
188.482,278.929815201
188.497,278.954380308
188.512,278.978855745
188.527,279.003242125
188.542,279.027540053
188.557,279.051750128
188.572,279.075872943
188.587,279.099909082
188.602,279.123859124
188.617,279.147723643
188.632,279.171503203
188.647,279.195198365
188.66,279.215666331
188.662,279.218809681
188.677,279.242337701
188.692,279.265782964
188.707,279.289146007
188.722,279.312427358
