# 10410 EDZE Essen Observations at 12Z 21 Jan 2019
Frequency [GHz],TB
175.31,234.743936004
175.322,234.818033792
175.337,234.910787466
175.352,235.003686507
175.367,235.096730176
175.382,235.18991772
175.397,235.28324837
175.412,235.376721345
175.427,235.470335846
175.442,235.564091064
175.457,235.657986168
175.472,235.752020317
175.487,235.846192653
175.502,235.940502303
175.517,236.034948377
175.532,236.129529969
175.547,236.22424616
175.562,236.31909601
175.577,236.414078568
175.592,236.509192861
175.607,236.604437905
175.622,236.699812694
175.637,236.795316207
175.652,236.890947406
175.667,236.986705239
175.682,237.082588629
175.697,237.178596489
175.712,237.274727706
175.727,237.37098116
175.742,237.467355702
175.757,237.563850171
175.772,237.660463386
175.787,237.757194145
175.802,237.854041233
175.817,237.951003407
175.832,238.048079415
175.847,238.145267979
175.862,238.242567801
175.877,238.339977568
175.892,238.437495944
175.907,238.535121573
175.922,238.632853081
175.937,238.730689068
175.952,238.828628122
175.967,238.926668801
175.982,239.02480965
175.997,239.123049188
176.012,239.221385913
176.027,239.319818306
176.042,239.418344818
176.057,239.516963888
176.072,239.615673925
176.087,239.714473321
176.102,239.813360441
176.117,239.912333633
176.132,240.011391216
176.147,240.110531492
176.162,240.209752735
176.177,240.3090532
176.192,240.408431114
176.207,240.507884685
176.222,240.607412093
176.237,240.707011497
176.252,240.806681031
176.267,240.906418804
176.282,241.006222899
176.297,241.106091378
176.31,241.192694619
176.312,241.206022274
176.327,241.306013601
176.342,241.40606334
176.357,241.506169449
176.372,241.606329866
176.387,241.706542495
176.402,241.80680522
176.417,241.907115894
176.432,242.007472348
176.447,242.107872384
176.46,242.194919283
176.462,242.208313778
176.477,242.308794278
176.492,242.409311608
176.507,242.509863461
176.522,242.610447503
176.537,242.711061377
176.552,242.811702692
176.567,242.912369033
176.582,243.013057955
176.597,243.113766987
176.612,243.214493628
176.627,243.315235347
176.642,243.415989585
176.657,243.516753758
176.672,243.617525249
176.687,243.718301411
176.702,243.81907957
176.717,243.91985702
176.732,244.020631028
176.747,244.121398833
176.762,244.222157636
176.777,244.322904615
176.792,244.423636916
176.807,244.524351653
176.822,244.62504591
176.837,244.725716745
176.852,244.826361175
176.867,244.926976196
176.882,245.027558768
176.897,245.128105819
176.912,245.228614248
176.927,245.329080924
176.942,245.429502678
176.957,245.529876316
176.972,245.630198609
176.987,245.730466298
177.002,245.830676088
177.017,245.930824656
177.032,246.030908645
177.047,246.130924666
177.062,246.230869298
177.077,246.330739083
177.092,246.430530541
177.107,246.530240148
177.122,246.629864352
177.137,246.729399569
177.152,246.828842183
177.167,246.928188541
177.182,247.02743496
177.197,247.126577724
177.21,247.212414708
177.212,247.225613082
177.227,247.324537251
177.242,247.423346417
177.257,247.522036729
177.272,247.620604306
177.287,247.719045233
177.302,247.817355557
177.31,247.869732956
177.317,247.915531301
177.332,248.013568447
177.347,248.111462948
177.362,248.209210722
177.377,248.306807655
177.392,248.404249597
177.407,248.501532369
177.422,248.598651757
177.437,248.695603513
177.452,248.792383358
177.467,248.888986978
177.482,248.985410029
177.497,249.081648131
177.512,249.177696875
177.527,249.273551817
177.542,249.36920848
177.557,249.464662357
177.572,249.559908907
177.587,249.654943558
177.602,249.749761705
177.617,249.844358714
177.632,249.938729915
177.647,250.032870609
177.66,250.114269103
177.662,250.126776069
177.677,250.22044153
177.692,250.313862201
177.707,250.40703326
177.722,250.499949853
177.737,250.592607098
177.752,250.685000079
177.767,250.777123854
177.782,250.868973453
177.797,250.96054387
177.812,251.051830079
177.827,251.142827019
177.842,251.233529602
177.857,251.323932712
177.872,251.41403121
177.887,251.503819922
177.902,251.593293654
177.917,251.682447179
177.932,251.77127525
177.947,251.859772593
177.96,251.936198668
177.962,251.947933904
177.977,252.035753858
177.992,252.123227106
178.007,252.210348274
178.022,252.297111964
178.037,252.383512755
178.052,252.469545203
178.067,252.555203845
178.082,252.64048319
178.097,252.725377733
178.112,252.809881945
178.127,252.893990278
178.142,252.977697162
178.157,253.060997014
178.172,253.143884226
178.187,253.226353177
178.202,253.308398229
178.217,253.390013724
178.232,253.471193994
178.247,253.551933352
178.262,253.632226098
178.277,253.712066519
178.292,253.791448888
178.307,253.870367468
178.322,253.94881651
178.337,254.026790253
178.352,254.104282928
178.367,254.181288759
178.382,254.257801955
178.397,254.333816727
178.41,254.399288543
178.412,254.409327274
178.427,254.48432779
178.442,254.558812467
178.457,254.632775491
178.472,254.706211046
178.487,254.779113314
178.502,254.851476478
178.517,254.923294719
178.532,254.994562219
178.547,255.065273164
178.562,255.135421744
178.577,255.205002148
178.592,255.274008576
178.607,255.342435232
178.622,255.410276328
178.637,255.477526083
178.652,255.544178729
178.667,255.610228504
178.682,255.675669663
178.697,255.740496472
178.712,255.804703208
178.727,255.86828417
178.742,255.931233668
178.757,255.993546033
178.772,256.055215613
178.787,256.116236779
178.802,256.176603922
178.817,256.236311457
178.832,256.295353819
178.847,256.353725476
178.862,256.411420916
178.877,256.468434658
178.892,256.52476125
178.907,256.580395273
178.922,256.635331335
178.937,256.689564083
178.952,256.743088195
178.967,256.795898388
178.982,256.847989414
178.997,256.899356066
179.012,256.949993177
179.027,256.999895621
179.042,257.049058317
179.057,257.097476226
179.072,257.145144358
179.087,257.19205777
179.102,257.238211565
179.117,257.2836009
179.132,257.328220983
179.147,257.372067074
179.16,257.409437324
179.162,257.415134488
179.177,257.457418599
179.192,257.498914835
179.207,257.539618682
179.222,257.579525695
179.237,257.618631479
179.252,257.656931711
179.267,257.694422131
179.282,257.731098543
179.297,257.76695682
179.312,257.801992906
179.327,257.836202811
179.342,257.869582621
179.357,257.902128493
179.372,257.933836659
179.387,257.964703429
179.402,257.994725187
179.417,258.023898397
179.432,258.052219604
179.447,258.079685434
179.462,258.106292592
179.477,258.132037874
179.492,258.156918153
179.507,258.180930393
179.522,258.204071646
179.537,258.226339049
179.552,258.247729832
179.567,258.268241315
179.582,258.287870909
179.597,258.306616119
179.612,258.324474544
179.627,258.341443879
179.642,258.357521912
179.657,258.372706531
179.672,258.386995723
179.687,258.40038757
179.702,258.412880256
179.717,258.424472066
179.732,258.435161386
179.747,258.444946702
179.762,258.453826604
179.777,258.461799786
179.792,258.468865046
179.807,258.475021286
179.822,258.480267512
179.837,258.484602837
179.852,258.488026478
179.867,258.490537761
179.882,258.492136116
179.897,258.492821081
179.91,258.492675609
179.912,258.492592301
179.927,258.491449527
179.942,258.489392621
179.957,258.486421547
179.972,258.482536381
179.987,258.477737305
180.002,258.472024605
180.017,258.465398679
180.032,258.457860029
180.047,258.449409265
180.062,258.4400471
180.077,258.429774357
180.092,258.418591963
180.107,258.406500947
180.122,258.393502445
180.137,258.379597697
180.152,258.364788045
180.167,258.349074931
180.182,258.332459901
180.197,258.314944601
180.212,258.296530774
180.227,258.277220264
180.242,258.257015011
180.257,258.235917053
180.272,258.213928518
180.287,258.191051632
180.302,258.167288713
180.317,258.142642168
180.332,258.117114494
180.347,258.090708276
180.362,258.063426186
180.377,258.035270979
180.392,258.006245495
180.407,257.976352653
180.422,257.945595453
180.437,257.913976972
180.452,257.881500362
180.467,257.848168851
180.482,257.813985734
180.497,257.778954381
180.512,257.743078225
180.527,257.706360767
180.542,257.66880557
180.557,257.630416257
180.56,257.622638624
180.572,257.591196512
180.587,257.551150072
180.602,257.510280732
180.617,257.468592333
180.632,257.42608877
180.647,257.382773982
180.66,257.344581385
180.662,257.338651952
180.677,257.293726706
180.692,257.248002308
180.707,257.201482858
180.722,257.154172492
180.737,257.106075375
180.752,257.057195702
180.767,257.007537694
180.782,256.957105597
180.797,256.905903674
180.812,256.853936211
180.827,256.801207507
180.842,256.747721874
180.857,256.693483639
180.872,256.63849713
180.887,256.582766687
180.902,256.526296649
180.917,256.469091359
180.932,256.411155155
180.947,256.352492373
180.962,256.293107342
180.977,256.233004381
180.992,256.172187798
181.007,256.110661891
181.022,256.048430936
181.037,255.985499198
181.052,255.921870919
181.067,255.857550319
181.082,255.792541595
181.097,255.72684892
181.112,255.660476439
181.127,255.593428268
181.142,255.525708493
181.157,255.457321167
181.172,255.388270312
181.187,255.318559916
181.202,255.248193929
181.217,255.177176265
181.232,255.105510804
181.247,255.033201384
181.262,254.960251806
181.277,254.886665831
181.292,254.81244718
181.307,254.737599536
181.31,254.72255485
181.322,254.662126541
181.337,254.586031795
181.352,254.509318862
181.367,254.431991264
181.382,254.354052485
181.397,254.275505973
181.412,254.196355135
181.427,254.116603347
181.442,254.036253947
181.457,253.955310241
181.472,253.873775504
181.487,253.791652981
181.502,253.70894589
181.517,253.625657425
181.532,253.541790757
181.547,253.457349037
181.562,253.372335401
181.577,253.28675297
181.592,253.200604857
181.607,253.11389417
181.622,253.026624014
181.637,252.938797497
181.652,252.850417734
181.667,252.761487853
181.682,252.672010999
181.697,252.581990341
181.712,252.491429075
181.727,252.400330433
181.742,252.308697688
181.757,252.21653416
181.772,252.123843226
181.787,252.030628323
181.802,251.936892959
181.817,251.842640719
181.832,251.747875276
181.847,251.652600398
181.862,251.556819953
181.877,251.460537928
181.892,251.363758429
181.907,251.266485697
181.922,251.168724115
181.937,251.07047822
181.952,250.971752717
181.967,250.872552484
181.982,250.772882589
181.997,250.6727483
182.012,250.572155097
182.027,250.471108685
182.042,250.369615006
182.057,250.267680256
182.06,250.24724094
182.072,250.16531089
182.087,250.062513645
182.102,249.959295547
182.117,249.855663927
182.132,249.751626434
182.147,249.64719105
182.162,249.542366102
182.177,249.437160278
182.192,249.331582638
182.207,249.225642627
182.222,249.119350091
182.237,249.012715283
182.252,248.905748883
182.267,248.798462001
182.282,248.690866192
182.297,248.58297346
182.312,248.474796272
182.327,248.366347557
182.342,248.257640715
182.357,248.148689616
182.372,248.039508603
182.387,247.930112484
182.402,247.820516529
182.417,247.710736459
182.432,247.600788431
182.447,247.49068902
182.462,247.380455194
182.477,247.270104283
182.492,247.159653939
182.507,247.049122096
182.522,246.938526908
182.537,246.827886687
182.552,246.717219825
182.567,246.606544705
182.582,246.495879591
182.597,246.385242507
182.612,246.274651096
182.627,246.164122449
182.642,246.053672916
182.657,245.943317885
182.672,245.833071525
182.687,245.722946492
182.702,245.612953589
182.717,245.503101376
182.732,245.393395716
182.747,245.283839252
182.762,245.174430806
182.777,245.065164677
182.792,244.956029828
182.807,244.847008941
182.822,244.73807731
182.837,244.629201553
182.852,244.520338083
182.867,244.411431323
182.882,244.302411575
182.897,244.193192491
182.912,244.083668037
182.927,243.973708849
182.942,243.863157801
182.957,243.751824615
182.972,243.639479223
182.987,243.525843553
183.002,243.410581262
183.017,243.293284802
183.032,243.17345895
183.047,243.050499629
183.062,242.923666364
183.077,242.792046009
183.092,242.654504392
183.107,242.509620887
183.122,242.35559856
183.137,242.190138661
183.152,242.010262095
183.167,241.812050432
183.182,241.590262339
183.197,241.337754422
183.212,241.044596369
183.227,240.696739227
183.242,240.274222491
183.257,239.750001231
183.367,239.876269949
183.382,240.367618326
183.397,240.764772248
183.412,241.093032913
183.427,241.370675541
183.442,241.610544676
183.457,241.821754414
183.472,242.010893929
183.487,242.182821717
183.502,242.341186266
183.517,242.488772457
183.532,242.627736685
183.547,242.75976976
183.562,242.886211977
183.577,243.008135851
183.592,243.126406608
183.607,243.24172706
183.622,243.354671371
183.637,243.465710785
183.652,243.575233464
183.667,243.683559958
183.682,243.790955386
183.697,243.897639122
183.712,244.003792571
183.727,244.109565454
183.742,244.215080934
183.757,244.320439827
183.772,244.425724077
183.787,244.530999657
183.802,244.636318982
183.817,244.741722948
183.832,244.847242649
183.847,244.95290084
183.862,245.058713171
183.877,245.16468926
183.892,245.270833593
183.907,245.377146314
183.922,245.483623897
183.937,245.59025973
183.952,245.697044617
183.967,245.803967217
183.982,245.911014421
183.997,246.018171681
184.012,246.125423294
184.027,246.23275265
184.042,246.340142448
184.057,246.447574877
184.072,246.555031782
184.087,246.6624948
184.102,246.76994548
184.117,246.877365387
184.132,246.984736189
184.147,247.09203973
184.162,247.199258097
184.177,247.306373672
184.192,247.413369177
184.207,247.520227709
184.222,247.626932771
184.237,247.733468297
184.252,247.839818669
184.267,247.945968731
184.282,248.051903801
184.297,248.157609672
184.312,248.263072621
184.327,248.368279408
184.342,248.47321727
184.357,248.577873921
184.372,248.682237547
184.387,248.786296795
184.402,248.890040768
184.417,248.993459012
184.432,249.096541509
184.447,249.199278663
184.462,249.301661291
184.477,249.403680608
184.492,249.505328213
184.507,249.606596083
184.522,249.70747655
184.537,249.807962296
184.552,249.908046335
184.56,249.961257922
184.567,250.007722001
184.582,250.106982936
184.597,250.205823072
184.612,250.304236627
184.627,250.40221808
184.642,250.499762171
184.657,250.596863877
184.672,250.69351841
184.687,250.789721196
184.702,250.88546787
184.717,250.980754263
184.732,251.075576386
184.747,251.169930428
184.762,251.263812739
184.777,251.35721982
184.792,251.450148319
184.807,251.542595012
184.822,251.634556805
184.837,251.726030716
184.852,251.817013869
184.867,251.907503491
184.882,251.997496895
184.897,252.08699148
184.912,252.17598472
184.927,252.264474159
184.942,252.352457401
184.957,252.439932109
184.972,252.526895994
184.987,252.613346811
185.002,252.699282353
185.017,252.784700448
185.032,252.86959895
185.047,252.953975739
185.062,253.037828711
185.077,253.121155778
185.092,253.203954864
185.107,253.286223898
185.122,253.367960813
185.137,253.449163543
185.152,253.529830017
185.167,253.609958159
185.182,253.689545885
185.197,253.7685911
185.212,253.847091694
185.227,253.925045542
185.242,254.002450501
185.257,254.079304412
185.272,254.15560509
185.287,254.231350332
185.302,254.306537909
185.31,254.346409151
185.317,254.38116557
185.332,254.455231034
185.347,254.528731999
185.362,254.601666132
185.377,254.674031073
185.392,254.745824437
185.407,254.817043808
185.422,254.887686742
185.437,254.957750768
185.452,255.027233384
185.467,255.096132064
185.482,255.164444251
185.497,255.232167363
185.512,255.299298789
185.527,255.365835893
185.542,255.431776015
185.557,255.497116467
185.572,255.561854539
185.587,255.6259875
185.602,255.689512594
185.617,255.752427045
185.632,255.81472806
185.647,255.876412824
185.662,255.937478508
185.677,255.997922264
185.692,256.057741234
185.707,256.116932543
185.722,256.175493307
185.737,256.233420632
185.752,256.290711615
185.767,256.347363347
185.782,256.403372914
185.797,256.458737398
185.812,256.51345388
185.827,256.567519442
185.842,256.620931167
185.857,256.673686141
185.872,256.725781458
185.887,256.777214216
185.902,256.827981526
185.917,256.878080508
185.932,256.927508294
185.947,256.976262033
185.96,257.017967851
185.962,257.024338888
185.977,257.071736044
185.992,257.118450702
186.007,257.164480089
186.022,257.209821454
186.037,257.254472072
186.052,257.298429246
186.06,257.321588608
186.067,257.341690309
186.082,257.384252624
186.097,257.426113588
186.112,257.467270632
186.127,257.507721225
186.142,257.547462872
186.157,257.586493121
186.172,257.624809559
186.187,257.662409817
186.202,257.699291571
186.217,257.735452544
186.232,257.770890506
186.247,257.805603277
186.262,257.839588728
186.277,257.872844783
186.292,257.905369419
186.307,257.937160668
186.322,257.96821662
186.337,257.998535423
186.352,258.028115281
186.367,258.056954463
186.382,258.085051296
186.397,258.112404172
186.412,258.139011546
186.427,258.164871937
186.442,258.189983932
186.457,258.214346183
186.472,258.237957412
186.487,258.260816407
186.502,258.282922027
186.517,258.304273203
186.532,258.324868935
186.547,258.344708295
186.562,258.36379043
186.577,258.382114556
186.592,258.399679968
186.607,258.416486031
186.622,258.432532186
186.637,258.447817951
186.652,258.462342918
186.667,258.476106757
186.682,258.489109211
186.697,258.501350103
186.71,258.511342778
186.712,258.512829333
186.727,258.523546876
186.742,258.533502784
186.757,258.54269719
186.772,258.551130302
186.787,258.558802406
186.802,258.565713865
186.817,258.571865121
186.832,258.577256693
186.847,258.581889177
186.862,258.585763247
186.877,258.588879652
186.892,258.59123922
186.907,258.592842857
186.922,258.593691541
186.937,258.593786329
186.952,258.593128354
186.967,258.591718823
186.982,258.589559018
186.997,258.586650296
187.012,258.582994087
187.027,258.578591896
187.042,258.5734453
187.057,258.567555948
187.072,258.560925563
187.087,258.553555936
187.102,258.54544893
187.117,258.536606478
187.132,258.527030585
187.147,258.516723318
187.162,258.505686818
187.177,258.49392329
187.192,258.481435007
187.207,258.468224306
187.222,258.45429359
187.237,258.439645324
187.252,258.424282039
187.267,258.408206326
187.282,258.391420838
187.297,258.37392829
187.312,258.355731453
187.327,258.33683316
187.342,258.317236301
187.357,258.296943822
187.372,258.275958728
187.387,258.254284074
187.402,258.231922972
187.417,258.208878587
187.432,258.185154136
187.447,258.160752887
187.46,258.139060246
187.462,258.135678158
187.477,258.109933315
187.492,258.083521775
187.507,258.056446999
187.522,258.028712496
187.537,258.000321821
187.552,257.971278569
187.567,257.941586382
187.582,257.911248944
187.597,257.880269978
187.612,257.848653248
187.627,257.816402556
187.642,257.783521745
187.657,257.750014691
187.672,257.715885306
187.687,257.681137544
187.702,257.645775383
187.717,257.60980284
187.732,257.573223963
187.747,257.536042829
187.762,257.498263548
187.777,257.459890255
187.792,257.420927116
187.807,257.381378323
187.822,257.341248093
187.837,257.300540669
187.852,257.259260319
187.867,257.21741133
187.882,257.174998016
187.897,257.132024709
187.912,257.088495763
187.927,257.044415549
187.942,256.999788459
187.957,256.9546189
187.972,256.908911296
187.987,256.862670088
188.002,256.815899731
188.017,256.768604694
188.032,256.720789456
188.047,256.672458513
188.062,256.623616368
188.077,256.574267537
188.092,256.524416546
188.107,256.474067925
188.122,256.423226218
188.137,256.371895972
188.152,256.320081742
188.167,256.267788088
188.182,256.215019576
188.197,256.161780771
188.21,256.115263595
188.212,256.108076248
188.227,256.053910581
188.242,255.999288345
188.257,255.944214118
188.272,255.888692478
188.287,255.832727999
188.302,255.776325259
188.317,255.719488833
188.332,255.66222329
188.347,255.6045332
188.362,255.546423128
188.377,255.487897634
188.392,255.428961272
188.407,255.369618594
188.422,255.309874143
188.437,255.249732455
188.452,255.18919806
188.467,255.128275479
188.482,255.066969223
188.497,255.0052838
188.512,254.943223701
188.527,254.880793412
188.542,254.817997405
188.557,254.754840143
188.572,254.691326079
188.587,254.627459648
188.602,254.563245279
188.617,254.498687384
188.632,254.433790362
188.647,254.368558601
188.66,254.31175702
188.662,254.302996471
188.677,254.237108329
188.692,254.170898517
188.707,254.104371361
188.722,254.03753117
188.737,253.970382239
