# 01004 ENAS Ny-Alesund Ii Observations at 12Z 04 Aug 2019
Frequency [GHz],TB
175.31,265.287000444
175.322,265.287471164
175.337,265.287886028
175.352,265.288107542
175.367,265.288135137
175.382,265.287968253
175.397,265.287606334
175.412,265.287048829
175.427,265.286295184
175.442,265.285344865
175.457,265.284197336
175.472,265.28285206
175.487,265.281308515
175.502,265.279566182
175.517,265.277624545
175.532,265.275483096
175.547,265.273141334
175.562,265.270598755
175.577,265.267854874
175.592,265.264909205
175.607,265.261761264
175.622,265.25841058
175.637,265.254856689
175.652,265.251099124
175.667,265.247137434
175.682,265.242971168
175.697,265.238599887
175.712,265.23402315
175.727,265.229240538
175.742,265.224251618
175.757,265.219055979
175.772,265.213653213
175.787,265.208042916
175.802,265.202224691
175.817,265.196198153
175.832,265.189962918
175.847,265.183518616
175.862,265.176864872
175.877,265.170001331
175.892,265.162927642
175.907,265.155643455
175.922,265.148148436
175.937,265.140442252
175.952,265.132524583
175.967,265.124395107
175.982,265.116053524
175.997,265.107499529
176.012,265.098732831
176.027,265.089753141
176.042,265.080560188
176.057,265.071153701
176.072,265.061533415
176.087,265.051699081
176.102,265.041650457
176.117,265.031387298
176.132,265.020909376
176.147,265.010216478
176.162,264.999308384
176.177,264.988184892
176.192,264.976845805
176.207,264.965290934
176.222,264.953520098
176.237,264.941533138
176.252,264.929329875
176.267,264.916910162
176.282,264.90427386
176.297,264.89142082
176.31,264.880106102
176.312,264.878350917
176.327,264.865064034
176.342,264.851560059
176.357,264.837838886
176.372,264.823900422
176.387,264.809744584
176.402,264.795371291
176.417,264.78078048
176.432,264.765972086
176.447,264.750946063
176.46,264.737747438
176.462,264.735702366
176.477,264.720240962
176.492,264.704561827
176.507,264.688664947
176.522,264.67255031
176.537,264.656217925
176.552,264.639667799
176.567,264.622899951
176.582,264.605914411
176.597,264.58871121
176.612,264.571290401
176.627,264.553652034
176.642,264.535796174
176.657,264.51772289
176.672,264.499432266
176.687,264.480924388
176.702,264.462199356
176.717,264.443257278
176.732,264.424098261
176.747,264.404722441
176.762,264.38512994
176.777,264.365320901
176.792,264.345295473
176.807,264.325053816
176.822,264.30459609
176.837,264.283922476
176.852,264.263033155
176.867,264.241928311
176.882,264.22060815
176.897,264.199072874
176.912,264.177322705
176.927,264.155357857
176.942,264.133178564
176.957,264.110785069
176.972,264.088177617
176.987,264.065356454
177.002,264.042321856
177.017,264.01907408
177.032,263.995613408
177.047,263.971940126
177.062,263.948054527
177.077,263.923956903
177.092,263.89964757
177.107,263.875126831
177.122,263.850395012
177.137,263.82545244
177.152,263.800299449
177.167,263.774936377
177.182,263.749363572
177.197,263.723581393
177.21,263.701067749
177.212,263.697590191
177.227,263.671390337
177.242,263.644982206
177.257,263.61836617
177.272,263.59154262
177.287,263.564511938
177.302,263.537274523
177.31,263.522663512
177.317,263.50983078
177.332,263.482181108
177.347,263.454325925
177.362,263.426265646
177.377,263.398000687
177.392,263.369531484
177.407,263.340858458
177.422,263.311982051
177.437,263.282902701
177.452,263.253620853
177.467,263.224136954
177.482,263.194451457
177.497,263.164564812
177.512,263.134477487
177.527,263.104189939
177.542,263.073702634
177.557,263.043016046
177.572,263.01213064
177.587,262.981046897
177.602,262.949765282
177.617,262.918286292
177.632,262.886610393
177.647,262.854738075
177.66,262.826956895
177.662,262.822669826
177.677,262.790406128
177.692,262.757947472
177.707,262.725294348
177.722,262.692447246
177.737,262.659406655
177.752,262.62617307
177.767,262.59274698
177.782,262.559128888
177.797,262.52531928
177.812,262.491318645
177.827,262.457127483
177.842,262.422746281
177.857,262.388175538
177.872,262.353415731
177.887,262.318467362
177.902,262.283330916
177.917,262.248006877
177.932,262.212495732
177.947,262.176797965
177.96,262.145709311
177.962,262.140914052
177.977,262.104844476
177.992,262.06858971
178.007,262.032150231
178.022,261.995526504
178.037,261.958718996
178.052,261.92172818
178.067,261.884554505
178.082,261.847198429
178.097,261.809660409
178.112,261.771940889
178.127,261.734040312
178.142,261.69595912
178.157,261.657697746
178.172,261.619256616
178.187,261.580636159
178.202,261.541836791
178.217,261.502858919
178.232,261.463702955
178.247,261.424369302
178.262,261.384858348
178.277,261.345170485
178.292,261.305306094
178.307,261.265265551
178.322,261.225049217
178.337,261.184657459
178.352,261.144090628
178.367,261.103349067
178.382,261.062433114
178.397,261.021343099
178.41,260.985591205
178.412,260.980079343
178.427,260.938642162
178.442,260.897031852
178.457,260.855248715
178.472,260.813293035
178.487,260.771165092
178.502,260.728865154
178.517,260.686393474
178.532,260.643750309
178.547,260.600935895
178.562,260.557950465
178.577,260.514794232
178.592,260.471467415
178.607,260.427970207
178.622,260.384302791
178.637,260.340465362
178.652,260.296458069
178.667,260.252281078
178.682,260.207934536
178.697,260.163418571
178.712,260.118733309
178.727,260.073878858
178.742,260.028855321
178.757,259.983662787
178.772,259.938301327
178.787,259.892771011
178.802,259.847071887
178.817,259.801203996
178.832,259.755167368
178.847,259.708962012
178.862,259.662587938
178.877,259.61604513
178.892,259.569333574
178.907,259.522453226
178.922,259.47540404
178.937,259.428185956
178.952,259.380798903
178.967,259.333242789
178.982,259.285517516
178.997,259.237622967
179.012,259.189559022
179.027,259.141325532
179.042,259.092922351
179.057,259.044349306
179.072,258.995606219
179.087,258.946692893
179.102,258.897609121
179.117,258.848354681
179.132,258.798929339
179.147,258.749332844
179.16,258.706210565
179.162,258.699564929
179.177,258.649625322
179.192,258.599513725
179.207,258.549229839
179.222,258.498773338
179.237,258.448143897
179.252,258.397341158
179.267,258.346364765
179.282,258.295214342
179.297,258.243889494
179.312,258.192389821
179.327,258.140714902
179.342,258.088864305
179.357,258.036837576
179.372,257.984634263
179.387,257.932253886
179.402,257.879695951
179.417,257.826959957
179.432,257.77404538
179.447,257.720951691
179.462,257.667678334
179.477,257.614224756
179.492,257.560590375
179.507,257.506774595
179.522,257.452776816
179.537,257.398596413
179.552,257.344232751
179.567,257.28968518
179.582,257.23495304
179.597,257.180035638
179.612,257.124932294
179.627,257.069642292
179.642,257.014164911
179.657,256.958499414
179.672,256.902645045
179.687,256.846601036
179.702,256.79036661
179.717,256.733940965
179.732,256.677323291
179.747,256.62051276
179.762,256.563508531
179.777,256.506309748
179.792,256.448915536
179.807,256.391325015
179.822,256.333537279
179.837,256.27555141
179.852,256.217366483
179.867,256.158981547
179.882,256.100395642
179.897,256.041607788
179.91,255.990494198
179.912,255.982616998
179.927,255.923422262
179.942,255.864022561
179.957,255.804416855
179.972,255.744604087
179.987,255.684583196
180.002,255.624353097
180.017,255.563912685
180.032,255.503260853
180.047,255.442396465
180.062,255.381318378
180.077,255.320025435
180.092,255.258516449
180.107,255.196790241
180.122,255.13484559
180.137,255.072681277
180.152,255.010296066
180.167,254.947688694
180.182,254.884857899
180.197,254.821802385
180.212,254.758520848
180.227,254.695011976
180.242,254.631274429
180.257,254.567306859
180.272,254.503107895
180.287,254.438676156
180.302,254.374010236
180.317,254.309108732
180.332,254.243970201
180.347,254.178593196
180.362,254.112976259
180.377,254.047117907
180.392,253.981016641
180.407,253.91467095
180.422,253.848079305
180.437,253.781240162
180.452,253.71415196
180.467,253.646813128
180.482,253.57922206
180.497,253.511377161
180.512,253.443276794
180.527,253.374919333
180.542,253.306303109
180.557,253.237426456
180.56,253.223619725
180.572,253.168287687
180.587,253.098885099
180.602,253.029216975
180.617,252.95928158
180.632,252.889077166
180.647,252.818601972
180.66,252.757303066
180.662,252.747854218
180.677,252.676832116
180.692,252.605533856
180.707,252.53395762
180.722,252.462101571
180.737,252.389963865
180.752,252.317542635
180.767,252.244836011
180.782,252.17184211
180.797,252.098559027
180.812,252.024984848
180.827,251.951117659
180.842,251.87695552
180.857,251.802496487
180.872,251.727738604
180.887,251.652679907
180.902,251.577318417
180.917,251.501652153
180.932,251.425679123
180.947,251.349397327
180.962,251.272804756
180.977,251.195899396
180.992,251.118679224
181.007,251.04114222
181.022,250.963286348
181.037,250.885109578
181.052,250.806609872
181.067,250.727785188
181.082,250.648633489
181.097,250.569152729
181.112,250.489340875
181.127,250.409195883
181.142,250.328715716
181.157,250.247898344
181.172,250.166741737
181.187,250.085243872
181.202,250.003402738
181.217,249.921216327
181.232,249.838682635
181.247,249.755799688
181.262,249.672565509
181.277,249.588978136
181.292,249.505035628
181.307,249.420736068
181.31,249.403833138
181.322,249.33607754
181.337,249.251058162
181.352,249.165676071
181.367,249.079929433
181.382,248.993816435
181.397,248.907335295
181.412,248.820484268
181.427,248.73326163
181.442,248.645665709
181.457,248.557694856
181.472,248.469347479
181.487,248.380622014
181.502,248.291516953
181.517,248.20203084
181.532,248.112162264
181.547,248.02190988
181.562,247.931272392
181.577,247.840248576
181.592,247.748837276
181.607,247.657037401
181.622,247.564847939
181.637,247.472267953
181.652,247.379296603
181.667,247.285933119
181.682,247.192176841
181.697,247.098027203
181.712,247.00348374
181.727,246.908546108
181.742,246.813214064
181.757,246.717487499
181.772,246.621366431
181.787,246.524851013
181.802,246.427941544
181.817,246.33063847
181.832,246.232942401
181.847,246.134854114
181.862,246.036374557
181.877,245.937504871
181.892,245.838246386
181.907,245.738600647
181.922,245.638569403
181.937,245.538154639
181.952,245.437358579
181.967,245.336183692
181.982,245.234632714
181.997,245.132708663
182.012,245.030414844
182.027,244.927754868
182.042,244.824732674
182.057,244.72135253
182.06,244.700633949
182.072,244.617619065
182.087,244.513537276
182.102,244.40911255
182.117,244.304350689
182.132,244.199257913
182.147,244.093840905
182.162,243.988106803
182.177,243.882063257
182.192,243.77571841
182.207,243.669080958
182.222,243.562160159
182.237,243.454965856
182.252,243.347508497
182.267,243.23979919
182.282,243.131849691
182.297,243.023672463
182.312,242.915280677
182.327,242.806688271
182.342,242.697909936
182.357,242.588961195
182.372,242.479858391
182.387,242.370618729
182.402,242.261260308
182.417,242.151802138
182.432,242.042264174
182.447,241.932667336
182.462,241.823033525
182.477,241.713385662
182.492,241.603747682
182.507,241.494144565
182.522,241.384602344
182.537,241.275148105
182.552,241.165810007
182.567,241.056617242
182.582,240.947600069
182.597,240.838789763
182.612,240.730218601
182.627,240.62191983
182.642,240.51392762
182.657,240.406276995
182.672,240.299003773
182.687,240.192144476
182.702,240.085736237
182.717,239.97981666
182.732,239.874423711
182.747,239.769595538
182.762,239.665370304
182.777,239.561785978
182.792,239.458880117
182.807,239.356689606
182.822,239.255250398
182.837,239.154597202
182.852,239.054763186
182.867,238.955779616
182.882,238.857675538
182.897,238.760477412
182.912,238.664208792
182.927,238.568890028
182.942,238.474537993
182.957,238.381165976
182.972,238.288783669
182.987,238.197397402
183.002,238.107010669
183.017,238.017625152
183.032,237.929242315
183.047,237.841865892
183.062,237.755505535
183.077,237.670181999
183.092,237.585934426
183.107,237.5028303
183.122,237.420978784
183.137,237.340548268
183.152,237.261788689
183.167,237.185058981
183.182,237.110858944
183.197,237.039863121
183.212,236.972951371
183.227,236.911226808
183.242,236.856007336
183.257,236.808774303
183.367,236.808841801
183.382,236.855324437
183.397,236.909405592
183.412,236.96963776
183.427,237.034754946
183.442,237.103711579
183.457,237.175682739
183.472,237.250041826
183.487,237.32632845
183.502,237.404214653
183.517,237.483474035
183.532,237.563955576
183.547,237.645562574
183.562,237.728236238
183.577,237.811943277
183.592,237.89666668
183.607,237.982399039
183.622,238.069137778
183.637,238.156881841
183.652,238.245629464
183.667,238.335376726
183.682,238.426116697
183.697,238.51783896
183.712,238.610529476
183.727,238.704170615
183.742,238.798741314
183.757,238.894217362
183.772,238.990571694
183.787,239.087774736
183.802,239.185794759
183.817,239.284598209
183.832,239.384150051
183.847,239.484414077
183.862,239.585353187
183.877,239.686929679
183.892,239.789105475
183.907,239.891842344
183.922,239.995102107
183.937,240.098846811
183.952,240.203038869
183.967,240.307641202
183.982,240.41261736
183.997,240.517931609
184.012,240.623549027
184.027,240.729435546
184.042,240.835558046
184.057,240.941884365
184.072,241.048383347
184.087,241.155024869
184.102,241.26177986
184.117,241.368620295
184.132,241.475519214
184.147,241.582450702
184.162,241.689389908
184.177,241.796313006
184.192,241.903197193
184.207,242.010020678
184.222,242.116762642
184.237,242.223403232
184.252,242.329923539
184.267,242.436305551
184.282,242.542532149
184.297,242.648587071
184.312,242.754454877
184.327,242.860120937
184.342,242.965571391
184.357,243.070793125
184.372,243.175773739
184.387,243.280501525
184.402,243.38496544
184.417,243.489155073
184.432,243.593060621
184.447,243.696672875
184.462,243.799983173
184.477,243.902983395
184.492,244.005665934
184.507,244.108023675
184.522,244.210049958
184.537,244.311738579
184.552,244.413083765
184.56,244.466992225
184.567,244.514080132
184.582,244.614722706
184.597,244.715006864
184.612,244.814928341
184.627,244.914483213
184.642,245.013667869
184.657,245.112479002
184.672,245.2109136
184.687,245.308968918
184.702,245.406642483
184.717,245.503932065
184.732,245.600835668
184.747,245.697351535
184.762,245.793478108
184.777,245.889214039
184.792,245.984558179
184.807,246.079509553
184.822,246.17406737
184.837,246.268230998
184.852,246.361999963
184.867,246.455373952
184.882,246.548352778
184.897,246.640936399
184.912,246.733124897
184.927,246.824918481
184.942,246.916317466
184.957,247.007322289
184.972,247.097933471
184.987,247.188151653
185.002,247.277977551
185.017,247.367411983
185.032,247.456455842
185.047,247.545110101
185.062,247.633375807
185.077,247.72125408
185.092,247.808746107
185.107,247.895853132
185.122,247.982576466
185.137,248.068917468
185.152,248.154877555
185.167,248.240458192
185.182,248.325660889
185.197,248.410487203
185.212,248.494938731
185.227,248.579017102
185.242,248.662723987
185.257,248.746061094
185.272,248.829030154
185.287,248.911632931
185.302,248.993871215
185.31,249.037583221
185.317,249.075746821
185.332,249.157261593
185.347,249.238417383
185.362,249.319216074
185.377,249.39965956
185.392,249.479749763
185.407,249.559488603
185.422,249.638878022
185.437,249.717919974
185.452,249.79661642
185.467,249.87496934
185.482,249.952980701
185.497,250.030652503
185.512,250.107986731
185.527,250.184985383
185.542,250.261650463
185.557,250.337983969
185.572,250.413987903
185.587,250.48966428
185.602,250.565015094
185.617,250.640042358
185.632,250.714748064
185.647,250.789134217
185.662,250.863202808
185.677,250.936955833
185.692,251.010395276
185.707,251.083523115
185.722,251.156341329
185.737,251.228851888
185.752,251.301056749
185.767,251.372957865
185.782,251.444557186
185.797,251.51585665
185.812,251.586858174
185.827,251.657563688
185.842,251.727975093
185.857,251.798094292
185.872,251.867923171
185.887,251.937463608
185.902,252.006717466
185.917,252.075686601
185.932,252.144372852
185.947,252.212778052
185.96,252.271836624
185.962,252.28090402
185.977,252.348752558
185.992,252.416325455
186.007,252.483624498
186.022,252.550651454
186.037,252.617408067
186.052,252.683896084
186.06,252.719247128
186.067,252.750117228
186.082,252.816073209
186.097,252.881765734
186.112,252.947196478
186.127,253.012367117
186.142,253.077279302
186.157,253.141934681
186.172,253.206334875
186.187,253.270481504
186.202,253.334376166
186.217,253.398020441
186.232,253.461415903
186.247,253.524564107
186.262,253.587466596
186.277,253.650124891
186.292,253.71254051
186.307,253.774714948
186.322,253.836649689
186.337,253.898346205
186.352,253.959805943
186.367,254.02103035
186.382,254.082020851
186.397,254.142778849
186.412,254.203305751
186.427,254.263602935
186.442,254.323671768
186.457,254.383513605
186.472,254.44312979
186.487,254.502521646
186.502,254.561690482
186.517,254.620637602
186.532,254.679364286
186.547,254.737871804
186.562,254.796161414
186.577,254.854234359
186.592,254.912091869
186.607,254.969735155
186.622,255.027165426
186.637,255.084383864
186.652,255.141391645
186.667,255.198189937
186.682,255.254779883
186.697,255.311162625
186.71,255.359860923
186.712,255.367339277
186.727,255.423310955
186.742,255.479078752
186.757,255.534643753
186.772,255.59000703
186.787,255.64516964
186.802,255.700132634
186.817,255.754897035
186.832,255.809463874
186.847,255.863834157
186.862,255.918008874
186.877,255.971989017
186.892,256.025775551
186.907,256.079369443
186.922,256.132771636
186.937,256.185983062
186.952,256.23900465
186.967,256.291837311
186.982,256.344481945
186.997,256.396939442
187.012,256.449210674
187.027,256.501296509
187.042,256.553197802
187.057,256.604915394
187.072,256.656450113
187.087,256.707802787
187.102,256.758974218
187.117,256.809965202
187.132,256.860776526
187.147,256.911408967
187.162,256.961863288
187.177,257.012140242
187.192,257.062240574
187.207,257.112165007
187.222,257.161914273
187.237,257.211489073
187.252,257.26089011
187.267,257.31011807
187.282,257.359173632
187.297,257.408057463
187.312,257.45677022
187.327,257.505312552
187.342,257.553685091
187.357,257.601888462
187.372,257.649923289
187.387,257.697790165
187.402,257.745489697
187.417,257.79302246
187.432,257.840389041
187.447,257.887589992
187.46,257.928363942
187.462,257.93462588
187.477,257.981497239
187.492,258.028204608
187.507,258.074748519
187.522,258.121129484
187.537,258.167348004
187.552,258.213404581
187.567,258.259299703
187.582,258.305033839
187.597,258.350607472
187.612,258.396021047
187.627,258.441275019
187.642,258.486369828
187.657,258.531305899
187.672,258.57608366
187.687,258.620703524
187.702,258.665165888
187.717,258.709471153
187.732,258.753619701
187.747,258.797611904
187.762,258.841448136
187.777,258.885128754
187.792,258.928654106
187.807,258.972024534
187.822,259.015240373
187.837,259.058301949
187.852,259.101209575
187.867,259.143963552
187.882,259.186564191
187.897,259.229011774
187.912,259.271306587
187.927,259.313448906
187.942,259.355438996
187.957,259.397277114
187.972,259.438963515
187.987,259.480498435
188.002,259.521882117
188.017,259.563114785
188.032,259.604196657
188.047,259.645127951
188.062,259.685908866
188.077,259.726539601
188.092,259.767020351
188.107,259.807351292
188.122,259.847532607
188.137,259.887564459
188.152,259.927447016
188.167,259.967180431
188.182,260.006764855
188.197,260.046200425
188.21,260.08025762
188.212,260.085487281
188.227,260.124625548
188.242,260.163615354
188.257,260.202456815
188.272,260.241150036
188.287,260.279695126
188.302,260.318092187
188.317,260.356341295
188.332,260.394442557
188.347,260.432396044
188.362,260.470201828
188.377,260.507859987
188.392,260.545370583
188.407,260.582733672
188.422,260.619949311
188.437,260.657017546
188.452,260.693938426
188.467,260.730711984
188.482,260.767338259
188.497,260.80381728
188.512,260.840149074
188.527,260.876333658
188.542,260.912371051
188.557,260.948261262
188.572,260.984004302
188.587,261.019600175
188.602,261.055048881
188.617,261.090350417
188.632,261.125504773
188.647,261.160511945
188.66,261.19073242
188.662,261.195371911
188.677,261.230084655
188.692,261.264650163
188.707,261.299068402
188.722,261.333339351
