# 48698 WSSS Singapore Observations at 12Z 08 Aug 2019
Frequency [GHz],TB
175.31,276.992217126
175.322,276.974026349
175.337,276.951237931
175.352,276.928393814
175.367,276.905493786
175.382,276.882537673
175.397,276.859525257
175.412,276.836456305
175.427,276.813330635
175.442,276.790148032
175.457,276.766908268
175.472,276.743611138
175.487,276.720256433
175.502,276.696843914
175.517,276.673373385
175.532,276.649844611
175.547,276.626257369
175.562,276.602611428
175.577,276.578906584
175.592,276.555142582
175.607,276.531319217
175.622,276.507436229
175.637,276.483493397
175.652,276.459490503
175.667,276.435427285
175.682,276.411303523
175.697,276.387118953
175.712,276.362873351
175.727,276.338566465
175.742,276.314198053
175.757,276.289767863
175.772,276.265275643
175.787,276.240721145
175.802,276.21610412
175.817,276.191424298
175.832,276.166681428
175.847,276.141875255
175.862,276.117005516
175.877,276.092071934
175.892,276.06707426
175.907,276.04201222
175.922,276.016885542
175.937,275.991693952
175.952,275.966437183
175.967,275.941114952
175.982,275.915726986
175.997,275.890273001
176.012,275.86475272
176.027,275.839165854
176.042,275.81351212
176.057,275.787791224
176.072,275.762002878
176.087,275.736146785
176.102,275.710222652
176.117,275.684230193
176.132,275.658169098
176.147,275.632039054
176.162,275.605839772
176.177,275.579570936
176.192,275.553232259
176.207,275.526823393
176.222,275.500344042
176.237,275.473793904
176.252,275.447172644
176.267,275.420479948
176.282,275.39371549
176.297,275.366878939
176.31,275.343562048
176.312,275.339969987
176.327,275.312988278
176.342,275.285933509
176.357,275.258805313
176.372,275.231603381
176.387,275.204327343
176.402,275.176976878
176.417,275.149551638
176.432,275.122051271
176.447,275.094475439
176.46,275.070515043
176.462,275.06682377
176.477,275.039095911
176.492,275.011291516
176.507,274.983410216
176.522,274.955451644
176.537,274.92741544
176.552,274.899301249
176.567,274.871108673
176.582,274.842837353
176.597,274.814486896
176.612,274.786056957
176.627,274.757547116
176.642,274.728957007
176.657,274.700286237
176.672,274.67153442
176.687,274.642701162
176.702,274.613786063
176.717,274.58478871
176.732,274.55570873
176.747,274.526545682
176.762,274.497299185
176.777,274.467968829
176.792,274.438554173
176.807,274.409054824
176.822,274.379470362
176.837,274.349800345
176.852,274.320044371
176.867,274.290201984
176.882,274.260272771
176.897,274.230256283
176.912,274.200152093
176.927,274.169959753
176.942,274.139678816
176.957,274.109308835
176.972,274.078849369
176.987,274.048299955
177.002,274.017660115
177.017,273.986929414
177.032,273.956107381
177.047,273.925193545
177.062,273.894187436
177.077,273.863088572
177.092,273.83189648
177.107,273.800610687
177.122,273.769230695
177.137,273.73775602
177.152,273.706186175
177.167,273.674520655
177.182,273.642758958
177.197,273.610900602
177.21,273.583211425
177.212,273.578945063
177.227,273.546891825
177.242,273.514740394
177.257,273.482490251
177.272,273.450140848
177.287,273.417691691
177.302,273.385142248
177.31,273.367741347
177.317,273.352491968
177.332,273.319740331
177.347,273.286886798
177.362,273.253930809
177.377,273.220871836
177.392,273.187709317
177.407,273.154442709
177.422,273.121071433
177.437,273.087594937
177.452,273.054012662
177.467,273.020324021
177.482,272.98652845
177.497,272.952625372
177.512,272.918614186
177.527,272.884494331
177.542,272.850265192
177.557,272.815926183
177.572,272.781476714
177.587,272.746916163
177.602,272.712243932
177.617,272.677459405
177.632,272.642561963
177.647,272.607550996
177.66,272.577115833
177.662,272.572425863
177.677,272.537185952
177.692,272.501830604
177.707,272.466359211
177.722,272.430771094
177.737,272.395065625
177.752,272.359242157
177.767,272.323300024
177.782,272.287238561
177.797,272.251057117
177.812,272.214755001
177.827,272.178331538
177.842,272.141786063
177.857,272.105117882
177.872,272.068326305
177.887,272.031410629
177.902,271.99437017
177.917,271.957204209
177.932,271.919912037
177.947,271.882492946
177.96,271.849959843
177.962,271.844946212
177.977,271.807271113
177.992,271.769466917
178.007,271.731532879
178.022,271.69346826
178.037,271.655272332
178.052,271.616944323
178.067,271.578483492
178.082,271.539889058
178.097,271.501160265
178.112,271.462296345
178.127,271.423296508
178.142,271.384159973
178.157,271.344885957
178.172,271.305473661
178.187,271.265922276
178.202,271.226231004
178.217,271.186399029
178.232,271.146425529
178.247,271.106309684
178.262,271.066050659
178.277,271.025647627
178.292,270.985099744
178.307,270.944406145
178.322,270.903565993
178.337,270.862578417
178.352,270.821442555
178.367,270.780157527
178.382,270.738722464
178.397,270.697136474
178.41,270.660972499
178.412,270.655398648
178.427,270.613508119
178.442,270.571463961
178.457,270.52926525
178.472,270.486911088
178.487,270.444400544
178.502,270.401732677
178.517,270.35890655
178.532,270.31592121
178.547,270.272775717
178.562,270.229469093
178.577,270.186000387
178.592,270.142368598
178.607,270.098572771
178.622,270.0546119
178.637,270.01048498
178.652,269.966191011
178.667,269.921728986
178.682,269.877097873
178.697,269.832296646
178.712,269.787324273
178.727,269.742179704
178.742,269.696861883
178.757,269.651369754
178.772,269.605702238
178.787,269.559858258
178.802,269.513836738
178.817,269.467636568
178.832,269.42125665
178.847,269.374695874
178.862,269.327953106
178.877,269.281027242
178.892,269.233917103
178.907,269.186621564
178.922,269.139139461
178.937,269.091469628
178.952,269.043610874
178.967,268.995562028
178.982,268.947321881
178.997,268.898889243
179.012,268.85026286
179.027,268.801441547
179.042,268.752424025
179.057,268.703209081
179.072,268.65379543
179.087,268.604181808
179.102,268.554366939
179.117,268.50434953
179.132,268.454128274
179.147,268.403701851
179.16,268.359831975
179.162,268.35306894
179.177,268.302228208
179.192,268.251178294
179.207,268.199917837
179.222,268.148445462
179.237,268.096759794
179.252,268.044859412
179.267,267.992742921
179.282,267.940408882
179.297,267.887855868
179.312,267.835082427
179.327,267.782087071
179.342,267.728868341
179.357,267.675424738
179.372,267.621754749
179.387,267.567856857
179.402,267.513729521
179.417,267.459371186
179.432,267.404780297
179.447,267.349955252
179.462,267.294894465
179.477,267.239596319
179.492,267.184059182
179.507,267.128281399
179.522,267.07226132
179.537,267.015997248
179.552,266.959487491
179.567,266.902730337
179.582,266.845724057
179.597,266.788466872
179.612,266.730957037
179.627,266.673192751
179.642,266.615172213
179.657,266.55689358
179.672,266.498355007
179.687,266.439554641
179.702,266.380490578
179.717,266.321160918
179.732,266.261563723
179.747,266.20169703
179.762,266.141558877
179.777,266.081147273
179.792,266.020460178
179.807,265.959495563
179.822,265.89825135
179.837,265.83672546
179.852,265.77491578
179.867,265.712820158
179.882,265.65043643
179.897,265.587762413
179.91,265.533208407
179.912,265.524795887
179.927,265.461534595
179.942,265.397976288
179.957,265.334118652
179.972,265.269959357
179.987,265.205496063
180.002,265.140726363
180.017,265.075647864
180.032,265.010258116
180.047,264.944554642
180.062,264.878534927
180.077,264.812196451
180.092,264.745536629
180.107,264.678552865
180.122,264.611242518
180.137,264.543602923
180.152,264.475631373
180.167,264.407325128
180.182,264.338681408
180.197,264.269697419
180.212,264.200370282
180.227,264.130697136
180.242,264.060675048
180.257,263.990301052
180.272,263.919572149
180.287,263.848485281
180.302,263.777037386
180.317,263.705225346
180.332,263.633045966
180.347,263.560496057
180.362,263.487572346
180.377,263.414271556
180.392,263.340590339
180.407,263.266525308
180.422,263.192073024
180.437,263.117230017
180.452,263.041992757
180.467,262.966357658
180.482,262.890321118
180.497,262.813879443
180.512,262.737028917
180.527,262.659765767
180.542,262.582086176
180.557,262.503986251
180.56,262.488315478
180.572,262.425462056
180.587,262.346509633
180.602,262.267124922
180.617,262.187303832
180.632,262.10704222
180.647,262.02633589
180.66,261.956027359
180.662,261.945180554
180.677,261.863571916
180.692,261.781505593
180.707,261.698977132
180.722,261.615982063
180.737,261.532515814
180.752,261.448573778
180.767,261.364151278
180.782,261.279243569
180.797,261.193845854
180.812,261.107953276
180.827,261.021560904
180.842,260.934663751
180.857,260.847256755
180.872,260.759334808
180.887,260.670892727
180.902,260.581925262
180.917,260.49242711
180.932,260.402392868
180.947,260.311817114
180.962,260.220694345
180.977,260.129018967
180.992,260.036785331
181.007,259.943987743
181.022,259.850620424
181.037,259.75667752
181.052,259.662153139
181.067,259.567041296
181.082,259.471335955
181.097,259.37503099
181.112,259.278120239
181.127,259.180597474
181.142,259.08245638
181.157,258.983690584
181.172,258.884293655
181.187,258.784259094
181.202,258.683580355
181.217,258.582250799
181.232,258.480263749
181.247,258.377612465
181.262,258.274290134
181.277,258.170289915
181.292,258.065604861
181.307,257.96022801
181.31,257.93906901
181.322,257.854152346
181.337,257.74737077
181.352,257.639876154
181.367,257.531661314
181.382,257.422719019
181.397,257.313041985
181.412,257.202622885
181.427,257.091454375
181.442,256.979529031
181.457,256.866839414
181.472,256.753378049
181.487,256.639137421
181.502,256.524109987
181.517,256.408288184
181.532,256.291664417
181.547,256.174231068
181.562,256.055980508
181.577,255.936905091
181.592,255.816997169
181.607,255.696249053
181.622,255.574653081
181.637,255.452201591
181.652,255.328886898
181.667,255.204701372
181.682,255.079637353
181.697,254.953687198
181.712,254.826843321
181.727,254.69909812
181.742,254.570444058
181.757,254.440873608
181.772,254.310379306
181.787,254.178953707
181.802,254.046589443
181.817,253.913279194
181.832,253.779015698
181.847,253.643791754
181.862,253.507600268
181.877,253.370434174
181.892,253.232286553
181.907,253.093150531
181.922,252.953019356
181.937,252.811886364
181.952,252.669745035
181.967,252.526588946
181.982,252.382411803
181.997,252.237207475
182.012,252.09096993
182.027,251.943693325
182.042,251.795371956
182.057,251.646000309
182.06,251.615999479
182.072,251.495573046
182.087,251.344085012
182.102,251.191531246
182.117,251.03790702
182.132,250.88320782
182.147,250.727429372
182.162,250.570567668
182.177,250.412618956
182.192,250.253579773
182.207,250.093446957
182.222,249.932217677
182.237,249.76988945
182.252,249.606460154
182.267,249.441928087
182.282,249.276291949
182.297,249.109550908
182.312,248.941704647
182.327,248.772753353
182.342,248.602697816
182.357,248.431539432
182.372,248.259280307
182.387,248.085923261
182.402,247.911471936
182.417,247.735930827
182.432,247.55930542
182.447,247.381602218
182.462,247.202828889
182.477,247.022994315
182.492,246.842108751
182.507,246.66018395
182.522,246.477233285
182.537,246.293271887
182.552,246.108316827
182.567,245.922387295
182.582,245.73550477
182.597,245.547693247
182.612,245.358979416
182.627,245.169392936
182.642,244.978966623
182.657,244.787736778
182.672,244.595743405
182.687,244.403030486
182.702,244.209646287
182.717,244.015643639
182.732,243.821080212
182.747,243.626018788
182.762,243.430527576
182.777,243.234680378
182.792,243.038556856
182.807,242.842242635
182.822,242.645829417
182.837,242.449414958
182.852,242.25310297
182.867,242.057002752
182.882,241.86122878
182.897,241.665899939
182.912,241.471138394
182.927,241.277068152
182.942,241.083812983
182.957,240.891493762
182.972,240.700224873
182.987,240.510109502
183.002,240.321233601
183.017,240.133657908
183.032,239.947407673
183.047,239.76245921
183.062,239.578722371
183.077,239.396017619
183.092,239.214045923
183.107,239.03234915
183.122,238.85025804
183.137,238.666823956
183.152,238.480730676
183.167,238.290183432
183.182,238.092778173
183.197,237.885371196
183.212,237.664016652
183.227,237.424162142
183.242,237.161599117
183.257,236.875370672
183.367,236.933750183
183.382,237.210239514
183.397,237.462754924
183.412,237.693529996
183.427,237.907021761
183.442,238.107672841
183.457,238.299227362
183.472,238.484630282
183.487,238.666117821
183.502,238.845351486
183.517,239.023544541
183.532,239.201567056
183.547,239.380028733
183.562,239.55934259
183.577,239.739773577
183.592,239.921475461
183.607,240.104518934
183.622,240.288913066
183.637,240.474621645
183.652,240.661575802
183.667,240.849683605
183.682,241.038837553
183.697,241.228920226
183.712,241.419808713
183.727,241.611377917
183.742,241.803503088
183.757,241.996061756
183.772,242.18893507
183.787,242.382008808
183.802,242.575174092
183.817,242.768327792
183.832,242.961372776
183.847,243.154218035
183.862,243.346778661
183.877,243.538975753
183.892,243.730736224
183.907,243.921992625
183.922,244.112682868
183.937,244.302749989
183.952,244.492141814
183.967,244.68081076
183.982,244.86871345
183.997,245.055810499
184.012,245.242066206
184.027,245.427448291
184.042,245.61192767
184.057,245.79547814
184.072,245.978076242
184.087,246.159700977
184.102,246.340333633
184.117,246.519957608
184.132,246.698558199
184.147,246.876122478
184.162,247.052639111
184.177,247.22809826
184.192,247.402491418
184.207,247.575811324
184.222,247.748051837
184.237,247.919207863
184.252,248.089275228
184.267,248.258250646
184.282,248.426131621
184.297,248.592916361
184.312,248.758603783
184.327,248.923193398
184.342,249.086685272
184.357,249.24908003
184.372,249.410378742
184.387,249.57058294
184.402,249.729694576
184.417,249.887715981
184.432,250.044649843
184.447,250.200499192
184.462,250.355267336
184.477,250.508957942
184.492,250.661574874
184.507,250.813122301
184.522,250.963604608
184.537,251.113026432
184.552,251.261392593
184.56,251.340091286
184.567,251.408708108
184.582,251.554978227
184.597,251.700208335
184.612,251.844403983
184.627,251.987570933
184.642,252.129715027
184.657,252.270842297
184.672,252.410958883
184.687,252.550071063
184.702,252.688185226
184.717,252.825307871
184.732,252.96144561
184.747,253.096605138
184.762,253.230793254
184.777,253.364016834
184.792,253.496282823
184.807,253.627598262
184.822,253.757970234
184.837,253.887405909
184.852,254.015912484
184.867,254.143497234
184.882,254.270167459
184.897,254.3959305
184.912,254.520793755
184.927,254.644764649
184.942,254.767850593
184.957,254.890059076
184.972,255.011397561
184.987,255.13187356
185.002,255.251494568
185.017,255.370268103
185.032,255.488201669
185.047,255.605302771
185.062,255.721578923
185.077,255.837037623
185.092,255.951686361
185.107,256.065532585
185.122,256.178583758
185.137,256.290847309
185.152,256.402330634
185.167,256.513041121
185.182,256.622986118
185.197,256.732172921
185.212,256.840608845
185.227,256.948301111
185.242,257.05525694
185.257,257.161483491
185.272,257.266987884
185.287,257.371777203
185.302,257.475858484
185.31,257.531081397
185.317,257.579238703
185.332,257.681924805
185.347,257.783923667
185.362,257.885242122
185.377,257.985886953
185.392,258.085864891
185.407,258.185182597
185.422,258.283846688
185.437,258.381863709
185.452,258.47924016
185.467,258.57598249
185.482,258.672097066
185.497,258.767590209
185.512,258.862468171
185.527,258.95673715
185.542,259.050403263
185.557,259.143472604
185.572,259.235951168
185.587,259.3278449
185.602,259.419159685
185.617,259.509901328
185.632,259.600075597
185.647,259.689688184
185.662,259.778744691
185.677,259.867250716
185.692,259.955211738
185.707,260.042633201
185.722,260.129520476
185.737,260.215878876
185.752,260.301713637
185.767,260.387029963
185.782,260.471832967
185.797,260.556127709
185.812,260.63991919
185.827,260.723212353
185.842,260.806012064
185.857,260.888323151
185.872,260.970150366
185.887,261.051498411
185.902,261.132371906
185.917,261.212775449
185.932,261.292713556
185.947,261.37219068
185.96,261.440701395
185.962,261.451211246
185.977,261.52977959
185.992,261.607900007
186.007,261.685576738
186.022,261.762813952
186.037,261.839615796
186.052,261.915986335
186.06,261.956542335
186.067,261.991929598
186.082,262.067449548
186.097,262.142550103
186.112,262.217235129
186.127,262.291508436
186.142,262.365373798
186.157,262.438834918
186.172,262.511895482
186.187,262.584559087
186.202,262.656829307
186.217,262.728709673
186.232,262.800203668
186.247,262.871314708
186.262,262.942046192
186.277,263.01240145
186.292,263.082383783
186.307,263.151996446
186.322,263.221242658
186.337,263.290125586
186.352,263.358648343
186.367,263.426814044
186.382,263.494625724
186.397,263.562086381
186.412,263.629198993
186.427,263.69596649
186.442,263.76239176
186.457,263.828477663
186.472,263.894227018
186.487,263.95964261
186.502,264.024727176
186.517,264.08948344
186.532,264.153914069
186.547,264.218021714
186.562,264.281808979
186.577,264.345278449
186.592,264.408432656
186.607,264.471274128
186.622,264.533805345
186.637,264.596028752
186.652,264.657946764
186.667,264.719561788
186.682,264.78087618
186.697,264.841892263
186.71,264.894533363
186.712,264.90261236
186.727,264.963038729
186.742,265.023173638
186.757,265.083019291
186.772,265.142577897
186.787,265.201851629
186.802,265.260842606
186.817,265.319552971
186.832,265.377984819
186.847,265.436140215
186.862,265.494021196
186.877,265.551629787
186.892,265.608967995
186.907,265.666037794
186.922,265.722841125
186.937,265.77937994
186.952,265.835656128
186.967,265.891671597
186.982,265.947428203
186.997,266.002927791
187.012,266.058172191
187.027,266.113163207
187.042,266.167902632
187.057,266.222392214
187.072,266.276633735
187.087,266.330628903
187.102,266.384379426
187.117,266.437887001
187.132,266.491153309
187.147,266.544180008
187.162,266.596968726
187.177,266.649521093
187.192,266.701838715
187.207,266.753923189
187.222,266.805776079
187.237,266.857398951
187.252,266.908793334
187.267,266.959960771
187.282,267.010902754
187.297,267.061620798
187.312,267.112116381
187.327,267.16239096
187.342,267.212446001
187.357,267.262282932
187.372,267.311903188
187.387,267.361308167
187.402,267.410499272
187.417,267.459477896
187.432,267.508245397
187.447,267.556803142
187.46,267.59871789
187.462,267.605152471
187.477,267.653294731
187.492,267.70123122
187.507,267.748963263
187.522,267.796492161
187.537,267.843819181
187.552,267.890945618
187.567,267.937872711
187.582,267.98460172
187.597,268.031133891
187.612,268.077470443
187.627,268.123612604
187.642,268.169561571
187.657,268.215318535
187.672,268.260884705
187.687,268.306261232
187.702,268.351449292
187.717,268.396450034
187.732,268.441264609
187.747,268.48589416
187.762,268.530339797
187.777,268.574602648
187.792,268.618683816
187.807,268.662584398
187.822,268.706305487
187.837,268.749848156
187.852,268.793213476
187.867,268.836402514
187.882,268.879416328
187.897,268.922255948
187.912,268.964922419
187.927,269.007416768
187.942,269.04974002
187.957,269.09189317
187.972,269.133877231
187.987,269.175693205
188.002,269.217342068
188.017,269.258824806
188.032,269.300142387
188.047,269.341295775
188.062,269.382285925
188.077,269.423113793
188.092,269.463780319
188.107,269.504286422
188.122,269.544633041
188.137,269.584821105
188.152,269.624851514
188.167,269.664725176
188.182,269.704442993
188.197,269.744005852
188.21,269.778168999
188.212,269.783414633
188.227,269.822670232
188.242,269.861773506
188.257,269.900725322
188.272,269.939526545
188.287,269.978178028
188.302,270.016680596
188.317,270.055035123
188.332,270.09324241
188.347,270.131303305
188.362,270.169218621
188.377,270.20698917
188.392,270.244615769
188.407,270.282099214
188.422,270.319440305
188.437,270.35663983
188.452,270.39369858
188.467,270.430617327
188.482,270.467396859
188.497,270.504037921
188.512,270.540541303
188.527,270.576907734
188.542,270.613137988
188.557,270.6492328
188.572,270.685192917
188.587,270.721019077
188.602,270.756711999
188.617,270.792272415
188.632,270.827701049
188.647,270.862998604
188.66,270.893484349
188.662,270.898165803
188.677,270.933203336
188.692,270.968111919
188.707,271.002892234
188.722,271.037544978
188.737,271.072070841
