# 10410 EDZE Essen Observations at 12Z 30 Apr 2019
Frequency [GHz],TB
175.31,267.202128772
175.322,267.239702516
175.337,267.286536339
175.352,267.333220412
175.367,267.379753039
175.382,267.426132517
175.397,267.472357137
175.412,267.518425183
175.427,267.564334923
175.442,267.610084633
175.457,267.655672573
175.472,267.701096993
175.487,267.746356142
175.502,267.791448261
175.517,267.836371582
175.532,267.881124331
175.547,267.925704727
175.562,267.970110985
175.577,268.014341309
175.592,268.058393901
175.607,268.10226695
175.622,268.145958648
175.637,268.189467173
175.652,268.232790698
175.667,268.275927393
175.682,268.318875417
175.697,268.36163293
175.712,268.404198079
175.727,268.44656901
175.742,268.488743858
175.757,268.530720758
175.772,268.572497838
175.787,268.614073218
175.802,268.655445014
175.817,268.696611339
175.832,268.737570298
175.847,268.778319989
175.862,268.818858511
175.877,268.859183954
175.892,268.899294403
175.907,268.939187939
175.922,268.97886264
175.937,269.01831658
175.952,269.057547824
175.967,269.096554437
175.982,269.13533448
175.997,269.173886007
176.012,269.212207072
176.027,269.25029572
176.042,269.28815
176.057,269.325767951
176.072,269.363147612
176.087,269.400287018
176.102,269.437184198
176.117,269.473837185
176.132,269.510244004
176.147,269.546402677
176.162,269.582311225
176.177,269.617967668
176.192,269.653370025
176.207,269.688516309
176.222,269.72340453
176.237,269.758032701
176.252,269.792398834
176.267,269.826500935
176.282,269.860337013
176.297,269.89390507
176.31,269.922779047
176.312,269.927203115
176.327,269.960229154
176.342,269.992981185
176.357,270.025457216
176.372,270.05765525
176.387,270.089573289
176.402,270.12120934
176.417,270.152561404
176.432,270.183627486
176.447,270.214405594
176.46,270.240845472
176.462,270.244893731
176.477,270.275089907
176.492,270.304992132
176.507,270.334598412
176.522,270.363906765
176.537,270.392915201
176.552,270.421621737
176.567,270.450024392
176.582,270.47812119
176.597,270.505910151
176.612,270.533389304
176.627,270.560556678
176.642,270.587410307
176.657,270.613948231
176.672,270.640168489
176.687,270.666069125
176.702,270.691648189
176.717,270.716903738
176.732,270.741833827
176.747,270.766436521
176.762,270.790709892
176.777,270.814652008
176.792,270.838260956
176.807,270.861534818
176.822,270.884471688
176.837,270.907069663
176.852,270.929326849
176.867,270.951241359
176.882,270.97281131
176.897,270.99403483
176.912,271.014910053
176.927,271.035435122
176.942,271.055608184
176.957,271.075427401
176.972,271.094890937
176.987,271.113996969
177.002,271.132743683
177.017,271.151129273
177.032,271.16915194
177.047,271.186809899
177.062,271.204101376
177.077,271.221024603
177.092,271.237577824
177.107,271.253759297
177.122,271.269567287
177.137,271.285000071
177.152,271.30005594
177.167,271.314733195
177.182,271.32903015
177.197,271.34294513
177.21,271.35469452
177.212,271.356476476
177.227,271.369622534
177.242,271.382381673
177.257,271.394752271
177.272,271.406732718
177.287,271.418321419
177.302,271.429516796
177.31,271.435326295
177.317,271.440317281
177.332,271.450721321
177.347,271.460727382
177.362,271.470333942
177.377,271.479539496
177.392,271.488342551
177.407,271.496741633
177.422,271.504735282
177.437,271.512322059
177.452,271.519500536
177.467,271.526269304
177.482,271.532626972
177.497,271.538572165
177.512,271.544103525
177.527,271.549219712
177.542,271.553919404
177.557,271.558201298
177.572,271.562064107
177.587,271.565506567
177.602,271.568527427
177.617,271.571125458
177.632,271.573299451
177.647,271.575048213
177.66,271.576218939
177.662,271.576370575
177.677,271.577265385
177.692,271.577731508
177.707,271.577767837
177.722,271.577373275
177.737,271.576546752
177.752,271.575287219
177.767,271.573593645
177.782,271.57146502
177.797,271.568900354
177.812,271.565898685
177.827,271.562459059
177.842,271.558580558
177.857,271.554262273
177.872,271.549503326
177.887,271.544302858
177.902,271.538660025
177.917,271.532574015
177.932,271.526044033
177.947,271.519069305
177.96,271.512664214
177.962,271.511649083
177.977,271.503782637
177.992,271.49546926
178.007,271.486708268
178.022,271.477499002
178.037,271.46784082
178.052,271.457733106
178.067,271.447175268
178.082,271.436166728
178.097,271.424706942
178.112,271.412795379
178.127,271.400431533
178.142,271.387614925
178.157,271.37434509
178.172,271.360621592
178.187,271.346444012
178.202,271.33181196
178.217,271.316725055
178.232,271.301182955
178.247,271.285185326
178.262,271.268731862
178.277,271.251822276
178.292,271.234456305
178.307,271.216633702
178.322,271.198354251
178.337,271.179617741
178.352,271.160424
178.367,271.140772863
178.382,271.120664191
178.397,271.100097862
178.41,271.081903438
178.412,271.079073775
178.427,271.057591853
178.442,271.035652031
178.457,271.013254269
178.472,270.990398538
178.487,270.967084839
178.502,270.943313181
178.517,270.919083593
178.532,270.894396127
178.547,270.869250846
178.562,270.843647832
178.577,270.817587182
178.592,270.791069011
178.607,270.764093449
178.622,270.736660644
178.637,270.708770748
178.652,270.680423942
178.667,270.651620413
178.682,270.62236036
178.697,270.592644
178.712,270.562471557
178.727,270.531843271
178.742,270.500759394
178.757,270.469220185
178.772,270.437225916
178.787,270.404776866
178.802,270.371873331
178.817,270.338515607
178.832,270.304704002
178.847,270.270438827
178.862,270.235720409
178.877,270.200549075
178.892,270.164925157
178.907,270.128848994
178.922,270.09232093
178.937,270.05534131
178.952,270.017910484
178.967,269.980028803
178.982,269.94169662
178.997,269.902914292
179.012,269.863682172
179.027,269.824000611
179.042,269.783869963
179.057,269.743290581
179.072,269.702262807
179.087,269.660786989
179.102,269.618863466
179.117,269.576492569
179.132,269.533674631
179.147,269.490409968
179.16,269.45255282
179.162,269.446698898
179.177,269.402541723
179.192,269.357938742
179.207,269.312890239
179.222,269.267396493
179.237,269.221457763
179.252,269.175074303
179.267,269.128246348
179.282,269.080974124
179.297,269.03325784
179.312,268.985097686
179.327,268.936493837
179.342,268.887446455
179.357,268.837955676
179.372,268.788021621
179.387,268.737644391
179.402,268.686824063
179.417,268.635560693
179.432,268.58385432
179.447,268.531704952
179.462,268.479112572
179.477,268.426077146
179.492,268.372598603
179.507,268.318676854
179.522,268.26431178
179.537,268.209503227
179.552,268.154251023
179.567,268.098554954
179.582,268.042414782
179.597,267.985830235
179.612,267.928801009
179.627,267.871326767
179.642,267.813407134
179.657,267.755041705
179.672,267.696230035
179.687,267.636971646
179.702,267.577266021
179.717,267.517112607
179.732,267.456510806
179.747,267.395459989
179.762,267.333959485
179.777,267.272008577
179.792,267.209606513
179.807,267.146752493
179.822,267.083445682
179.837,267.019685196
179.852,266.955470109
179.867,266.890799454
179.882,266.825672211
179.897,266.760087329
179.91,266.702876059
179.912,266.694043693
179.927,266.627540158
179.942,266.560575524
179.957,266.493148542
179.972,266.425257923
179.987,266.356902327
180.002,266.288080365
180.017,266.218790597
180.032,266.149031544
180.047,266.078801666
180.062,266.008099379
180.077,265.936923054
180.092,265.865271004
180.107,265.793141499
180.122,265.720532757
180.137,265.647442945
180.152,265.573870181
180.167,265.499812532
180.182,265.425268019
180.197,265.350234605
180.212,265.274710214
180.227,265.198692711
180.242,265.122179917
180.257,265.045169599
180.272,264.967659479
180.287,264.889647229
180.302,264.811130474
180.317,264.732106785
180.332,264.65257369
180.347,264.572528669
180.362,264.491969156
180.377,264.410892535
180.392,264.329296146
180.407,264.247177286
180.422,264.164533201
180.437,264.081361101
180.452,263.997658148
180.467,263.913421461
180.482,263.828648116
180.497,263.743335153
180.512,263.657479568
180.527,263.571078322
180.542,263.484128331
180.557,263.396626481
180.56,263.379059611
180.572,263.308569618
180.587,263.219954554
180.602,263.130778069
180.617,263.041036907
180.632,262.950727786
180.647,262.859847392
180.66,262.780619702
180.662,262.768392379
180.677,262.676359382
180.692,262.583745004
180.707,262.490545829
180.722,262.396758417
180.737,262.302379307
180.752,262.207405021
180.767,262.111832066
180.782,262.015656932
180.797,261.918876094
180.812,261.821486024
180.827,261.723483181
180.842,261.624864013
180.857,261.525624976
180.872,261.425762513
180.887,261.325273076
180.902,261.224153114
180.917,261.122399089
180.932,261.020007466
180.947,260.916974726
180.962,260.813297358
180.977,260.708971876
180.992,260.603994814
181.007,260.498362722
181.022,260.392072184
181.037,260.285119812
181.052,260.177502253
181.067,260.069216188
181.082,259.960258342
181.097,259.850625487
181.112,259.74031444
181.127,259.62932207
181.142,259.517645305
181.157,259.405281135
181.172,259.292226613
181.187,259.178478867
181.202,259.064035093
181.217,258.948892573
181.232,258.833048671
181.247,258.716500839
181.262,258.599246627
181.277,258.481283686
181.292,258.36260977
181.307,258.243222747
181.31,258.219259589
181.322,258.123120604
181.337,258.002301449
181.352,257.880763518
181.367,257.758505194
181.382,257.635524994
181.397,257.511821586
181.412,257.387393802
181.427,257.262240627
181.442,257.13636123
181.457,257.009754951
181.472,256.882421323
181.487,256.754360073
181.502,256.625571132
181.517,256.49605464
181.532,256.365810964
181.547,256.234840703
181.562,256.103144686
181.577,255.970724003
181.592,255.837579997
181.607,255.703714282
181.622,255.569128751
181.637,255.433825592
181.652,255.297807283
181.667,255.161076632
181.682,255.023636759
181.697,254.885491121
181.712,254.746643529
181.727,254.607098152
181.742,254.466859531
181.757,254.325932598
181.772,254.184322678
181.787,254.042035521
181.802,253.899077293
181.817,253.755454612
181.832,253.611174548
181.847,253.466244644
181.862,253.320672933
181.877,253.17446795
181.892,253.027638748
181.907,252.880194919
181.922,252.732146607
181.937,252.583504523
181.952,252.434279971
181.967,252.284484853
181.982,252.134131697
181.997,251.983233677
182.012,251.831804623
182.027,251.679859037
182.042,251.527412133
182.057,251.374479834
182.06,251.343836578
182.072,251.221078798
182.087,251.067226447
182.102,250.912940973
182.117,250.758241371
182.132,250.603147445
182.147,250.44767985
182.162,250.291860084
182.177,250.13571053
182.192,249.979254469
182.207,249.822516099
182.222,249.665520557
182.237,249.508293935
182.252,249.350863302
182.267,249.193256722
182.282,249.035503269
182.297,248.877633048
182.312,248.719677206
182.327,248.561667952
182.342,248.403638565
182.357,248.245623414
182.372,248.087657953
182.387,247.929778747
182.402,247.772023465
182.417,247.614430884
182.432,247.457040891
182.447,247.299894481
182.462,247.143033739
182.477,246.986501835
182.492,246.830343004
182.507,246.674602511
182.522,246.51932663
182.537,246.364562599
182.552,246.210358567
182.567,246.056763531
182.582,245.903827265
182.597,245.751600235
182.612,245.600133494
182.627,245.44947855
182.642,245.299687232
182.657,245.150811526
182.672,245.002903365
182.687,244.856014409
182.702,244.710195771
182.717,244.565497718
182.732,244.421969298
182.747,244.279657917
182.762,244.138608857
182.777,243.998864685
182.792,243.860464587
182.807,243.723443568
182.822,243.587831526
182.837,243.45365213
182.852,243.320921517
182.867,243.189646724
182.882,243.059823798
182.897,242.931435543
182.912,242.804448767
182.927,242.678810925
182.942,242.554446002
182.957,242.431249404
182.972,242.309081586
182.987,242.18776002
183.002,242.067048997
183.017,241.946646525
183.032,241.826167369
183.047,241.705120791
183.062,241.582881093
183.077,241.458648084
183.092,241.331393478
183.107,241.199787227
183.122,241.062095157
183.137,240.916035029
183.152,240.758572318
183.167,240.585628893
183.182,240.39166892
183.197,240.169123117
183.212,239.907641475
183.227,239.593315896
183.242,239.208587572
183.257,238.735471751
183.367,238.845988654
183.382,239.290632767
183.397,239.651045589
183.412,239.945803725
183.427,240.191628923
183.442,240.401463968
183.457,240.584872826
183.472,240.748842381
183.487,240.898489639
183.502,241.037593174
183.517,241.168972202
183.532,241.29475268
183.547,241.416554013
183.562,241.5356209
183.577,241.65291738
183.592,241.769194686
183.607,241.885040802
183.622,242.000917095
183.637,242.117185716
183.652,242.234130355
183.667,242.351972101
183.682,242.470881713
183.697,242.590989237
183.712,242.712391535
183.727,242.835158329
183.742,242.959337017
183.757,243.084956597
183.772,243.212030835
183.787,243.34056089
183.802,243.470537468
183.817,243.60194262
183.832,243.734751235
183.847,243.868932299
183.862,244.004449952
183.877,244.141264388
183.892,244.279332616
183.907,244.418609107
183.922,244.559046344
183.937,244.700595302
183.952,244.84320585
183.967,244.986827096
183.982,245.131407688
183.997,245.27689607
184.012,245.423240703
184.027,245.570390247
184.042,245.71829373
184.057,245.866900677
184.072,246.016161234
184.087,246.166026261
184.102,246.31644742
184.117,246.467377236
184.132,246.61876917
184.147,246.77057765
184.162,246.922758118
184.177,247.07526706
184.192,247.228062025
184.207,247.381101644
184.222,247.534345647
184.237,247.687754861
184.252,247.841291216
184.267,247.994917751
184.282,248.148598595
184.297,248.30229898
184.312,248.455985216
184.327,248.609624689
184.342,248.763185845
184.357,248.916638175
184.372,249.069952203
184.387,249.223099466
184.402,249.3760525
184.417,249.528784818
184.432,249.681270897
184.447,249.833486148
184.462,249.985406911
184.477,250.137010422
184.492,250.288274801
184.507,250.439179029
184.522,250.589702926
184.537,250.739827135
184.552,250.889533099
184.56,250.969199093
184.567,251.038803035
184.582,251.187619928
184.597,251.335967496
184.612,251.483830185
184.627,251.631193137
184.642,251.778042171
184.657,251.924363776
184.672,252.070145083
184.687,252.215373847
184.702,252.360038427
184.717,252.50412778
184.732,252.647631427
184.747,252.790539447
184.762,252.93284246
184.777,253.074531602
184.792,253.215598516
184.807,253.356035337
184.822,253.495834675
184.837,253.634989593
184.852,253.773493604
184.867,253.911340652
184.882,254.048525089
184.897,254.185041682
184.912,254.320885572
184.927,254.456052287
184.942,254.590537713
184.957,254.724338089
184.972,254.857449987
184.987,254.989870315
185.002,255.121596288
185.017,255.252625427
185.032,255.382955546
185.047,255.512584744
185.062,255.641511391
185.077,255.769734116
185.092,255.897251805
185.107,256.024063582
185.122,256.15016881
185.137,256.27556707
185.152,256.400258164
185.167,256.524242103
185.182,256.647519091
185.197,256.770089526
185.212,256.891953993
185.227,257.013113246
185.242,257.133568212
185.257,257.25331998
185.272,257.37236979
185.287,257.490719033
185.302,257.60836924
185.31,257.670830757
185.317,257.725322076
185.332,257.841579334
185.347,257.957142937
185.362,258.072014913
185.377,258.186197414
185.392,258.299692687
185.407,258.412503088
185.422,258.524631064
185.437,258.636079156
185.452,258.746849987
185.467,258.856946262
185.482,258.966370768
185.497,259.075126358
185.512,259.183215954
185.527,259.290642543
185.542,259.397409176
185.557,259.503518953
185.572,259.60897503
185.587,259.71378061
185.602,259.817938947
185.617,259.921453326
185.632,260.024327083
185.647,260.126563577
185.662,260.22816621
185.677,260.329138406
185.692,260.429483619
185.707,260.529205322
185.722,260.628307016
185.737,260.726792215
185.752,260.82466445
185.767,260.921927265
185.782,261.018584211
185.797,261.114638855
185.812,261.210094766
185.827,261.304955518
185.842,261.399224683
185.857,261.492905842
185.872,261.586002563
185.887,261.678518418
185.902,261.770456972
185.917,261.861821783
185.932,261.952616396
185.947,262.04284435
185.96,262.12058627
185.962,262.13250917
185.977,262.221614365
185.992,262.310163435
186.007,262.398159855
186.022,262.485607091
186.037,262.572508583
186.052,262.658867753
186.06,262.704705403
186.067,262.744688003
186.082,262.829972711
186.097,262.914725229
186.112,262.998948886
186.127,263.082646987
186.142,263.165822807
186.157,263.248479596
186.172,263.33062057
186.187,263.412248923
186.202,263.493367813
186.217,263.573980371
186.232,263.654089693
186.247,263.733698847
186.262,263.812810859
186.277,263.89142873
186.292,263.969555425
186.307,264.047193873
186.322,264.124346965
186.337,264.201017561
186.352,264.277208486
186.367,264.352922518
186.382,264.428162413
186.397,264.502930876
186.412,264.577230582
186.427,264.651064168
186.442,264.72443423
186.457,264.797343326
186.472,264.869793979
186.487,264.941788667
186.502,265.013329835
186.517,265.084419885
186.532,265.155061181
186.547,265.225256049
186.562,265.295006775
186.577,265.364315602
186.592,265.433184741
186.607,265.501616356
186.622,265.569612581
186.637,265.6371755
186.652,265.704307163
186.667,265.771009586
186.682,265.837284738
186.697,265.903134551
186.71,265.959861802
186.712,265.968560922
186.727,266.033565705
186.742,266.098150723
186.757,266.162317754
186.772,266.226068538
186.787,266.289404783
186.802,266.352328157
186.817,266.414840287
186.832,266.476942771
186.847,266.538637167
186.862,266.599924994
186.877,266.66080774
186.892,266.721286856
186.907,266.781363757
186.922,266.841039825
186.937,266.900316406
186.952,266.959194816
186.967,267.017676331
186.982,267.075762202
186.997,267.133453643
187.012,267.190751832
187.027,267.247657929
187.042,267.304173044
187.057,267.360298272
187.072,267.416034672
187.087,267.471383274
187.102,267.526345075
187.117,267.580921051
187.132,267.63511214
187.147,267.688919262
187.162,267.742343307
187.177,267.795385136
187.192,267.848045581
187.207,267.900325459
187.222,267.952225555
187.237,268.003746627
187.252,268.054889417
187.267,268.105654636
187.282,268.15604298
187.297,268.206055114
187.312,268.255691687
187.327,268.304953331
187.342,268.353840647
187.357,268.402354223
187.372,268.45049463
187.387,268.498262413
187.402,268.545658105
187.417,268.592682216
187.432,268.639335247
187.447,268.685617675
187.46,268.725429694
187.462,268.731529963
187.477,268.777072562
187.492,268.822245904
187.507,268.867050409
187.522,268.911486483
187.537,268.955554521
187.552,268.999254902
187.567,269.042587994
187.582,269.085554156
187.597,269.128153734
187.612,269.170387064
187.627,269.212254472
187.642,269.253756276
187.657,269.294892786
187.672,269.3356643
187.687,269.376071111
187.702,269.416113507
187.717,269.455791767
187.732,269.495106162
187.747,269.53405696
187.762,269.572644427
187.777,269.610868816
187.792,269.648730385
187.807,269.68622938
187.822,269.723366052
187.837,269.760140643
187.852,269.796553397
187.867,269.832604553
187.882,269.868294348
187.897,269.903623024
187.912,269.938590818
187.927,269.973197966
187.942,270.007444704
187.957,270.041331277
187.972,270.074857918
187.987,270.108024875
188.002,270.140832386
188.017,270.173280701
188.032,270.205370065
188.047,270.237100735
188.062,270.268472961
188.077,270.299487002
188.092,270.330143125
188.107,270.360441595
188.122,270.390382685
188.137,270.419966673
188.152,270.449193839
188.167,270.478064475
188.182,270.506578873
188.197,270.534737339
188.21,270.558853666
188.212,270.562540173
188.227,270.589987696
188.242,270.617080225
188.257,270.643818092
188.272,270.67020163
188.287,270.696231188
188.302,270.721907115
188.317,270.747229773
188.332,270.77219953
188.347,270.796816767
188.362,270.821081867
188.377,270.844995229
188.392,270.868557256
188.407,270.891768366
188.422,270.91462898
188.437,270.937139537
188.452,270.959300476
188.467,270.981112256
188.482,271.002575339
188.497,271.023690202
188.512,271.044457329
188.527,271.064877219
188.542,271.084950375
188.557,271.104677319
188.572,271.124058578
188.587,271.143094693
188.602,271.161786214
188.617,271.180133703
188.632,271.198137737
188.647,271.215798899
188.66,271.230828355
188.662,271.233117787
188.677,271.250095006
188.692,271.266731178
188.707,271.283026935
188.722,271.298982918
188.737,271.314599783
