# 01004 ENAS Ny-Alesund Ii Observations at 12Z 25 May 2019
Frequency [GHz],TB
175.31,237.596202155
175.322,237.66092052
175.337,237.741864635
175.352,237.822858899
175.367,237.903902081
175.382,237.984992937
175.397,238.066130204
175.412,238.147312608
175.427,238.228538857
175.442,238.309807647
175.457,238.391117661
175.472,238.47246756
175.487,238.553855997
175.502,238.635281605
175.517,238.716743007
175.532,238.798238806
175.547,238.879767588
175.562,238.961327931
175.577,239.042918388
175.592,239.124537506
175.607,239.206183807
175.622,239.287855803
175.637,239.369551987
175.652,239.451270839
175.667,239.533010819
175.682,239.614770375
175.697,239.696547933
175.712,239.778341908
175.727,239.860150695
175.742,239.941972674
175.757,240.023806207
175.772,240.105649643
175.787,240.187501308
175.802,240.269359515
175.817,240.351222559
175.832,240.433088718
175.847,240.514956253
175.862,240.596823408
175.877,240.678688407
175.892,240.76054946
175.907,240.842404758
175.922,240.924252474
175.937,241.006090765
175.952,241.087917767
175.967,241.169731601
175.982,241.25153037
175.997,241.333312157
176.012,241.415075028
176.027,241.496817034
176.042,241.578536199
176.057,241.660230541
176.072,241.74189805
176.087,241.823536702
176.102,241.905144453
176.117,241.98671924
176.132,242.068258986
176.147,242.149761588
176.162,242.231224931
176.177,242.312646877
176.192,242.394025273
176.207,242.475357942
176.222,242.556642693
176.237,242.637877314
176.252,242.719059575
176.267,242.800187226
176.282,242.881257998
176.297,242.962269604
176.31,243.032430022
176.312,243.043219737
176.327,243.124106071
176.342,243.204926263
176.357,243.285677947
176.372,243.366358739
176.387,243.44696624
176.402,243.527498026
176.417,243.607951655
176.432,243.68832467
176.447,243.76861459
176.46,243.838130041
176.462,243.848818916
176.477,243.928935133
176.492,244.008960701
176.507,244.088893064
176.522,244.168729648
176.537,244.248467858
176.552,244.328105079
176.567,244.407638679
176.582,244.487066006
176.597,244.566384386
176.612,244.645591131
176.627,244.724683532
176.642,244.803658857
176.657,244.882514361
176.672,244.961247276
176.687,245.039854816
176.702,245.118334178
176.717,245.196682538
176.732,245.274897053
176.747,245.352974864
176.762,245.430913091
176.777,245.508708833
176.792,245.586359179
176.807,245.663861187
176.822,245.74121191
176.837,245.818408374
176.852,245.89544759
176.867,245.97232655
176.882,246.049042227
176.897,246.125591579
176.912,246.201971546
176.927,246.278179047
176.942,246.354210987
176.957,246.430064254
176.972,246.505735714
176.987,246.581222223
177.002,246.656520613
177.017,246.731627704
177.032,246.806540298
177.047,246.881255181
177.062,246.955769122
177.077,247.030078874
177.092,247.104181176
177.107,247.178072747
177.122,247.251750296
177.137,247.325210511
177.152,247.398450071
177.167,247.471465634
177.182,247.544253847
177.197,247.616811343
177.21,247.679505267
177.212,247.689134739
177.227,247.761220639
177.242,247.833065632
177.257,247.904666296
177.272,247.976019192
177.287,248.047120873
177.302,248.117967876
177.31,248.15564761
177.317,248.188556726
177.332,248.258883937
177.347,248.32894601
177.362,248.398739437
177.377,248.468260695
177.392,248.537506254
177.407,248.606472569
177.422,248.675156091
177.437,248.743553257
177.452,248.811660494
177.467,248.879474223
177.482,248.946990855
177.497,249.01420679
177.512,249.081118427
177.527,249.147722148
177.542,249.214014336
177.557,249.279991361
177.572,249.345649594
177.587,249.410985394
177.602,249.475995117
177.617,249.540675111
177.632,249.605021726
177.647,249.6690313
177.66,249.724230809
177.662,249.732700175
177.677,249.796024684
177.692,249.85900116
177.707,249.921625935
177.722,249.983895336
177.737,250.045805693
177.752,250.107353332
177.767,250.168534579
177.782,250.229345765
177.797,250.289783215
177.812,250.349843265
177.827,250.409522242
177.842,250.468816485
177.857,250.527722332
177.872,250.586236127
177.887,250.644354215
177.902,250.702072949
177.917,250.75938869
177.932,250.816297801
177.947,250.872796654
177.96,250.921427675
177.962,250.928881629
177.977,250.984549115
177.992,251.039795509
178.007,251.094617217
178.022,251.149010657
178.037,251.202972258
178.052,251.25649846
178.067,251.309585715
178.082,251.362230492
178.097,251.414429268
178.112,251.466178539
178.127,251.517474815
178.142,251.568314622
178.157,251.618694506
178.172,251.668611027
178.187,251.718060763
178.202,251.767040314
178.217,251.815546301
178.232,251.863575361
178.247,251.911124157
178.262,251.958189372
178.277,252.004767715
178.292,252.050855916
178.307,252.096450731
178.322,252.141548943
178.337,252.18614736
178.352,252.230242819
178.367,252.273832182
178.382,252.316912344
178.397,252.35948023
178.41,252.395955665
178.412,252.40153279
178.427,252.443067012
178.442,252.484079915
178.457,252.52456855
178.472,252.564530004
178.487,252.603961397
178.502,252.642859887
178.517,252.681222667
178.532,252.71904697
178.547,252.756330069
178.562,252.79306927
178.577,252.829261926
178.592,252.864905431
178.607,252.899997215
178.622,252.934534758
178.637,252.96851558
178.652,253.00193725
178.667,253.034797377
178.682,253.067093621
178.697,253.098823688
178.712,253.129985333
178.727,253.160576359
178.742,253.190594621
178.757,253.220038022
178.772,253.248904519
178.787,253.277192123
178.802,253.304898896
178.817,253.332022954
178.832,253.358562471
178.847,253.384515675
178.862,253.409880849
178.877,253.434656339
178.892,253.458840545
178.907,253.482431925
178.922,253.505429004
178.937,253.527830357
178.952,253.549634632
178.967,253.570840532
178.982,253.591446822
178.997,253.611452337
179.012,253.630855969
179.027,253.649656683
179.042,253.667853501
179.057,253.685445519
179.072,253.702431894
179.087,253.718811856
179.102,253.734584698
179.117,253.749749785
179.132,253.764306551
179.147,253.778254499
179.16,253.789849924
179.162,253.791593204
179.177,253.804322308
179.192,253.81644153
179.207,253.827950658
179.222,253.838849549
179.237,253.849138139
179.252,253.858816433
179.267,253.86788451
179.282,253.876342523
179.297,253.884190699
179.312,253.891429342
179.327,253.898058824
179.342,253.904079599
179.357,253.909492193
179.372,253.914297205
179.387,253.918495312
179.402,253.922087266
179.417,253.925073896
179.432,253.927456102
179.447,253.929234864
179.462,253.930411236
179.477,253.930986347
179.492,253.930961404
179.507,253.930337683
179.522,253.929116542
179.537,253.927299411
179.552,253.924887794
179.567,253.921883272
179.582,253.918287497
179.597,253.914102197
179.612,253.909329172
179.627,253.903970298
179.642,253.89802752
179.657,253.891502856
179.672,253.884398397
179.687,253.876716305
179.702,253.868458811
179.717,253.859628217
179.732,253.850226896
179.747,253.840257283
179.762,253.82972189
179.777,253.818623289
179.792,253.80696412
179.807,253.79474709
179.822,253.78197497
179.837,253.76865059
179.852,253.754776852
179.867,253.740356709
179.882,253.725393182
179.897,253.709889347
179.91,253.696018067
179.912,253.693848343
179.927,253.677273365
179.942,253.660167655
179.957,253.642534526
179.972,253.624377331
179.987,253.605699484
180.002,253.586504444
180.017,253.566795722
180.032,253.54657688
180.047,253.525851524
180.062,253.504623305
180.077,253.482895921
180.092,253.46067311
180.107,253.437958653
180.122,253.414756368
180.137,253.391070116
180.152,253.366903787
180.167,253.342261315
180.182,253.317146659
180.197,253.291563817
180.212,253.265516811
180.227,253.239009694
180.242,253.212046546
180.257,253.184631471
180.272,253.1567686
180.287,253.128462078
180.302,253.099716078
180.317,253.070534788
180.332,253.040922412
180.347,253.010883167
180.362,252.980421288
180.377,252.949541018
180.392,252.918246609
180.407,252.886542324
180.422,252.854432428
180.437,252.821921194
180.452,252.789012899
180.467,252.755711815
180.482,252.72202222
180.497,252.687948386
180.512,252.653494582
180.527,252.618665073
180.542,252.583464115
180.557,252.547895956
180.56,252.540738634
180.572,252.511964835
180.587,252.475674978
180.602,252.439030599
180.617,252.402035897
180.632,252.364695054
180.647,252.327012237
180.66,252.294080381
180.662,252.288991592
180.677,252.250637245
180.692,252.211953305
180.707,252.172943854
180.722,252.133612952
180.737,252.093964635
180.752,252.05400291
180.767,252.013731763
180.782,251.973155148
180.797,251.932276993
180.812,251.891101194
180.827,251.849631619
180.842,251.807872105
180.857,251.765826456
180.872,251.723498445
180.887,251.680891814
180.902,251.638010268
180.917,251.594857484
180.932,251.551437101
180.947,251.507752726
180.962,251.463807932
180.977,251.419606258
180.992,251.37515121
181.007,251.330446258
181.022,251.285494839
181.037,251.240300359
181.052,251.194866187
181.067,251.149195663
181.082,251.103292094
181.097,251.057158756
181.112,251.010798891
181.127,250.964215717
181.142,250.91741242
181.157,250.870392155
181.172,250.823158058
181.187,250.775713232
181.202,250.728060761
181.217,250.680203702
181.232,250.632145096
181.247,250.583887957
181.262,250.535435288
181.277,250.486790072
181.292,250.437955278
181.307,250.388933865
181.31,250.379107447
181.322,250.339728778
181.337,250.290342958
181.352,250.24077934
181.367,250.191040853
181.382,250.141130427
181.397,250.091050995
181.412,250.040805494
181.427,249.990396867
181.442,249.939828072
181.457,249.889102077
181.472,249.838221866
181.487,249.787190448
181.502,249.736010852
181.517,249.684686135
181.532,249.633219386
181.547,249.581613726
181.562,249.529872315
181.577,249.477998356
181.592,249.425995101
181.607,249.373865846
181.622,249.321613948
181.637,249.269242818
181.652,249.216755936
181.667,249.164156845
181.682,249.111449165
181.697,249.05863659
181.712,249.005722897
181.727,248.952711954
181.742,248.899607718
181.757,248.846414246
181.772,248.793135696
181.787,248.739776335
181.802,248.686340543
181.817,248.632832822
181.832,248.579257795
181.847,248.52562022
181.862,248.47192499
181.877,248.418177137
181.892,248.364381845
181.907,248.310544452
181.922,248.256670456
181.937,248.202765519
181.952,248.148835479
181.967,248.094886351
181.982,248.040924338
181.997,247.986955829
182.012,247.932987417
182.027,247.879025893
182.042,247.825078265
182.057,247.771151752
182.06,247.760369635
182.072,247.717253802
182.087,247.663392089
182.102,247.609574525
182.117,247.555809261
182.132,247.502104702
182.147,247.448469504
182.162,247.394912585
182.177,247.341443129
182.192,247.288070596
182.207,247.234804725
182.222,247.181655533
182.237,247.128633336
182.252,247.07574874
182.267,247.023012652
182.282,246.970436287
182.297,246.918031167
182.312,246.865809133
182.327,246.813782342
182.342,246.761963275
182.357,246.710364736
182.372,246.658999866
182.387,246.607882129
182.402,246.557025331
182.417,246.50644361
182.432,246.456151444
182.447,246.406163649
182.462,246.356495377
182.477,246.307162123
182.492,246.258179716
182.507,246.209564322
182.522,246.161332438
182.537,246.113500894
182.552,246.066086844
182.567,246.01910776
182.582,245.972581432
182.597,245.926525959
182.612,245.880959737
182.627,245.835901453
182.642,245.791370078
182.657,245.747384846
182.672,245.703965255
182.687,245.661131042
182.702,245.618902173
182.717,245.577298825
182.732,245.536341369
182.747,245.496050351
182.762,245.456446468
182.777,245.417550548
182.792,245.379383526
182.807,245.341966419
182.822,245.305320298
182.837,245.269466255
182.852,245.234425383
182.867,245.20021873
182.882,245.166867277
182.897,245.134391898
182.912,245.102813323
182.927,245.072152099
182.942,245.042428553
182.957,245.013662749
182.972,244.985874447
182.987,244.959083057
183.002,244.9333076
183.017,244.908566657
183.032,244.884878327
183.047,244.862260181
183.062,244.840729216
183.077,244.820301806
183.092,244.800993658
183.107,244.782819771
183.122,244.765794383
183.137,244.749930935
183.152,244.735242027
183.167,244.721739378
183.182,244.709433785
183.197,244.698335092
183.212,244.688452155
183.227,244.679792812
183.242,244.672363853
183.257,244.666171001
183.367,244.658799073
183.382,244.662980895
183.397,244.668398468
183.412,244.675046
183.427,244.682916631
183.442,244.692002463
183.457,244.702294581
183.472,244.713783089
183.487,244.726457139
183.502,244.74030497
183.517,244.755313946
183.532,244.771470598
183.547,244.78876066
183.562,244.807169115
183.577,244.826680247
183.592,244.847277673
183.607,244.868944395
183.622,244.891662853
183.637,244.915414957
183.652,244.940182144
183.667,244.965945418
183.682,244.992685395
183.697,245.020382348
183.712,245.049016251
183.727,245.078566821
183.742,245.109013554
183.757,245.140335771
183.772,245.172512649
183.787,245.205523264
183.802,245.239346621
183.817,245.27396169
183.832,245.309347436
183.847,245.345482857
183.862,245.382346995
183.877,245.41991898
183.892,245.458178049
183.907,245.497103569
183.922,245.536675059
183.937,245.576872211
183.952,245.617674913
183.967,245.659063261
183.982,245.70101758
183.997,245.743518434
184.012,245.786546645
184.027,245.830083302
184.042,245.874109772
184.057,245.918607715
184.072,245.963559084
184.087,246.008946142
184.102,246.054751464
184.117,246.100957942
184.132,246.147548796
184.147,246.194507568
184.162,246.241818135
184.177,246.289464708
184.192,246.337431833
184.207,246.385704394
184.222,246.434267608
184.237,246.483107032
184.252,246.532208561
184.267,246.581558424
184.282,246.631143184
184.297,246.680949732
184.312,246.730965293
184.327,246.781177416
184.342,246.831573972
184.357,246.882143152
184.372,246.932873461
184.387,246.983753715
184.402,247.034773039
184.417,247.085920856
184.432,247.137186888
184.447,247.188561147
184.462,247.240033935
184.477,247.29159583
184.492,247.343237692
184.507,247.394950642
184.522,247.446726073
184.537,247.498555633
184.552,247.550431224
184.56,247.578114305
184.567,247.602344992
184.582,247.654289323
184.597,247.706256842
184.612,247.758240398
184.627,247.810233066
184.642,247.862228132
184.657,247.914219096
184.672,247.966199666
184.687,248.01816374
184.702,248.070105412
184.717,248.122018964
184.732,248.173898857
184.747,248.225739728
184.762,248.277536378
184.777,248.329283781
184.792,248.380977056
184.807,248.432611484
184.822,248.484182488
184.837,248.535685633
184.852,248.587116618
184.867,248.638471277
184.882,248.689745561
184.897,248.740935549
184.912,248.792037432
184.927,248.84304751
184.942,248.893962188
184.957,248.944777975
184.972,248.995491472
184.987,249.046099372
185.002,249.096598456
185.017,249.146985587
185.032,249.197257704
185.047,249.247411823
185.062,249.297445028
185.077,249.34735447
185.092,249.397137357
185.107,249.446790964
185.122,249.496312611
185.137,249.545699677
185.152,249.594949582
185.167,249.644059791
185.182,249.693027811
185.197,249.741851186
185.212,249.790527494
185.227,249.839054343
185.242,249.887429369
185.257,249.935650236
185.272,249.983714627
185.287,250.031620247
185.302,250.079364815
185.31,250.104761951
185.317,250.126946069
185.332,250.174361759
185.347,250.221609642
185.362,250.268687483
185.377,250.315593057
185.392,250.362324136
185.407,250.408878499
185.422,250.455253926
185.437,250.501448187
185.452,250.547459057
185.467,250.5932843
185.482,250.638921679
185.497,250.684368942
185.512,250.729623831
185.527,250.774684078
185.542,250.819547402
185.557,250.864211506
185.572,250.908674084
185.587,250.95293281
185.602,250.996985345
185.617,251.040829331
185.632,251.084462394
185.647,251.12788214
185.662,251.171086156
185.677,251.214072013
185.692,251.256837256
185.707,251.299379415
185.722,251.341695994
185.737,251.383784482
185.752,251.425642344
185.767,251.467267021
185.782,251.508655936
185.797,251.549806488
185.812,251.590716059
185.827,251.631382003
185.842,251.67180166
185.857,251.711972341
185.872,251.751891345
185.887,251.791555941
185.902,251.830963386
185.917,251.870110914
185.932,251.908995739
185.947,251.947615057
185.96,251.980868187
185.962,251.985966046
185.977,252.024045866
185.992,252.061851661
186.007,252.099380556
186.022,252.136629662
186.037,252.173596077
186.052,252.21027688
186.06,252.22972218
186.067,252.24666914
186.082,252.282769914
186.097,252.318576246
186.112,252.354085168
186.127,252.389293704
186.142,252.424198869
186.157,252.45879767
186.172,252.493087104
186.187,252.527064168
186.202,252.560725848
186.217,252.594069131
186.232,252.627090995
186.247,252.659788425
186.262,252.692158399
186.277,252.724197897
186.292,252.755903901
186.307,252.787273396
186.322,252.81830337
186.337,252.848990819
186.352,252.87933274
186.367,252.909326141
186.382,252.93896804
186.397,252.96825546
186.412,252.997185439
186.427,253.025755026
186.442,253.053961282
186.457,253.081801283
186.472,253.109272124
186.487,253.136370909
186.502,253.163094767
186.517,253.189440843
186.532,253.215406305
186.547,253.240988336
186.562,253.266184148
186.577,253.290990974
186.592,253.315406069
186.607,253.339426721
186.622,253.363050235
186.637,253.386273951
186.652,253.409095235
186.667,253.431511486
186.682,253.453520127
186.697,253.47511862
186.71,253.493503611
186.712,253.496304458
186.727,253.517075164
186.742,253.537428301
186.757,253.557361464
186.772,253.576872286
186.787,253.595958438
186.802,253.614617627
186.817,253.632847603
186.832,253.650646151
186.847,253.6680111
186.862,253.684940319
186.877,253.701431722
186.892,253.717483262
186.907,253.733092936
186.922,253.748258789
186.937,253.762978908
186.952,253.777251425
186.967,253.79107452
186.982,253.804446418
186.997,253.817365393
187.012,253.829829766
187.027,253.841837906
187.042,253.853388231
187.057,253.864479209
187.072,253.875109355
187.087,253.885277236
187.102,253.894981471
187.117,253.904220725
187.132,253.912993721
187.147,253.921299225
187.162,253.929136064
187.177,253.936503106
187.192,253.943399282
187.207,253.949823569
187.222,253.955774998
187.237,253.961252651
187.252,253.966255667
187.267,253.970783232
187.282,253.974834593
187.297,253.978409041
187.312,253.981505927
187.327,253.984124652
187.342,253.986264672
187.357,253.987925491
187.372,253.989106677
187.387,253.989807837
187.402,253.99002864
187.417,253.989768809
187.432,253.989028112
187.447,253.987806378
187.46,253.986358339
187.462,253.986103482
187.477,253.983919355
187.492,253.981253978
187.507,253.978107386
187.522,253.974479662
187.537,253.970370944
187.552,253.965781419
187.567,253.960711326
187.582,253.955160955
187.597,253.949130643
187.612,253.942620779
187.627,253.935631804
187.642,253.928164203
187.657,253.920218515
187.672,253.911795324
187.687,253.902895261
187.702,253.89351901
187.717,253.883667298
187.732,253.873340897
187.747,253.862540631
187.762,253.851267367
187.777,253.839522016
187.792,253.827305536
187.807,253.814618928
187.822,253.801463238
187.837,253.787839556
187.852,253.773749014
187.867,253.759192787
187.882,253.744172092
187.897,253.728688186
187.912,253.712742369
187.927,253.696335981
187.942,253.679470398
187.957,253.662147043
187.972,253.64436737
187.987,253.626132875
188.002,253.607445091
188.017,253.588305589
188.032,253.568715974
188.047,253.548677887
188.062,253.528193009
188.077,253.507263046
188.092,253.485889749
188.107,253.464074896
188.122,253.441820299
188.137,253.419127803
188.152,253.395999283
188.167,253.37243665
188.182,253.348441837
188.197,253.324016816
188.21,253.302502015
188.212,253.299163581
188.227,253.27388416
188.242,253.248180606
188.257,253.222054999
188.272,253.195509449
188.287,253.16854609
188.302,253.141167083
188.317,253.11337461
188.332,253.085170883
188.347,253.056558137
188.362,253.027538626
188.377,252.998114631
188.392,252.968288455
188.407,252.93806242
188.422,252.907438869
188.437,252.876420169
188.452,252.845008703
188.467,252.813206874
188.482,252.781017106
188.497,252.74844184
188.512,252.715483531
188.527,252.682144657
188.542,252.648427706
188.557,252.614335188
188.572,252.579869625
188.587,252.545033553
188.602,252.509829525
188.617,252.474260103
188.632,252.43832787
188.647,252.402035413
188.66,252.370292582
188.662,252.365385338
188.677,252.328380256
188.692,252.291022797
188.707,252.253315594
188.722,252.215261296
