# 10410 EDZE Essen Observations at 12Z 05 Sep 2019
Frequency [GHz],TB
175.31,273.369359396
175.322,273.367552404
175.337,273.36515248
175.352,273.362595458
175.367,273.359881102
175.382,273.357009178
175.397,273.353979461
175.412,273.350791728
175.427,273.347445769
175.442,273.343941373
175.457,273.340278339
175.472,273.336456467
175.487,273.33247557
175.502,273.328335463
175.517,273.324035967
175.532,273.31957691
175.547,273.314958126
175.562,273.310179458
175.577,273.305240751
175.592,273.300141858
175.607,273.294882639
175.622,273.289462962
175.637,273.283882698
175.652,273.278141727
175.667,273.272239935
175.682,273.266177215
175.697,273.259953466
175.712,273.253568595
175.727,273.247022514
175.742,273.240315144
175.757,273.233446412
175.772,273.22641625
175.787,273.219224598
175.802,273.211871407
175.817,273.204356628
175.832,273.196680225
175.847,273.188842166
175.862,273.180842425
175.877,273.17268099
175.892,273.164357846
175.907,273.155872993
175.922,273.147226435
175.937,273.138418183
175.952,273.129448259
175.967,273.120316688
175.982,273.111023504
175.997,273.101568747
176.012,273.091952469
176.027,273.082174723
176.042,273.072235573
176.057,273.062135092
176.072,273.051873357
176.087,273.041450454
176.102,273.030866476
176.117,273.020121527
176.132,273.009215713
176.147,272.998149149
176.162,272.98692196
176.177,272.975534279
176.192,272.963986241
176.207,272.952277997
176.222,272.940409697
176.237,272.928381503
176.252,272.916193587
176.267,272.903846121
176.282,272.891339293
176.297,272.878673293
176.31,272.867567496
176.312,272.865848321
176.327,272.852864583
176.342,272.839722295
176.357,272.826421678
176.372,272.81296296
176.387,272.799346381
176.402,272.785572183
176.417,272.771640619
176.432,272.757551947
176.447,272.743306435
176.46,272.73083367
176.462,272.728904358
176.477,272.714345996
176.492,272.699631638
176.507,272.684761582
176.522,272.669736128
176.537,272.654555591
176.552,272.639220287
176.567,272.623730539
176.582,272.608086682
176.597,272.592289056
176.612,272.576338005
176.627,272.560233884
176.642,272.543977052
176.657,272.527567879
176.672,272.511006737
176.687,272.494294008
176.702,272.477430079
176.717,272.460415345
176.732,272.443250208
176.747,272.425935073
176.762,272.408470358
176.777,272.390856479
176.792,272.373093868
176.807,272.355182955
176.822,272.337124181
176.837,272.318917993
176.852,272.300564837
176.867,272.282065178
176.882,272.263419477
176.897,272.244628201
176.912,272.225691828
176.927,272.20661084
176.942,272.187385721
176.957,272.168016964
176.972,272.148505068
176.987,272.128850534
177.002,272.10905387
177.017,272.08911559
177.032,272.069036209
177.047,272.048816255
177.062,272.028456251
177.077,272.007956732
177.092,271.987318234
177.107,271.966541298
177.122,271.945626471
177.137,271.9245743
177.152,271.903385342
177.167,271.882060152
177.182,271.860599295
177.197,271.839003335
177.21,271.82017799
177.212,271.817272839
177.227,271.795408381
177.242,271.773410538
177.257,271.751279887
177.272,271.72901701
177.287,271.706622493
177.302,271.684096923
177.31,271.672029903
177.317,271.661440889
177.332,271.638654986
177.347,271.615739808
177.362,271.592695951
177.377,271.569524016
177.392,271.546224602
177.407,271.522798314
177.422,271.499245756
177.437,271.475567532
177.452,271.45176425
177.467,271.427836518
177.482,271.403784945
177.497,271.37961014
177.512,271.355312713
177.527,271.330893277
177.542,271.306352441
177.557,271.281690817
177.572,271.256909014
177.587,271.232007646
177.602,271.20698732
177.617,271.181848645
177.632,271.156592234
177.647,271.13121869
177.66,271.10913401
177.662,271.105728625
177.677,271.080122636
177.692,271.054401335
177.707,271.028565321
177.722,271.002615192
177.737,270.976551549
177.752,270.950374986
177.767,270.924086097
177.782,270.897685472
177.797,270.871173699
177.812,270.844551365
177.827,270.817819049
177.842,270.790977329
177.857,270.764026781
177.872,270.736967976
177.887,270.709801478
177.902,270.682527853
177.917,270.655147657
177.932,270.627661446
177.947,270.600069766
177.96,270.576072087
177.962,270.572373164
177.977,270.544572177
177.992,270.516667338
178.007,270.488659176
178.022,270.460548213
178.037,270.432334965
178.052,270.404019943
178.067,270.375603649
178.082,270.34708658
178.097,270.31846923
178.112,270.289752081
178.127,270.260935609
178.142,270.232020283
178.157,270.203006565
178.172,270.17389491
178.187,270.144685765
178.202,270.115379566
178.217,270.085976744
178.232,270.05647772
178.247,270.026882907
178.262,269.997192711
178.277,269.967407525
178.292,269.937527734
178.307,269.907553715
178.322,269.877485838
178.337,269.847324456
178.352,269.817069918
178.367,269.786722561
178.382,269.756282712
178.397,269.725750686
178.41,269.699215273
178.412,269.695126789
178.427,269.664411319
178.442,269.633604554
178.457,269.60270677
178.472,269.571718228
178.487,269.540639176
178.502,269.509469854
178.517,269.478210487
178.532,269.446861289
178.547,269.415422461
178.562,269.383894193
178.577,269.352276661
178.592,269.320570031
178.607,269.288774451
178.622,269.256890061
178.637,269.224916985
178.652,269.192855336
178.667,269.16070521
178.682,269.128466692
178.697,269.096139852
178.712,269.063724747
178.727,269.031221419
178.742,268.998629895
178.757,268.965950191
178.772,268.933182302
178.787,268.900326217
178.802,268.867381899
178.817,268.834349308
178.832,268.801228379
178.847,268.76801904
178.862,268.734721194
178.877,268.701334739
178.892,268.667859547
178.907,268.634295481
178.922,268.600642387
178.937,268.566900092
178.952,268.533068411
178.967,268.49914714
178.982,268.465136055
178.997,268.431034923
179.012,268.396843488
179.027,268.36256148
179.042,268.328188612
179.057,268.293724578
179.072,268.259169056
179.087,268.224521706
179.102,268.189782174
179.117,268.154950079
179.132,268.120025033
179.147,268.085006625
179.16,268.054581487
179.162,268.049894424
179.177,268.014687988
179.192,267.979386848
179.207,267.94399052
179.222,267.908498507
179.237,267.872910283
179.252,267.837225311
179.267,267.801443035
179.282,267.765562874
179.297,267.729584236
179.312,267.693506503
179.327,267.65732904
179.342,267.621051196
179.357,267.584672295
179.372,267.548191644
179.387,267.51160853
179.402,267.474922221
179.417,267.438131964
179.432,267.401236986
179.447,267.364236493
179.462,267.327129671
179.477,267.289915688
179.492,267.252593688
179.507,267.215162796
179.522,267.177622117
179.537,267.139970733
179.552,267.102207706
179.567,267.064332077
179.582,267.026342866
179.597,266.988239071
179.612,266.950019667
179.627,266.911683614
179.642,266.87322984
179.657,266.834657261
179.672,266.795964764
179.687,266.757151219
179.702,266.718215468
179.717,266.679156337
179.732,266.639972625
179.747,266.600663113
179.762,266.561226553
179.777,266.52166168
179.792,266.481967205
179.807,266.442141814
179.822,266.402184171
179.837,266.362092915
179.852,266.321866666
179.867,266.281504018
179.882,266.241003541
179.897,266.200363781
179.91,266.165028851
179.912,266.159583261
179.927,266.118660483
179.942,266.077593919
179.957,266.036382023
179.972,265.99502322
179.987,265.953515914
180.002,265.911858485
180.017,265.870049284
180.032,265.828086643
180.047,265.785968865
180.062,265.743694231
180.077,265.701260997
180.092,265.658667392
180.107,265.615911623
180.122,265.57299187
180.137,265.529906287
180.152,265.486653006
180.167,265.44323013
180.182,265.399635741
180.197,265.355867893
180.212,265.311924612
180.227,265.267803903
180.242,265.223503745
180.257,265.179022088
180.272,265.134356861
180.287,265.089505965
180.302,265.044467275
180.317,264.999238641
180.332,264.953817888
180.347,264.908202815
180.362,264.862391197
180.377,264.816380779
180.392,264.770169287
180.407,264.723754418
180.422,264.67713384
180.437,264.630305205
180.452,264.583266132
180.467,264.536014218
180.482,264.488547035
180.497,264.44086213
180.512,264.392957026
180.527,264.34482922
180.542,264.296476185
180.557,264.247895374
180.56,264.238151652
180.572,264.199084208
180.587,264.150040094
180.602,264.100760407
180.617,264.051242504
180.632,264.001483719
180.647,263.951481361
180.66,263.907946864
180.662,263.901232716
180.677,263.850735055
180.692,263.799985619
180.707,263.748981633
180.722,263.697720301
180.737,263.646198804
180.752,263.594414309
180.767,263.542363958
180.782,263.490044877
180.797,263.437454173
180.812,263.38458894
180.827,263.331446247
180.842,263.278023153
180.857,263.2243167
180.872,263.170323917
180.887,263.116041816
180.902,263.061467399
180.917,263.006597651
180.932,262.951429554
180.947,262.895960071
180.962,262.840186162
180.977,262.784104776
180.992,262.727712854
181.007,262.671007333
181.022,262.613985143
181.037,262.556643212
181.052,262.498978467
181.067,262.44098783
181.082,262.382668226
181.097,262.32401658
181.112,262.265029826
181.127,262.205704894
181.142,262.146038728
181.157,262.086028277
181.172,262.0256705
181.187,261.964962369
181.202,261.90390087
181.217,261.842483002
181.232,261.780705785
181.247,261.718566259
181.262,261.656061481
181.277,261.593188541
181.292,261.529944549
181.307,261.466326648
181.31,261.453557948
181.322,261.402332008
181.337,261.33795784
181.352,261.273201386
181.367,261.208059933
181.382,261.142530809
181.397,261.076611386
181.412,261.010299086
181.427,260.943591384
181.442,260.876485812
181.457,260.808979956
181.472,260.741071467
181.487,260.672758063
181.502,260.604037535
181.517,260.534907737
181.532,260.46536661
181.547,260.395412176
181.562,260.325042538
181.577,260.254255893
181.592,260.183050531
181.607,260.111424844
181.622,260.039377325
181.637,259.966906577
181.652,259.894011319
181.667,259.820690386
181.682,259.746942742
181.697,259.672767477
181.712,259.598163818
181.727,259.523131133
181.742,259.44766894
181.757,259.371776907
181.772,259.295454865
181.787,259.218702808
181.802,259.141520907
181.817,259.063909509
181.832,258.985869147
181.847,258.907400554
181.862,258.828504655
181.877,258.749182594
181.892,258.66943572
181.907,258.589265616
181.922,258.508674088
181.937,258.427663192
181.952,258.346235222
181.967,258.264392738
181.982,258.182138563
181.997,258.099475792
182.012,258.016407803
182.027,257.932938275
182.042,257.84907118
182.057,257.764810805
182.06,257.747911936
182.072,257.680161759
182.087,257.595128982
182.102,257.509717749
182.117,257.423933693
182.132,257.337782803
182.147,257.251271436
182.162,257.164406331
182.177,257.077194617
182.192,256.989643819
182.207,256.901761872
182.222,256.81355713
182.237,256.725038369
182.252,256.636214802
182.267,256.547096089
182.282,256.457692334
182.297,256.368014105
182.312,256.27807243
182.327,256.187878808
182.342,256.097445214
182.357,256.006784097
182.372,255.91590839
182.387,255.8248315
182.402,255.733567319
182.417,255.642130211
182.432,255.550535012
182.447,255.458797018
182.462,255.366931981
182.477,255.274956084
182.492,255.18288594
182.507,255.090738551
182.522,254.998531297
182.537,254.906281898
182.552,254.814008379
182.567,254.721729029
182.582,254.629462346
182.597,254.537226984
182.612,254.445041689
182.627,254.352925217
182.642,254.260896252
182.657,254.168973314
182.672,254.077174641
182.687,253.985518068
182.702,253.894020896
182.717,253.802699732
182.732,253.711570315
182.747,253.620647332
182.762,253.529944202
182.777,253.43947285
182.792,253.349243439
182.807,253.259264111
182.822,253.169540661
182.837,253.080076229
182.852,252.990870938
182.867,252.901921522
182.882,252.813220941
182.897,252.724757973
182.912,252.636516814
182.927,252.548476683
182.942,252.460611465
182.957,252.37288941
182.972,252.285272945
182.987,252.197718639
183.002,252.110177419
183.017,252.022595134
183.032,251.934913635
183.047,251.847072553
183.062,251.759012071
183.077,251.67067705
183.092,251.582022991
183.107,251.493024463
183.122,251.403686867
183.137,251.314062623
183.152,251.22427339
183.167,251.134540603
183.182,251.045227952
183.197,250.956901692
183.212,250.87041795
183.227,250.787048972
183.242,250.708655266
183.257,250.637879367
183.367,250.641068336
183.382,250.710495025
183.397,250.786822738
183.412,250.867623339
183.427,250.951202757
183.442,251.036407296
183.457,251.122462985
183.472,251.208860411
183.487,251.295275391
183.502,251.381513947
183.517,251.467473309
183.532,251.553113782
183.547,251.638438227
183.562,251.723477114
183.577,251.808277688
183.592,251.892896224
183.607,251.977392569
183.622,252.061826387
183.637,252.146254659
183.652,252.230730093
183.667,252.315300186
183.682,252.400006743
183.697,252.484885738
183.712,252.569967381
183.727,252.655276338
183.742,252.740832041
183.757,252.826649054
183.772,252.912737472
183.787,252.999103322
183.802,253.085748949
183.817,253.172673418
183.832,253.259872865
183.847,253.347340855
183.862,253.435068687
183.877,253.523045705
183.892,253.611259554
183.907,253.699696448
183.922,253.788341382
183.937,253.877178338
183.952,253.966190479
183.967,254.05536031
183.982,254.144669826
183.997,254.234100649
184.012,254.32363415
184.027,254.413251547
184.042,254.502934008
184.057,254.592662727
184.072,254.682419001
184.087,254.772184295
184.102,254.86194029
184.117,254.951668936
184.132,255.041352499
184.147,255.130973583
184.162,255.220515174
184.177,255.309960653
184.192,255.399293826
184.207,255.488498933
184.222,255.577560664
184.237,255.666464172
184.252,255.755195079
184.267,255.843739477
184.282,255.932083932
184.297,256.02021549
184.312,256.10812167
184.327,256.195790465
184.342,256.283210336
184.357,256.370370211
184.372,256.457259474
184.387,256.543867962
184.402,256.630185961
184.417,256.716204188
184.432,256.801913796
184.447,256.887306354
184.462,256.972373845
184.477,257.057108654
184.492,257.141503556
184.507,257.225551717
184.522,257.309246667
184.537,257.392582306
184.552,257.47555289
184.56,257.51965272
184.567,257.558153012
184.582,257.640377607
184.597,257.722221935
184.612,257.803681565
184.627,257.884752378
184.642,257.965430554
184.657,258.045712554
184.672,258.125595123
184.687,258.205075274
184.702,258.284150279
184.717,258.362817669
184.732,258.441075211
184.747,258.518920915
184.762,258.596353014
184.777,258.673369966
184.792,258.749970435
184.807,258.826153295
184.822,258.901917616
184.837,258.97726266
184.852,259.052187868
184.867,259.126692862
184.882,259.200777432
184.897,259.274441533
184.912,259.347685276
184.927,259.420508923
184.942,259.492912882
184.957,259.564897701
184.972,259.636464059
184.987,259.707612766
185.002,259.778344757
185.017,259.848661079
185.032,259.918562897
185.047,259.988051478
185.062,260.057128198
185.077,260.125794531
185.092,260.194052041
185.107,260.261902385
185.122,260.329347303
185.137,260.39638862
185.152,260.463028234
185.167,260.52926812
185.182,260.595110321
185.197,260.660556947
185.212,260.72561017
185.227,260.79027222
185.242,260.854545386
185.257,260.918432009
185.272,260.981934477
185.287,261.045055227
185.302,261.10779674
185.31,261.141104682
185.317,261.170161535
185.332,261.232152174
185.347,261.29377125
185.362,261.355021393
185.377,261.41590526
185.392,261.476425539
185.407,261.536584941
185.422,261.596386206
185.437,261.655832089
185.452,261.71492537
185.467,261.773668843
185.482,261.832065318
185.497,261.890117623
185.512,261.947828592
185.527,262.005201073
185.542,262.062237921
185.557,262.118942001
185.572,262.175316178
185.587,262.231363328
185.602,262.287086322
185.617,262.342488041
185.632,262.397571356
185.647,262.452339146
185.662,262.506794284
185.677,262.560939634
185.692,262.614778065
185.707,262.668312433
185.722,262.72154559
185.737,262.774480379
185.752,262.827119637
185.767,262.879466188
185.782,262.931522848
185.797,262.98329242
185.812,263.034777695
185.827,263.085981453
185.842,263.136906459
185.857,263.187555467
185.872,263.237931212
185.887,263.288036414
185.902,263.33787378
185.917,263.387446
185.932,263.436755744
185.947,263.48580567
185.96,263.528107479
185.962,263.534598412
185.977,263.58313659
185.992,263.631422803
186.007,263.679459633
186.022,263.727249642
186.037,263.774795369
186.052,263.822099339
186.06,263.847230134
186.067,263.869164051
186.082,263.915991987
186.097,263.962585606
186.112,264.008947345
186.127,264.055079625
186.142,264.100984841
186.157,264.146665364
186.172,264.19212355
186.187,264.237361729
186.202,264.282382209
186.217,264.327187275
186.232,264.371779193
186.247,264.4161602
186.262,264.46033252
186.277,264.504298347
186.292,264.548059854
186.307,264.591619193
186.322,264.634978493
186.337,264.678139859
186.352,264.721105373
186.367,264.763877096
186.382,264.806457066
186.397,264.848847299
186.412,264.891049785
186.427,264.933066493
186.442,264.97489937
186.457,265.016550342
186.472,265.058021311
186.487,265.099314155
186.502,265.14043073
186.517,265.181372874
186.532,265.222142396
186.547,265.262741088
186.562,265.303170718
186.577,265.343433031
186.592,265.383529751
186.607,265.423462583
186.622,265.463233205
186.637,265.502843277
186.652,265.542294435
186.667,265.581588299
186.682,265.62072646
186.697,265.659710493
186.71,265.693373183
186.712,265.698541949
186.727,265.737222364
186.742,265.775753244
186.757,265.814136083
186.772,265.852372347
186.787,265.890463487
186.802,265.928410932
186.817,265.966216091
186.832,266.003880349
186.847,266.041405079
186.862,266.078791628
186.877,266.116041326
186.892,266.153155481
186.907,266.190135385
186.922,266.226982308
186.937,266.263697503
186.952,266.300282201
186.967,266.336737617
186.982,266.373064946
186.997,266.409265366
187.012,266.445340035
187.027,266.481290092
187.042,266.51711666
187.057,266.552820842
187.072,266.588403724
187.087,266.623866375
187.102,266.659209845
187.117,266.694435168
187.132,266.729543358
187.147,266.764535416
187.162,266.799412321
187.177,266.834175041
187.192,266.86882452
187.207,266.903361693
187.222,266.937787472
187.237,266.972102754
187.252,267.006308425
187.267,267.040405348
187.282,267.074394374
187.297,267.108276337
187.312,267.142052055
187.327,267.17572233
187.342,267.20928795
187.357,267.242749687
187.372,267.276108296
187.387,267.309364521
187.402,267.342519088
187.417,267.375572709
187.432,267.408526078
187.447,267.441379883
187.46,267.469773157
187.462,267.474134787
187.477,267.506791446
187.492,267.539350501
187.507,267.571812575
187.522,267.604178281
187.537,267.636448216
187.552,267.668622965
187.567,267.700703097
187.582,267.732689169
187.597,267.764581726
187.612,267.796381299
187.627,267.828088404
187.642,267.859703545
187.657,267.891227215
187.672,267.922659891
187.687,267.954002042
187.702,267.98525412
187.717,268.016416564
187.732,268.047489809
187.747,268.078474268
187.762,268.109370346
187.777,268.140178437
187.792,268.170898922
187.807,268.201532172
187.822,268.232078543
187.837,268.262538385
187.852,268.292912029
187.867,268.323199802
187.882,268.353402019
187.897,268.38351898
187.912,268.413550976
187.927,268.443498288
187.942,268.473361188
187.957,268.503139934
187.972,268.532834774
187.987,268.562445952
188.002,268.591973693
188.017,268.621418215
188.032,268.650779731
188.047,268.680058438
188.062,268.709254525
188.077,268.738368175
188.092,268.767399555
188.107,268.79634883
188.122,268.82521615
188.137,268.854001659
188.152,268.882705491
188.167,268.911327771
188.182,268.939868617
188.197,268.968328136
188.21,268.992927346
188.212,268.996706429
188.227,269.025003584
188.242,269.053219689
188.257,269.081354815
188.272,269.10940903
188.287,269.137382395
188.302,269.165274957
188.317,269.193086763
188.332,269.22081785
188.347,269.248468242
188.362,269.276037966
188.377,269.303527031
188.392,269.330935449
188.407,269.358263216
188.422,269.385510329
188.437,269.412676771
188.452,269.439762526
188.467,269.466767564
188.482,269.493691854
188.497,269.520535357
188.512,269.547298028
188.527,269.573979815
188.542,269.600580663
188.557,269.627100507
188.572,269.65353928
188.587,269.679896907
188.602,269.70617331
188.617,269.732368403
188.632,269.758482098
188.647,269.784514298
188.66,269.807009542
188.662,269.810464905
188.677,269.836333813
188.692,269.862120912
188.707,269.887826091
188.722,269.913449229
188.737,269.938990203
