# 48698 WSSS Singapore Observations at 12Z 21 Oct 2019
Frequency [GHz],TB
175.31,275.157596224
175.322,275.137757749
175.337,275.112904569
175.352,275.08798996
175.367,275.063013706
175.382,275.037975604
175.397,275.012875406
175.412,274.987712906
175.427,274.962487877
175.442,274.937200081
175.457,274.911849299
175.472,274.886435293
175.487,274.86095784
175.502,274.8354167
175.517,274.809811643
175.532,274.784142439
175.547,274.758408842
175.562,274.732610616
175.577,274.706747508
175.592,274.680819303
175.607,274.654825729
175.622,274.628766557
175.637,274.602641541
175.652,274.576450426
175.667,274.55019296
175.682,274.523868899
175.697,274.497477984
175.712,274.471019964
175.727,274.444494569
175.742,274.417901556
175.757,274.391240671
175.772,274.364511628
175.787,274.337714187
175.802,274.310848058
175.817,274.283912993
175.832,274.256908723
175.847,274.22983497
175.862,274.202691469
175.877,274.175477926
175.892,274.148194097
175.907,274.120839681
175.922,274.093414393
175.937,274.06591797
175.952,274.038350122
175.967,274.01071056
175.982,273.982999009
175.997,273.955215153
176.012,273.927358725
176.027,273.899429421
176.042,273.871426946
176.057,273.843351019
176.072,273.81520132
176.087,273.786977555
176.102,273.758679421
176.117,273.730306622
176.132,273.701858838
176.147,273.673335758
176.162,273.644737079
176.177,273.616062495
176.192,273.587311666
176.207,273.558484305
176.222,273.529580063
176.237,273.50059864
176.252,273.471539699
176.267,273.442402927
176.282,273.413187976
176.297,273.383894518
176.31,273.358443108
176.312,273.354522232
176.327,273.325070784
176.342,273.295539825
176.357,273.265929023
176.372,273.236238033
176.387,273.206466507
176.402,273.1766141
176.417,273.146680464
176.432,273.116665252
176.447,273.086568107
176.46,273.060417348
176.462,273.056388659
176.477,273.026126565
176.492,272.995781461
176.507,272.965352966
176.522,272.934840745
176.537,272.904244411
176.552,272.873563578
176.567,272.842797915
176.582,272.811946996
176.597,272.781010472
176.612,272.749987945
176.627,272.718879052
176.642,272.687683375
176.657,272.65640055
176.672,272.625030177
176.687,272.593571849
176.702,272.562025185
176.717,272.530389777
176.732,272.498665214
176.747,272.466851109
176.762,272.434947029
176.777,272.402952586
176.792,272.370867337
176.807,272.338690892
176.822,272.306422814
176.837,272.274062679
176.852,272.241610076
176.867,272.209064551
176.882,272.176425693
176.897,272.143693057
176.912,272.110866196
176.927,272.077944692
176.942,272.044928067
176.957,272.011815907
176.972,271.978607735
176.987,271.945303113
177.002,271.911901571
177.017,271.87840266
177.032,271.844805898
177.047,271.811110845
177.062,271.777317009
177.077,271.743423921
177.092,271.709431112
177.107,271.67533809
177.122,271.641144376
177.137,271.60684948
177.152,271.572452919
177.167,271.537954191
177.182,271.503352796
177.197,271.468648237
177.21,271.438487117
177.212,271.43384001
177.227,271.398927612
177.242,271.36391052
177.257,271.328788234
177.272,271.293560208
177.287,271.258225928
177.302,271.222784892
177.31,271.203839158
177.317,271.187236542
177.332,271.15158036
177.347,271.115815795
177.362,271.079942311
177.377,271.043959362
177.392,271.007866399
177.407,270.971662866
177.422,270.935348212
177.437,270.898921866
177.452,270.862383262
177.467,270.825731845
177.482,270.788967027
177.497,270.752088245
177.512,270.715094893
177.527,270.677986409
177.542,270.640762186
177.557,270.603421638
177.572,270.565964167
177.587,270.528389164
177.602,270.490696021
177.617,270.452884145
177.632,270.414952898
177.647,270.376901668
177.66,270.343826396
177.662,270.338729822
177.677,270.300436744
177.692,270.262021792
177.707,270.22348432
177.722,270.184823703
177.737,270.146039284
177.752,270.107130404
177.767,270.06809641
177.782,270.028936643
177.797,269.989650447
177.812,269.950237121
177.827,269.910696016
177.842,269.871026439
177.857,269.83122771
177.872,269.791299124
177.887,269.751239999
177.902,269.711049634
177.917,269.670727309
177.932,269.630272326
177.947,269.589683961
177.96,269.554398933
177.962,269.548961499
177.977,269.508104211
177.992,269.467111357
178.007,269.425982213
178.022,269.384716017
178.037,269.343312043
178.052,269.301769521
178.067,269.260087695
178.082,269.218265807
178.097,269.176303074
178.112,269.134198743
178.127,269.091952017
178.142,269.049562099
178.157,269.007028207
178.172,268.96434954
178.187,268.921525306
178.202,268.878554674
178.217,268.83543684
178.232,268.792170992
178.247,268.748756275
178.262,268.705191868
178.277,268.661476933
178.292,268.617610617
178.307,268.573592086
178.322,268.529420454
178.337,268.485094873
178.352,268.440614467
178.367,268.395978351
178.382,268.35118566
178.397,268.30623548
178.41,268.267150587
178.412,268.261126929
178.427,268.215859093
178.442,268.170431065
178.457,268.124841935
178.472,268.079090764
178.487,268.033176641
178.502,267.987098602
178.517,267.940855731
178.532,267.894447047
178.547,267.84787162
178.562,267.801128465
178.577,267.754216615
178.592,267.707135091
178.607,267.659882905
178.622,267.612459059
178.637,267.56486256
178.652,267.517092388
178.667,267.469147528
178.682,267.421026962
178.697,267.372729664
178.712,267.324254571
178.727,267.275600659
178.742,267.226766857
178.757,267.177752112
178.772,267.128555357
178.787,267.0791755
178.802,267.029611456
178.817,266.979862144
178.832,266.929926444
178.847,266.879803258
178.862,266.829491455
178.877,266.77898992
178.892,266.728297512
178.907,266.677413079
178.922,266.626335478
178.937,266.575063538
178.952,266.523596101
178.967,266.47193197
178.982,266.420069968
178.997,266.368008906
179.012,266.315747561
179.027,266.263284715
179.042,266.21061917
179.057,266.157749669
179.072,266.104674977
179.087,266.051393834
179.102,265.997904998
179.117,265.944207186
179.132,265.890299113
179.147,265.836179486
179.16,265.789103694
179.162,265.781847025
179.177,265.727300398
179.192,265.672538297
179.207,265.617559395
179.222,265.562362344
179.237,265.506945799
179.252,265.451308393
179.267,265.395448773
179.282,265.339365541
179.297,265.283057308
179.312,265.226522684
179.327,265.16976024
179.342,265.112768564
179.357,265.055546222
179.372,264.998091763
179.387,264.940403746
179.402,264.882480685
179.417,264.824321113
179.432,264.76592354
179.447,264.707286475
179.462,264.648408386
179.477,264.589287767
179.492,264.529923069
179.507,264.470312764
179.522,264.410455274
179.537,264.350349055
179.552,264.289992495
179.567,264.22938403
179.582,264.168522031
179.597,264.107404898
179.612,264.046030988
179.627,263.984398676
179.642,263.922506295
179.657,263.86035218
179.672,263.79793466
179.687,263.73525203
179.702,263.672302593
179.717,263.609084635
179.732,263.54559643
179.747,263.481836231
179.762,263.417802282
179.777,263.353492824
179.792,263.288906068
179.807,263.224040216
179.822,263.158893481
179.837,263.093464028
179.852,263.02775003
179.867,262.961749644
179.882,262.895461009
179.897,262.828882249
179.91,262.770944545
179.912,262.762011501
179.927,262.694846836
179.942,262.62738636
179.957,262.559628155
179.972,262.491570278
179.987,262.423210777
180.002,262.35454769
180.017,262.28557905
180.032,262.216302854
180.047,262.146717116
180.062,262.076819811
180.077,262.00660892
180.092,261.936082396
180.107,261.865238198
180.122,261.794074242
180.137,261.722588474
180.152,261.650778796
180.167,261.578643098
180.182,261.506179289
180.197,261.43338523
180.212,261.360258786
180.227,261.28679781
180.242,261.21300016
180.257,261.138863646
180.272,261.064386102
180.287,260.989565346
180.302,260.914399154
180.317,260.838885342
180.332,260.763021681
180.347,260.686805956
180.362,260.610235925
180.377,260.533309332
180.392,260.456023953
180.407,260.378377515
180.422,260.300367761
180.437,260.221992405
180.452,260.143249199
180.467,260.064135842
180.482,259.984650062
180.497,259.904789548
180.512,259.824552039
180.527,259.743935217
180.542,259.662936801
180.557,259.581554484
180.56,259.565231759
180.572,259.499785984
180.587,259.417629001
180.602,259.335081236
180.617,259.252140389
180.632,259.168804188
180.647,259.085070345
180.66,259.012177608
180.662,259.000936586
180.677,258.91640064
180.692,258.831460229
180.707,258.746113119
180.722,258.660357058
180.737,258.574189816
180.752,258.487609169
180.767,258.400612908
180.782,258.313198854
180.797,258.225364815
180.812,258.137108663
180.827,258.048428232
180.842,257.959321426
180.857,257.869786144
180.872,257.779820342
180.887,257.689421944
180.902,257.598588958
180.917,257.507319401
180.932,257.415611321
180.947,257.323462795
180.962,257.230871947
180.977,257.13783693
180.992,257.044355942
181.007,256.950427209
181.022,256.856049027
181.037,256.761219702
181.052,256.665937624
181.067,256.570201205
181.082,256.474008937
181.097,256.377359331
181.112,256.280250992
181.127,256.182682542
181.142,256.084652731
181.157,255.986160297
181.172,255.887204086
181.187,255.787783008
181.202,255.687896052
181.217,255.587542255
181.232,255.486720759
181.247,255.38543076
181.262,255.283671562
181.277,255.181442526
181.292,255.078743114
181.307,254.975572877
181.31,254.954882295
181.322,254.871931448
181.337,254.767818567
181.352,254.663234048
181.367,254.558177822
181.382,254.452649918
181.397,254.346650469
181.412,254.240179695
181.427,254.133237952
181.442,254.025825668
181.457,253.91794342
181.472,253.809591873
181.487,253.700771818
181.502,253.591484154
181.517,253.481729911
181.532,253.371510233
181.547,253.260826378
181.562,253.149679724
181.577,253.038071797
181.592,252.926004229
181.607,252.81347877
181.622,252.700497323
181.637,252.587061897
181.652,252.473174632
181.667,252.358837809
181.682,252.244053825
181.697,252.128825214
181.712,252.013154623
181.727,251.897044847
181.742,251.780498808
181.757,251.663519535
181.772,251.546110214
181.787,251.428274126
181.802,251.310014701
181.817,251.191335471
181.832,251.072240117
181.847,250.952732415
181.862,250.832816269
181.877,250.712495714
181.892,250.591774862
181.907,250.470657971
181.922,250.349149408
181.937,250.227253629
181.952,250.10497521
181.967,249.982318817
181.982,249.85928922
181.997,249.735891282
182.012,249.612129984
182.027,249.488010359
182.042,249.363537552
182.057,249.238716786
182.06,249.21371134
182.072,249.11355337
182.087,248.98805268
182.102,248.862220187
182.117,248.736061427
182.132,248.60958201
182.147,248.482787605
182.162,248.355683977
182.177,248.22827692
182.192,248.100572336
182.207,247.972576158
182.222,247.844294407
182.237,247.715733173
182.252,247.586898599
182.267,247.457796909
182.282,247.328434416
182.297,247.198817498
182.312,247.068952614
182.327,246.938846339
182.342,246.808505327
182.357,246.677936363
182.372,246.547146348
182.387,246.416142318
182.402,246.284931486
182.417,246.153521218
182.432,246.021919076
182.447,245.890132859
182.462,245.758170612
182.477,245.626040642
182.492,245.49375161
182.507,245.361312483
182.522,245.228732687
182.537,245.096022057
182.552,244.963190943
182.567,244.830250272
182.582,244.697211612
182.597,244.564087222
182.612,244.430890159
182.627,244.297634382
182.642,244.164334811
182.657,244.031007495
182.672,243.89766964
182.687,243.76433982
182.702,243.631038086
182.717,243.497786125
182.732,243.364607396
182.747,243.231527335
182.762,243.098573527
182.777,242.965775884
182.792,242.833166908
182.807,242.700781839
182.822,242.568658932
182.837,242.436839692
182.852,242.305369109
182.867,242.174295892
182.882,242.043672753
182.897,241.913556649
182.912,241.784009021
182.927,241.655096022
182.942,241.526888788
182.957,241.399463548
182.972,241.272901904
182.987,241.147290884
183.002,241.022723119
183.017,240.899296833
183.032,240.77711595
183.047,240.656290042
183.062,240.536934478
183.077,240.419170586
183.092,240.303126267
183.107,240.188937254
183.122,240.076749918
183.137,239.966726565
183.152,239.859055648
183.167,239.753970328
183.182,239.651781546
183.197,239.552934763
183.212,239.458103338
183.227,239.368332088
183.242,239.285234298
183.257,239.211207083
183.367,239.217932539
183.382,239.291702169
183.397,239.373885497
183.412,239.46230124
183.427,239.555499658
183.442,239.652545202
183.457,239.752832086
183.472,239.855954479
183.487,239.961623819
183.502,240.069619078
183.517,240.17975817
183.532,240.291881882
183.547,240.405845243
183.562,240.52151297
183.577,240.638757166
183.592,240.757456319
183.607,240.877494777
183.622,240.998762644
183.637,241.121155707
183.652,241.244575425
183.667,241.368928922
183.682,241.494128879
183.697,241.620093439
183.712,241.746746095
183.727,241.87401547
183.742,242.001835135
183.757,242.130143379
183.772,242.258882979
183.787,242.388000957
183.802,242.517448311
183.817,242.647179779
183.832,242.777153583
183.847,242.907331186
183.862,243.037677083
183.877,243.168158524
183.892,243.298745332
183.907,243.429409693
183.922,243.560125955
183.937,243.690870445
183.952,243.821621291
183.967,243.95235829
183.982,244.083062717
183.997,244.213717209
184.012,244.344305669
184.027,244.474813083
184.042,244.605225447
184.057,244.735529692
184.072,244.865713533
184.087,244.995765479
184.102,245.125674636
184.117,245.25543076
184.132,245.385024095
184.147,245.514445406
184.162,245.643685851
184.177,245.772736987
184.192,245.90159072
184.207,246.030239241
184.222,246.158675038
184.237,246.286890821
184.252,246.414879535
184.267,246.542634315
184.282,246.670148483
184.297,246.797415503
184.312,246.924429001
184.327,247.051182709
184.342,247.177670512
184.357,247.303886366
184.372,247.429824372
184.387,247.555478686
184.402,247.680843573
184.417,247.805913378
184.432,247.930682527
184.447,248.055145508
184.462,248.179296921
184.477,248.303131397
184.492,248.426643656
184.507,248.549828512
184.522,248.672680804
184.537,248.7951955
184.552,248.917367611
184.56,248.982384277
184.567,249.039192205
184.582,249.160664468
184.597,249.281779638
184.612,249.402533049
184.627,249.522920094
184.642,249.642936276
184.657,249.76257716
184.672,249.88183842
184.687,250.000715804
184.702,250.119205175
184.717,250.23730247
184.732,250.355003722
184.747,250.472305077
184.762,250.589202772
184.777,250.705693148
184.792,250.821772664
184.807,250.937437857
184.822,251.052685402
184.837,251.167512056
184.852,251.281914717
184.867,251.395890359
184.882,251.509436097
184.897,251.622549146
184.912,251.73522684
184.927,251.847466632
184.942,251.959266086
184.957,252.070622864
184.972,252.181534779
184.987,252.29199973
185.002,252.402015753
185.017,252.511580991
185.032,252.620693695
185.047,252.729352241
185.062,252.83755512
185.077,252.945300923
185.092,253.052588378
185.107,253.159416289
185.122,253.265783612
185.137,253.371689375
185.152,253.477132749
185.167,253.582112987
185.182,253.686629449
185.197,253.790681611
185.212,253.89426904
185.227,253.997391407
185.242,254.100048494
185.257,254.202240171
185.272,254.303966386
185.287,254.405227214
185.302,254.506022785
185.31,254.559590263
185.317,254.606353346
185.332,254.706219225
185.347,254.805620843
185.362,254.904558666
185.377,255.003033289
185.392,255.10104537
185.407,255.198595632
185.422,255.295684876
185.437,255.392313988
185.452,255.488483909
185.467,255.58419567
185.482,255.679450337
185.497,255.774249056
185.512,255.868593043
185.527,255.962483563
185.542,256.055921939
185.557,256.148909546
185.572,256.241447837
185.587,256.33353828
185.602,256.425182408
185.617,256.516381805
185.632,256.607138096
185.647,256.697452952
185.662,256.787328083
185.677,256.876765233
185.692,256.96576619
185.707,257.054332774
185.722,257.142466861
185.737,257.2301703
185.752,257.317445042
185.767,257.404293028
185.782,257.49071622
185.797,257.576716627
185.812,257.662296277
185.827,257.747457207
185.842,257.832201488
185.857,257.916531197
185.872,258.000448451
185.887,258.083955366
185.902,258.167054072
185.917,258.249746721
185.932,258.332035479
185.947,258.413922521
185.96,258.484568034
185.962,258.495410031
185.977,258.576500197
185.992,258.657195223
186.007,258.737497327
186.022,258.817408711
186.037,258.896931599
186.052,258.976068224
186.06,259.018117254
186.067,259.054820806
186.082,259.133191581
186.097,259.211182768
186.112,259.288796611
186.127,259.366035328
186.142,259.442901171
186.157,259.519396361
186.172,259.595523117
186.187,259.671283671
186.202,259.746680236
186.217,259.821715047
186.232,259.896390294
186.247,259.970708194
186.262,260.04467095
186.277,260.118280755
186.292,260.191539804
186.307,260.264450268
186.322,260.337014322
186.337,260.409234129
186.352,260.481111851
186.367,260.552649641
186.382,260.623849622
186.397,260.69471394
186.412,260.765244694
186.427,260.835444026
186.442,260.905314001
186.457,260.974856737
186.472,261.044074293
186.487,261.112968749
186.502,261.181542149
186.517,261.249796551
186.532,261.317733978
186.547,261.385356449
186.562,261.452665991
186.577,261.51966459
186.592,261.586354228
186.607,261.652736896
186.622,261.718814534
186.637,261.784589104
186.652,261.850062542
186.667,261.915236766
186.682,261.98011369
186.697,262.04469522
186.71,262.100428386
186.712,262.108983231
186.727,262.172979613
186.742,262.236686205
186.757,262.300104877
186.772,262.363237446
186.787,262.426085746
186.802,262.488651585
186.817,262.550936756
186.832,262.612943053
186.847,262.674672231
186.862,262.73612607
186.877,262.797306295
186.892,262.858214659
186.907,262.91885287
186.922,262.979222642
186.937,263.039325667
186.952,263.099163637
186.967,263.158738213
186.982,263.218051054
186.997,263.277103816
187.012,263.335898126
187.027,263.394435603
187.042,263.452717865
187.057,263.510746503
187.072,263.568523109
187.087,263.626049238
187.102,263.683326487
187.117,263.740356369
187.132,263.797140436
187.147,263.853680225
187.162,263.909977241
187.177,263.966032983
187.192,264.021848954
187.207,264.077426622
187.222,264.132767469
187.237,264.187872945
187.252,264.242744502
187.267,264.29738357
187.282,264.351791571
187.297,264.40596993
187.312,264.459920042
187.327,264.513643306
187.342,264.567141099
187.357,264.620414784
187.372,264.673465736
187.387,264.726295307
187.402,264.778904827
187.417,264.831295632
187.432,264.883469025
187.447,264.935426343
187.46,264.980282226
187.462,264.987168864
187.477,265.038697884
187.492,265.09001469
187.507,265.141120548
187.522,265.192016715
187.537,265.242704444
187.552,265.293184976
187.567,265.343459534
187.582,265.393529363
187.597,265.443395661
187.612,265.493059627
187.627,265.542522466
187.642,265.591785359
187.657,265.640849488
187.672,265.689716019
187.687,265.738386109
187.702,265.786860899
187.717,265.835141553
187.732,265.883229195
187.747,265.931124938
187.762,265.978829912
187.777,266.026345221
187.792,266.073671955
187.807,266.120811217
187.822,266.167764093
187.837,266.21453165
187.852,266.26111496
187.867,266.307515087
187.882,266.353733058
187.897,266.399769942
187.912,266.445626758
187.927,266.491304546
187.942,266.536804324
187.957,266.582127087
187.972,266.627273866
187.987,266.672245642
188.002,266.717043427
188.017,266.761668171
188.032,266.806120867
188.047,266.850402484
188.062,266.894513977
188.077,266.938456315
188.092,266.982230443
188.107,267.02583727
188.122,267.069277766
188.137,267.112552847
188.152,267.155663421
188.167,267.198610424
188.182,267.241394741
188.197,267.284017277
188.21,267.320826633
188.212,267.326478933
188.227,267.36878058
188.242,267.410923117
188.257,267.452907406
188.272,267.494734316
188.287,267.536404714
188.302,267.577919444
188.317,267.619279368
188.332,267.660485314
188.347,267.701538133
188.362,267.742438636
188.377,267.783187668
188.392,267.823786039
188.407,267.864234557
188.422,267.904534038
188.437,267.944685277
188.452,267.984689067
188.467,268.024546198
188.482,268.064257458
188.497,268.103823626
188.512,268.143245473
188.527,268.182523752
188.542,268.221659252
188.557,268.260652714
188.572,268.299504876
188.587,268.3382165
188.602,268.376788325
188.617,268.415221088
188.632,268.453515503
188.647,268.491672315
188.66,268.524630788
188.662,268.529692228
188.677,268.567575962
188.692,268.605324221
188.707,268.642937712
188.722,268.680417145
188.737,268.717763201
