# 78954 TBPB Grantley Adams Observations at 12Z 12 Apr 2019
Frequency [GHz],TB
175.31,283.385820092
175.322,283.375147596
175.337,283.361777157
175.352,283.348373556
175.367,283.334936759
175.382,283.321466733
175.397,283.307963444
175.412,283.294426856
175.427,283.280856932
175.442,283.267253636
175.457,283.253616927
175.472,283.239946768
175.487,283.226243116
175.502,283.212505931
175.517,283.198735168
175.532,283.184930785
175.547,283.171092735
175.562,283.157220973
175.577,283.14331545
175.592,283.129376119
175.607,283.115402928
175.622,283.101395827
175.637,283.087354764
175.652,283.073279683
175.667,283.059170532
175.682,283.045027252
175.697,283.030849786
175.712,283.016638076
175.727,283.002392061
175.742,282.988111678
175.757,282.973796866
175.772,282.959447559
175.787,282.945063691
175.802,282.930645194
175.817,282.916192001
175.832,282.901704039
175.847,282.887181237
175.862,282.872623522
175.877,282.858030819
175.892,282.843403049
175.907,282.828740137
175.922,282.814042
175.937,282.799308558
175.952,282.784539728
175.967,282.769735424
175.982,282.75489556
175.997,282.740020047
176.012,282.725108795
176.027,282.710161712
176.042,282.695178705
176.057,282.680159677
176.072,282.665104532
176.087,282.650013169
176.102,282.634885488
176.117,282.619721386
176.132,282.604520758
176.147,282.589283495
176.162,282.574009491
176.177,282.558698632
176.192,282.543350806
176.207,282.527965899
176.222,282.512543792
176.237,282.497084366
176.252,282.481587501
176.267,282.466053071
176.282,282.450480951
176.297,282.434871013
176.31,282.421311708
176.312,282.419223126
176.327,282.403537158
176.342,282.387812974
176.357,282.372050436
176.372,282.356249405
176.387,282.340409739
176.402,282.324531292
176.417,282.308613919
176.432,282.292657469
176.447,282.276661792
176.46,282.26276702
176.462,282.260626731
176.477,282.24455213
176.492,282.22843783
176.507,282.212283668
176.522,282.196089479
176.537,282.179855095
176.552,282.163580347
176.567,282.14726506
176.582,282.130909059
176.597,282.114512166
176.612,282.098074198
176.627,282.081594971
176.642,282.065074298
176.657,282.048511987
176.672,282.031907847
176.687,282.015261679
176.702,281.998573286
176.717,281.981842463
176.732,281.965069006
176.747,281.948252705
176.762,281.931393349
176.777,281.914490721
176.792,281.897544603
176.807,281.880554774
176.822,281.863521007
176.837,281.846443075
176.852,281.829320743
176.867,281.812153778
176.882,281.794941939
176.897,281.777684985
176.912,281.760382667
176.927,281.743034737
176.942,281.72564094
176.957,281.708201019
176.972,281.690714712
176.987,281.673181755
177.002,281.655601878
177.017,281.637974808
177.032,281.620300268
177.047,281.602577978
177.062,281.584807653
177.077,281.566989002
177.092,281.549121734
177.107,281.531205549
177.122,281.513240148
177.137,281.495225223
177.152,281.477160465
177.167,281.459045557
177.182,281.440880183
177.197,281.422664016
177.21,281.406835333
177.212,281.404396729
177.227,281.38607799
177.242,281.36770746
177.257,281.349284796
177.272,281.330809653
177.287,281.312281678
177.302,281.293700513
177.31,281.283768686
177.317,281.275065798
177.332,281.256377165
177.347,281.237634242
177.362,281.218836653
177.377,281.199984015
177.392,281.18107594
177.407,281.162112035
177.422,281.143091904
177.437,281.124015141
177.452,281.104881338
177.467,281.085690079
177.482,281.066440946
177.497,281.047133511
177.512,281.027767343
177.527,281.008342004
177.542,280.98885705
177.557,280.969312032
177.572,280.949706495
177.587,280.930039977
177.602,280.910312009
177.617,280.890522119
177.632,280.870669824
177.647,280.850754639
177.66,280.833443559
177.662,280.83077607
177.677,280.810733617
177.692,280.790626773
177.707,280.770455026
177.722,280.750217854
177.737,280.729914732
177.752,280.709545125
177.767,280.689108493
177.782,280.668604287
177.797,280.648031952
177.812,280.627390925
177.827,280.606680637
177.842,280.58590051
177.857,280.56504996
177.872,280.544128393
177.887,280.52313521
177.902,280.502069803
177.917,280.480931555
177.932,280.459719842
177.947,280.438434033
177.96,280.419925901
177.962,280.417073487
177.977,280.395637556
177.992,280.374125583
178.007,280.352536903
178.022,280.330870841
178.037,280.309126715
178.052,280.287303834
178.067,280.265401497
178.082,280.243418995
178.097,280.221355611
178.112,280.199210616
178.127,280.176983274
178.142,280.154672838
178.157,280.132278554
178.172,280.109799655
178.187,280.087235367
178.202,280.064584906
178.217,280.041847475
178.232,280.019022272
178.247,279.996108479
178.262,279.973105273
178.277,279.950011818
178.292,279.926827267
178.307,279.903550763
178.322,279.880181439
178.337,279.856718417
178.352,279.833160807
178.367,279.809507707
178.382,279.785758207
178.397,279.761911382
178.41,279.741164687
178.412,279.737966298
178.427,279.713922008
178.442,279.689777555
178.457,279.665531967
178.472,279.641184262
178.487,279.616733446
178.502,279.592178513
178.517,279.567518441
178.532,279.5427522
178.547,279.517878745
178.562,279.492897018
178.577,279.467805949
178.592,279.442604453
178.607,279.417291434
178.622,279.391865781
178.637,279.366326368
178.652,279.340672059
178.667,279.314901701
178.682,279.289014128
178.697,279.263008159
178.712,279.2368826
178.727,279.21063624
178.742,279.184267856
178.757,279.157776209
178.772,279.131160043
178.787,279.104418091
178.802,279.077549065
178.817,279.050551667
178.832,279.02342458
178.847,278.996166471
178.862,278.968775992
178.877,278.941251779
178.892,278.913592449
178.907,278.885796606
178.922,278.857862835
178.937,278.829789703
178.952,278.801575762
178.967,278.773219545
178.982,278.744719568
178.997,278.71607433
179.012,278.68728231
179.027,278.658341971
179.042,278.629251755
179.057,278.600010087
179.072,278.570615374
179.087,278.541066003
179.102,278.51136034
179.117,278.481496735
179.132,278.451473515
179.147,278.42128899
179.16,278.394997267
179.162,278.390941447
179.177,278.360429154
179.192,278.32975036
179.207,278.298903291
179.222,278.267886152
179.237,278.236697127
179.252,278.20533438
179.267,278.17379605
179.282,278.142080258
179.297,278.110185099
179.312,278.078108647
179.327,278.045848955
179.342,278.013404049
179.357,277.980771935
179.372,277.947950595
179.387,277.914937985
179.402,277.881732039
179.417,277.848330666
179.432,277.81473175
179.447,277.78093315
179.462,277.746932701
179.477,277.71272821
179.492,277.678317461
179.507,277.643698209
179.522,277.608868184
179.537,277.573825091
179.552,277.538566604
179.567,277.503090373
179.582,277.467394018
179.597,277.431475132
179.612,277.395331281
179.627,277.358959999
179.642,277.322358793
179.657,277.28552514
179.672,277.248456489
179.687,277.211150256
179.702,277.173603828
179.717,277.135814561
179.732,277.09777978
179.747,277.059496777
179.762,277.020962814
179.777,276.98217512
179.792,276.943130889
179.807,276.903827285
179.822,276.864261436
179.837,276.824430437
179.852,276.784331349
179.867,276.743961196
179.882,276.703316969
179.897,276.66239562
179.91,276.626703911
179.912,276.621194069
179.927,276.579709197
179.942,276.537937845
179.957,276.495876822
179.972,276.453522893
179.987,276.410872789
180.002,276.367923198
180.017,276.324670772
180.032,276.281112118
180.047,276.237243806
180.062,276.193062364
180.077,276.148564276
180.092,276.103745985
180.107,276.058603891
180.122,276.013134349
180.137,275.967333672
180.152,275.921198126
180.167,275.874723931
180.182,275.827907263
180.197,275.78074425
180.212,275.733230971
180.227,275.685363459
180.242,275.637137697
180.257,275.588549619
180.272,275.539595107
180.287,275.490269994
180.302,275.44057006
180.317,275.390491032
180.332,275.340028585
180.347,275.289178338
180.362,275.237935857
180.377,275.186296649
180.392,275.134256168
180.407,275.081809808
180.422,275.028952905
180.437,274.975680737
180.452,274.921988518
180.467,274.867871405
180.482,274.813324491
180.497,274.758342804
180.512,274.702921311
180.527,274.647054912
180.542,274.590738439
180.557,274.533966661
180.56,274.522557203
180.572,274.476734274
180.587,274.419035906
180.602,274.360866115
180.617,274.302219387
180.632,274.243090133
180.647,274.183472692
180.66,274.13140492
180.662,274.123361325
180.677,274.062750218
180.692,274.001633477
180.707,273.940005129
180.722,273.877859121
180.737,273.815189317
180.752,273.751989496
180.767,273.688253354
180.782,273.623974497
180.797,273.559146445
180.812,273.493762627
180.827,273.427816382
180.842,273.361300953
180.857,273.294209491
180.872,273.226535048
180.887,273.158270579
180.902,273.089408938
180.917,273.019942877
180.932,272.949865045
180.947,272.879167984
180.962,272.807844127
180.977,272.735885801
180.992,272.663285215
181.007,272.59003447
181.022,272.516125547
181.037,272.441550308
181.052,272.366300496
181.067,272.290367731
181.082,272.213743505
181.097,272.136419184
181.112,272.058386002
181.127,271.979635062
181.142,271.900157329
181.157,271.819943629
181.172,271.73898465
181.187,271.657270933
181.202,271.574792872
181.217,271.491540714
181.232,271.407504548
181.247,271.322674313
181.262,271.237039783
181.277,271.150590572
181.292,271.06331613
181.307,270.975205733
181.31,270.957482384
181.322,270.886248489
181.337,270.796433326
181.352,270.705748994
181.367,270.614184058
181.382,270.521726895
181.397,270.428365692
181.412,270.334088438
181.427,270.238882923
181.442,270.142736734
181.457,270.045637247
181.472,269.947571628
181.487,269.848526821
181.502,269.748489553
181.517,269.647446318
181.532,269.545383383
181.547,269.442286775
181.562,269.338142277
181.577,269.232935428
181.592,269.12665151
181.607,269.019275547
181.622,268.910792299
181.637,268.801186253
181.652,268.690441621
181.667,268.578542328
181.682,268.465472011
181.697,268.35121401
181.712,268.235751359
181.727,268.119066783
181.742,268.001142686
181.757,267.881961145
181.772,267.761503902
181.787,267.639752357
181.802,267.516687556
181.817,267.392290185
181.832,267.266540558
181.847,267.139418608
181.862,267.010903878
181.877,266.880975507
181.892,266.749612221
181.907,266.61679232
181.922,266.482493666
181.937,266.346693668
181.952,266.209369269
181.967,266.070496929
181.982,265.930052614
181.997,265.788011771
182.012,265.644349317
182.027,265.499039614
182.042,265.352056451
182.057,265.20337302
182.06,265.1734299
182.072,265.052961893
182.087,264.900794993
182.102,264.746843567
182.117,264.591078155
182.132,264.433468556
182.147,264.273983789
182.162,264.112592057
182.177,263.949260697
182.192,263.783956135
182.207,263.616643834
182.222,263.447288231
182.237,263.275852673
182.252,263.102299347
182.267,262.926589199
182.282,262.748681844
182.297,262.56853547
182.312,262.386106726
182.327,262.2013506
182.342,262.014220283
182.357,261.824667016
182.372,261.632639914
182.387,261.438085781
182.402,261.240948887
182.417,261.041170724
182.432,260.838689735
182.447,260.633441001
182.462,260.425355889
182.477,260.214361654
182.492,260.000380994
182.507,259.783331529
182.522,259.563125229
182.537,259.339667742
182.552,259.112857647
182.567,258.882585588
182.582,258.648733288
182.597,258.411172421
182.612,258.169763317
182.627,257.924353476
182.642,257.674775856
182.657,257.420846903
182.672,257.162364278
182.687,256.899104229
182.702,256.630818548
182.717,256.357231042
182.732,256.078033442
182.747,255.79288063
182.762,255.501385089
182.777,255.203110416
182.792,254.897563743
182.807,254.584186857
182.822,254.262345782
182.837,253.931318543
182.852,253.590280763
182.867,253.2382887
182.882,252.874259236
182.897,252.496946253
182.912,252.10491274
182.927,251.69649785
182.942,251.269778031
182.957,250.82252124
182.972,250.352133193
182.987,249.855594588
183.002,249.329388372
183.017,248.769416556
183.032,248.170906917
183.047,247.528311667
183.062,246.835203285
183.077,246.084178307
183.092,245.266789569
183.107,244.373544104
183.122,243.394032061
183.137,242.317299134
183.152,241.132651874
183.167,239.831206941
183.182,238.408675123
183.197,236.870098886
183.212,235.237426837
183.227,233.560472751
183.242,231.929677285
183.257,230.482331898
183.367,230.806531426
183.382,232.307581788
183.397,233.952933013
183.412,235.617183452
183.427,237.221523911
183.442,238.724495088
183.457,240.109343862
183.472,241.373950772
183.487,242.524080014
183.502,243.569229766
183.517,244.520225402
183.532,245.387899219
183.547,246.182418922
183.562,246.912990754
183.577,247.587771422
183.592,248.213890883
183.607,248.797529279
183.622,249.344015991
183.637,249.857933291
183.652,250.343215532
183.667,250.80323963
183.682,251.240905306
183.697,251.658704986
183.712,252.058784017
183.727,252.442992148
183.742,252.812927351
183.757,253.169973003
183.772,253.515329402
183.787,253.850040447
183.802,254.175016245
183.817,254.491052262
183.832,254.798845563
183.847,255.09900861
183.862,255.392080989
183.877,255.678539396
183.892,255.958806158
183.907,256.233256504
183.922,256.502224796
183.937,256.766009863
183.952,257.024879581
183.967,257.279074817
183.982,257.528812818
183.997,257.774290142
184.012,258.015685191
184.027,258.253160398
184.042,258.486864127
184.057,258.716932325
184.072,258.943489955
184.087,259.166652245
184.102,259.386525781
184.117,259.603209455
184.132,259.8167953
184.147,260.027369224
184.162,260.235011643
184.177,260.439798051
184.192,260.64179951
184.207,260.841083091
184.222,261.037712254
184.237,261.231747192
184.252,261.423245132
184.267,261.612260598
184.282,261.798845653
184.297,261.983050103
184.312,262.164921691
184.327,262.344506258
184.342,262.521847894
184.357,262.696989073
184.372,262.869970767
184.387,263.040832558
184.402,263.209612729
184.417,263.376348356
184.432,263.541075378
184.447,263.703828674
184.462,263.864642123
184.477,264.02354866
184.492,264.180580333
184.507,264.335768345
184.522,264.4891431
184.537,264.64073424
184.552,264.790570685
184.56,264.869775754
184.567,264.938680662
184.582,265.085091739
184.597,265.229830846
184.612,265.372924312
184.627,265.514397877
184.642,265.654276723
184.657,265.792585489
184.672,265.929348292
184.687,266.064588747
184.702,266.19832998
184.717,266.330594645
184.732,266.46140494
184.747,266.590782621
184.762,266.718749012
184.777,266.845325021
184.792,266.970531148
184.807,267.094387502
184.822,267.216913806
184.837,267.338129408
184.852,267.458053295
184.867,267.576704096
184.882,267.694100097
184.897,267.810259245
184.912,267.925199157
184.927,268.038937131
184.942,268.15149015
184.957,268.262874891
184.972,268.373107732
184.987,268.482204757
185.002,268.590181768
185.017,268.697054285
185.032,268.802837554
185.047,268.907546558
185.062,269.011196016
185.077,269.113800391
185.092,269.215373899
185.107,269.315930511
185.122,269.415483956
185.137,269.514047733
185.152,269.61163511
185.167,269.70825913
185.182,269.803932619
185.197,269.898668186
185.212,269.99247823
185.227,270.085374947
185.242,270.177370327
185.257,270.268476165
185.272,270.358704062
185.287,270.448065431
185.302,270.536571497
185.31,270.583428829
185.317,270.624233305
185.332,270.711061721
185.347,270.797067438
185.362,270.882260977
185.377,270.966652691
185.392,271.050252771
185.407,271.133071243
185.422,271.215117981
185.437,271.296402701
185.452,271.376934967
185.467,271.456724197
185.482,271.535779661
185.497,271.61411049
185.512,271.69172567
185.527,271.768634055
185.542,271.844844361
185.557,271.920365173
185.572,271.995204947
185.587,272.069372013
185.602,272.142874574
185.617,272.215720713
185.632,272.287918394
185.647,272.359475461
185.662,272.430399644
185.677,272.50069856
185.692,272.570379714
185.707,272.639450505
185.722,272.70791822
185.737,272.775790046
185.752,272.843073063
185.767,272.909774254
185.782,272.975900498
185.797,273.041458581
185.812,273.106455189
185.827,273.170896918
185.842,273.234790268
185.857,273.298141651
185.872,273.360957388
185.887,273.423243713
185.902,273.485006776
185.917,273.546252639
185.932,273.606987283
185.947,273.667216607
185.96,273.719011108
185.962,273.726946431
185.977,273.786182495
185.992,273.84493046
186.007,273.903195913
186.022,273.960984366
186.037,274.018301257
186.052,274.075151952
186.06,274.10528353
186.067,274.131541744
186.082,274.187475858
186.097,274.242959449
186.112,274.297997606
186.127,274.35259535
186.142,274.406757635
186.157,274.460489354
186.172,274.513795333
186.187,274.566680339
186.202,274.619149075
186.217,274.671206184
186.232,274.722856251
186.247,274.7741038
186.262,274.8249533
186.277,274.875409161
186.292,274.925475737
186.307,274.975157331
186.322,275.024458186
186.337,275.073382495
186.352,275.121934399
186.367,275.170117985
186.382,275.21793729
186.397,275.265396302
186.412,275.312498958
186.427,275.359249146
186.442,275.405650707
186.457,275.451707434
186.472,275.497423074
186.487,275.542801328
186.502,275.587845852
186.517,275.632560254
186.532,275.676948104
186.547,275.721012923
186.562,275.764758192
186.577,275.808187351
186.592,275.851303794
186.607,275.894110879
186.622,275.936611921
186.637,275.978810194
186.652,276.020708936
186.667,276.062311343
186.682,276.103620575
186.697,276.144639753
186.71,276.17995747
186.712,276.185371961
186.727,276.225820246
186.742,276.26598762
186.757,276.305877058
186.772,276.3454915
186.787,276.384833851
186.802,276.423906983
186.817,276.462713732
186.832,276.501256902
186.847,276.539539263
186.862,276.577563554
186.877,276.61533248
186.892,276.652848715
186.907,276.690114902
186.922,276.727133652
186.937,276.763907547
186.952,276.800439138
186.967,276.836730946
186.982,276.872785462
186.997,276.908605149
187.012,276.944192442
187.027,276.979549746
187.042,277.014679438
187.057,277.049583869
187.072,277.084265362
187.087,277.118726212
187.102,277.152968689
187.117,277.186995035
187.132,277.220807468
187.147,277.254408179
187.162,277.287799333
187.177,277.320983072
187.192,277.353961512
187.207,277.386736744
187.222,277.419310836
187.237,277.451685832
187.252,277.483863752
187.267,277.515846593
187.282,277.547636328
187.297,277.579234908
187.312,277.610644263
187.327,277.641866298
187.342,277.672902898
187.357,277.703755925
187.372,277.734427222
187.387,277.764918607
187.402,277.795231881
187.417,277.825368821
187.432,277.855331186
187.447,277.885120713
187.46,277.910799825
187.462,277.91473912
187.477,277.944188106
187.492,277.973469348
187.507,278.002584506
187.522,278.031535221
187.537,278.060323113
187.552,278.088949785
187.567,278.117416822
187.582,278.145725789
187.597,278.173878235
187.612,278.20187569
187.627,278.229719666
187.642,278.257411658
187.657,278.284953146
187.672,278.312345589
187.687,278.339590433
187.702,278.366689104
187.717,278.393643015
187.732,278.420453559
187.747,278.447122117
187.762,278.47365005
187.777,278.500038708
187.792,278.52628942
187.807,278.552403505
187.822,278.578382263
187.837,278.604226981
187.852,278.629938931
187.867,278.655519369
187.882,278.680969538
187.897,278.706290666
187.912,278.731483967
187.927,278.756550641
187.942,278.781491874
187.957,278.80630884
187.972,278.831002696
187.987,278.855574588
188.002,278.880025649
188.017,278.904356998
188.032,278.928569742
188.047,278.952664973
188.062,278.976643774
188.077,279.000507211
188.092,279.024256343
188.107,279.047892212
188.122,279.07141585
188.137,279.094828278
188.152,279.118130503
188.167,279.141323522
188.182,279.16440832
188.197,279.18738587
188.21,279.20721374
188.212,279.210257135
188.227,279.233023066
188.242,279.255684602
188.257,279.278242674
188.272,279.300698199
188.287,279.323052086
188.302,279.345305231
188.317,279.367458522
188.332,279.389512835
188.347,279.411469037
188.362,279.433327983
188.377,279.455090521
188.392,279.476757487
188.407,279.498329708
188.422,279.519808001
188.437,279.541193175
188.452,279.562486027
188.467,279.583687347
188.482,279.604797914
188.497,279.6258185
188.512,279.646749867
188.527,279.667592768
188.542,279.688347947
188.557,279.70901614
188.572,279.729598074
188.587,279.750094468
188.602,279.770506033
188.617,279.790833469
188.632,279.811077472
188.647,279.831238728
188.66,279.848645406
188.662,279.851317913
188.677,279.871315698
188.692,279.891232746
188.707,279.911069711
188.722,279.930827239
188.737,279.950505971
