# 78954 TBPB Grantley Adams Observations at 12Z 17 May 2019
Frequency [GHz],TB
175.31,279.857062549
175.322,279.841646036
175.337,279.822332452
175.352,279.802971035
175.367,279.783561654
175.382,279.764104182
175.397,279.744598485
175.412,279.725044434
175.427,279.705441895
175.442,279.685790735
175.457,279.666090819
175.472,279.646342011
175.487,279.626544176
175.502,279.606697175
175.517,279.586800871
175.532,279.566855123
175.547,279.546859791
175.562,279.526814734
175.577,279.50671981
175.592,279.486574874
175.607,279.466379783
175.622,279.446134391
175.637,279.425838552
175.652,279.405492118
175.667,279.38509494
175.682,279.364646869
175.697,279.344147754
175.712,279.323597444
175.727,279.302995786
175.742,279.282342625
175.757,279.261637808
175.772,279.240881178
175.787,279.220072578
175.802,279.19921185
175.817,279.178298835
175.832,279.157333372
175.847,279.136315301
175.862,279.115244458
175.877,279.094120681
175.892,279.072943804
175.907,279.051713662
175.922,279.030430087
175.937,279.009092912
175.952,278.987701968
175.967,278.966257083
175.982,278.944758088
175.997,278.923204808
176.012,278.901597071
176.027,278.879934701
176.042,278.858217523
176.057,278.836445359
176.072,278.81461803
176.087,278.792735358
176.102,278.770797161
176.117,278.748803257
176.132,278.726753464
176.147,278.704647597
176.162,278.68248547
176.177,278.660266897
176.192,278.63799169
176.207,278.61565966
176.222,278.593270616
176.237,278.570824367
176.252,278.548320719
176.267,278.52575948
176.282,278.503140454
176.297,278.480463444
176.31,278.46076298
176.312,278.457728253
176.327,278.434934681
176.342,278.412082529
176.357,278.389171594
176.372,278.366201675
176.387,278.343172567
176.402,278.320084065
176.417,278.296935963
176.432,278.273728053
176.447,278.250460124
176.46,278.230245877
176.462,278.227131969
176.477,278.203743374
176.492,278.180294127
176.507,278.156784013
176.522,278.133212817
176.537,278.109580323
176.552,278.085886312
176.567,278.062130564
176.582,278.03831286
176.597,278.014432976
176.612,277.99049069
176.627,277.966485777
176.642,277.94241801
176.657,277.918287164
176.672,277.894093008
176.687,277.869835313
176.702,277.845513847
176.717,277.821128378
176.732,277.796678672
176.747,277.772164494
176.762,277.747585606
176.777,277.72294177
176.792,277.698232748
176.807,277.673458297
176.822,277.648618177
176.837,277.623712143
176.852,277.59873995
176.867,277.573701353
176.882,277.548596103
176.897,277.523423952
176.912,277.498184648
176.927,277.47287794
176.942,277.447503575
176.957,277.422061298
176.972,277.396550853
176.987,277.370971983
177.002,277.345324428
177.017,277.319607929
177.032,277.293822223
177.047,277.267967048
177.062,277.242042139
177.077,277.21604723
177.092,277.189982053
177.107,277.163846341
177.122,277.137639822
177.137,277.111362225
177.152,277.085013277
177.167,277.058592703
177.182,277.032100227
177.197,277.005535572
177.21,276.98245427
177.212,276.978898458
177.227,276.952188607
177.242,276.925405735
177.257,276.898549559
177.272,276.871619795
177.287,276.844616156
177.302,276.817538355
177.31,276.803066437
177.317,276.790386102
177.332,276.763159107
177.347,276.735857078
177.362,276.708479721
177.377,276.681026741
177.392,276.653497841
177.407,276.625892723
177.422,276.598211088
177.437,276.570452634
177.452,276.542617059
177.467,276.514704059
177.482,276.486713328
177.497,276.458644559
177.512,276.430497442
177.527,276.402271669
177.542,276.373966927
177.557,276.345582902
177.572,276.31711928
177.587,276.288575744
177.602,276.259951977
177.617,276.231247658
177.632,276.202462467
177.647,276.173596081
177.66,276.148512618
177.662,276.144648176
177.677,276.115618425
177.692,276.086506502
177.707,276.057312076
177.722,276.028034818
177.737,275.998674395
177.752,275.969230474
177.767,275.939702718
177.782,275.91009079
177.797,275.880394352
177.812,275.850613063
177.827,275.820746581
177.842,275.790794562
177.857,275.76075666
177.872,275.730632528
177.887,275.700421818
177.902,275.670124178
177.917,275.639739257
177.932,275.609266699
177.947,275.57870615
177.96,275.552148889
177.962,275.548057251
177.977,275.517319644
177.992,275.486492966
178.007,275.455576855
178.022,275.424570946
178.037,275.393474873
178.052,275.362288266
178.067,275.331010756
178.082,275.29964197
178.097,275.268181534
178.112,275.236629072
178.127,275.204984206
178.142,275.173246556
178.157,275.141415739
178.172,275.109491372
178.187,275.07747307
178.202,275.045360442
178.217,275.013153101
178.232,274.980850653
178.247,274.948452704
178.262,274.915958858
178.277,274.883368716
178.292,274.850681876
178.307,274.817897937
178.322,274.785016492
178.337,274.752037134
178.352,274.718959453
178.367,274.685783036
178.382,274.652507468
178.397,274.619132333
178.41,274.590126353
178.412,274.585657211
178.427,274.552081679
178.442,274.518405312
178.457,274.484627684
178.472,274.450748363
178.487,274.416766918
178.502,274.382682912
178.517,274.348495908
178.532,274.314205464
178.547,274.279811136
178.562,274.245312477
178.577,274.210709037
178.592,274.176000363
178.607,274.141185998
178.622,274.106265484
178.637,274.071238357
178.652,274.036104151
178.667,274.000862397
178.682,273.965512621
178.697,273.930054348
178.712,273.894487097
178.727,273.858810384
178.742,273.823023721
178.757,273.787126618
178.772,273.751118577
178.787,273.714999101
178.802,273.678767684
178.817,273.64242382
178.832,273.605966995
178.847,273.569396693
178.862,273.532712392
178.877,273.495913567
178.892,273.458999686
178.907,273.421970213
178.922,273.384824608
178.937,273.347562325
178.952,273.310182812
178.967,273.272685512
178.982,273.235069864
178.997,273.197335299
179.012,273.159481244
179.027,273.121507118
179.042,273.083412335
179.057,273.045196304
179.072,273.006858425
179.087,272.968398093
179.102,272.929814696
179.117,272.891107613
179.132,272.85227622
179.147,272.813319881
179.16,272.779456158
179.162,272.774237955
179.177,272.735029794
179.192,272.695694739
179.207,272.656232126
179.222,272.61664128
179.237,272.576921519
179.252,272.537072152
179.267,272.497092478
179.282,272.456981788
179.297,272.416739362
179.312,272.37636447
179.327,272.335856374
179.342,272.295214324
179.357,272.254437559
179.372,272.213525308
179.387,272.172476788
179.402,272.131291206
179.417,272.089967755
179.432,272.048505617
179.447,272.006903962
179.462,271.965161947
179.477,271.923278714
179.492,271.881253395
179.507,271.839085104
179.522,271.796772946
179.537,271.754316005
179.552,271.711713357
179.567,271.668964057
179.582,271.626067147
179.597,271.583021653
179.612,271.539826583
179.627,271.49648093
179.642,271.452983667
179.657,271.409333753
179.672,271.365530125
179.687,271.321571703
179.702,271.277457388
179.717,271.233186061
179.732,271.188756582
179.747,271.144167792
179.762,271.09941851
179.777,271.054507533
179.792,271.009433636
179.807,270.964195571
179.822,270.918792069
179.837,270.873221834
179.852,270.827483546
179.867,270.781575863
179.882,270.735497415
179.897,270.689246805
179.91,270.649022586
179.912,270.642822612
179.927,270.596223386
179.942,270.549447649
179.957,270.502493894
179.972,270.455360586
179.987,270.40804616
180.002,270.360549019
180.017,270.312867537
180.032,270.265000053
180.047,270.216944875
180.062,270.16870028
180.077,270.120264506
180.092,270.071635761
180.107,270.022812214
180.122,269.973792
180.137,269.924573216
180.152,269.875153921
180.167,269.825532137
180.182,269.775705845
180.197,269.725672987
180.212,269.675431462
180.227,269.624979132
180.242,269.574313811
180.257,269.523433273
180.272,269.472335247
180.287,269.421017417
180.302,269.369477422
180.317,269.317712853
180.332,269.265721254
180.347,269.21350012
180.362,269.161046899
180.377,269.108358986
180.392,269.055433727
180.407,269.002268414
180.422,268.948860289
180.437,268.895206537
180.452,268.841304291
180.467,268.787150627
180.482,268.732742566
180.497,268.678077069
180.512,268.62315104
180.527,268.567961325
180.542,268.512504708
180.557,268.456777913
180.56,268.445599839
180.572,268.400777599
180.587,268.344500366
180.602,268.287942747
180.617,268.231101211
180.632,268.173972161
180.647,268.116551932
180.66,268.066549318
180.662,268.058836791
180.677,268.000822938
180.692,267.9425065
180.707,267.883883535
180.722,267.824950028
180.737,267.765701891
180.752,267.706134963
180.767,267.646245005
180.782,267.586027705
180.797,267.525478671
180.812,267.464593435
180.827,267.403367447
180.842,267.341796079
180.857,267.279874619
180.872,267.217598274
180.887,267.154962167
180.902,267.091961335
180.917,267.028590729
180.932,266.964845212
180.947,266.900719561
180.962,266.836208461
180.977,266.771306506
180.992,266.706008199
181.007,266.640307947
181.022,266.574200066
181.037,266.507678772
181.052,266.440738186
181.067,266.373372328
181.082,266.305575119
181.097,266.237340379
181.112,266.168661821
181.127,266.099533058
181.142,266.029947591
181.157,265.959898818
181.172,265.889380023
181.187,265.81838438
181.202,265.74690495
181.217,265.674934678
181.232,265.602466391
181.247,265.529492797
181.262,265.456006484
181.277,265.381999914
181.292,265.307465424
181.307,265.232395223
181.31,265.217316203
181.322,265.15678139
181.337,265.080615869
181.352,265.003890469
181.367,264.92659686
181.382,264.848726571
181.397,264.770270986
181.412,264.691221341
181.427,264.611568722
181.442,264.531304061
181.457,264.45041813
181.472,264.368901542
181.487,264.286744742
181.502,264.203938009
181.517,264.120471446
181.532,264.036334978
181.547,263.95151835
181.562,263.866011116
181.577,263.779802642
181.592,263.692882094
181.607,263.605238437
181.622,263.516860427
181.637,263.427736607
181.652,263.337855299
181.667,263.247204599
181.682,263.155772371
181.697,263.06354624
181.712,262.970513584
181.727,262.876661526
181.742,262.781976931
181.757,262.68644639
181.772,262.590056222
181.787,262.492792456
181.802,262.394640829
181.817,262.295586773
181.832,262.195615409
181.847,262.094711533
181.862,261.99285961
181.877,261.890043762
181.892,261.786247756
181.907,261.681454995
181.922,261.575648505
181.937,261.468810924
181.952,261.36092449
181.967,261.251971027
181.982,261.141931932
181.997,261.030788163
182.012,260.918520223
182.027,260.805108148
182.042,260.690531487
182.057,260.574769292
182.06,260.551472709
182.072,260.457800097
182.087,260.339601904
182.102,260.220152163
182.117,260.099427754
182.132,259.977404967
182.147,259.854059484
182.162,259.729366351
182.177,259.603299961
182.192,259.475834027
182.207,259.346941552
182.222,259.216594806
182.237,259.084765294
182.252,258.95142372
182.267,258.816539952
182.282,258.680082984
182.297,258.542020891
182.312,258.402320781
182.327,258.260948741
182.342,258.117869779
182.357,257.973047754
182.372,257.826445309
182.387,257.678023776
182.402,257.52774309
182.417,257.375561677
182.432,257.221436334
182.447,257.065322085
182.462,256.907172029
182.477,256.746937151
182.492,256.584566118
182.507,256.42000504
182.522,256.253197194
182.537,256.084082706
182.552,255.912598194
182.567,255.738676344
182.582,255.562245425
182.597,255.383228737
182.612,255.201543962
182.627,255.017102417
182.642,254.829808193
182.657,254.639557155
182.672,254.446235778
182.687,254.249719809
182.702,254.049872695
182.717,253.846543777
182.732,253.63956617
182.747,253.428754307
182.762,253.213901073
182.777,252.994774461
182.792,252.771113667
182.807,252.542624527
182.822,252.308974177
182.837,252.069784799
182.852,251.824626287
182.867,251.573007644
182.882,251.31436687
182.897,251.048059085
182.912,250.773342561
182.927,250.489362284
182.942,250.195130631
182.957,249.889504658
182.972,249.571159434
182.987,249.238556831
183.002,248.889909101
183.017,248.523136633
183.032,248.135819358
183.047,247.725141565
183.062,247.287830429
183.077,246.820089631
183.092,246.317531316
183.107,245.775112973
183.122,245.187091597
183.137,244.547017404
183.152,243.847806537
183.167,243.081961934
183.182,242.242063442
183.197,241.321739904
183.212,240.317499564
183.227,239.232088175
183.242,238.080550491
183.257,236.900872773
183.367,237.177509215
183.382,238.349696477
183.397,239.481328646
183.412,240.541627872
183.427,241.519462519
183.442,242.414094775
183.457,243.229965478
183.472,243.973816898
183.487,244.653132227
183.502,245.275314706
183.517,245.847281868
183.532,246.375291094
183.547,246.864891741
183.562,247.320943978
183.577,247.747670263
183.592,248.148720241
183.607,248.527238532
183.622,248.885929826
183.637,249.227118625
183.652,249.552802584
183.667,249.864699324
183.682,250.164287028
183.697,250.452839392
183.712,250.731455557
183.727,251.001085653
183.742,251.262552564
183.757,251.516570437
183.772,251.763760429
183.787,252.004664092
183.802,252.239754758
183.817,252.469447232
183.832,252.694106043
183.847,252.914052481
183.862,253.1295706
183.877,253.340912344
183.892,253.548301932
183.907,253.751939612
183.922,253.952004869
183.937,254.148659188
183.952,254.342048415
183.967,254.532304796
183.982,254.719548718
183.997,254.903890218
184.012,255.08543028
184.027,255.26426195
184.042,255.4404713
184.057,255.614138266
184.072,255.785337357
184.087,255.954138289
184.102,256.120606515
184.117,256.284803693
184.132,256.446788095
184.147,256.60661495
184.162,256.764336756
184.177,256.92000354
184.192,257.073663091
184.207,257.22536116
184.222,257.375141635
184.237,257.523046697
184.252,257.669116951
184.267,257.813391545
184.282,257.955908273
184.297,258.096703671
184.312,258.235813091
184.327,258.373270778
184.342,258.509109931
184.357,258.643362763
184.372,258.776060548
184.387,258.907233672
184.402,259.036911671
184.417,259.16512327
184.432,259.291896419
184.447,259.417258324
184.462,259.541235476
184.477,259.663853676
184.492,259.785138066
184.507,259.905113147
184.522,260.023802804
184.537,260.141230325
184.552,260.257418425
184.56,260.318886298
184.567,260.37238926
184.582,260.486164445
184.597,260.598765076
184.612,260.710211741
184.627,260.820524539
184.642,260.929723092
184.657,261.037826565
184.672,261.144853674
184.687,261.250822701
184.702,261.355751511
184.717,261.45965756
184.732,261.562557909
184.747,261.664469237
184.762,261.765407849
184.777,261.865389693
184.792,261.964430364
184.807,262.06254512
184.822,262.159748887
184.837,262.256056275
184.852,262.351481582
184.867,262.446038804
184.882,262.539741648
184.897,262.632603535
184.912,262.724637613
184.927,262.815856761
184.942,262.906273601
184.957,262.9959005
184.972,263.084749584
184.987,263.172832738
185.002,263.260161618
185.017,263.346747654
185.032,263.432602061
185.047,263.517735838
185.062,263.602159779
185.077,263.685884479
185.092,263.768920334
185.107,263.851277553
185.122,263.932966157
185.137,264.013995989
185.152,264.094376715
185.167,264.174117828
185.182,264.253228656
185.197,264.331718363
185.212,264.409595953
185.227,264.486870276
185.242,264.563550029
185.257,264.639643761
185.272,264.715159876
185.287,264.790106636
185.302,264.864492166
185.31,264.90393773
185.317,264.938324452
185.332,265.01161135
185.347,265.084360584
185.362,265.156579752
185.377,265.228276326
185.392,265.299457657
185.407,265.370130973
185.422,265.440303388
185.437,265.509981897
185.452,265.579173382
185.467,265.647884616
185.482,265.71612226
185.497,265.783892867
185.512,265.851202886
185.527,265.918058662
185.542,265.984466434
185.557,266.050432346
185.572,266.115962438
185.587,266.181062655
185.602,266.245738846
185.617,266.309996765
185.632,266.373842072
185.647,266.437280336
185.662,266.500317038
185.677,266.562957565
185.692,266.625207222
185.707,266.687071223
185.722,266.748554699
185.737,266.809662697
185.752,266.87040018
185.767,266.930772032
185.782,266.990783053
185.797,267.050437966
185.812,267.109741415
185.827,267.168697967
185.842,267.227312114
185.857,267.285588271
185.872,267.343530779
185.887,267.401143909
185.902,267.458431857
185.917,267.515398748
185.932,267.572048639
185.947,267.628385518
185.96,267.67696065
185.962,267.684413302
185.977,267.740135844
185.992,267.79555693
186.007,267.850680281
186.022,267.905509553
186.037,267.960048338
186.052,268.014300168
186.06,268.043118345
186.067,268.068268511
186.082,268.121956777
186.097,268.175368314
186.112,268.228506411
186.127,268.281374301
186.142,268.333975159
186.157,268.386312103
186.172,268.438388196
186.187,268.490206447
186.202,268.541769812
186.217,268.593081191
186.232,268.644143436
186.247,268.694959345
186.262,268.745531667
186.277,268.7958631
186.292,268.845956295
186.307,268.895813854
186.322,268.945438333
186.337,268.994832238
186.352,269.043998035
186.367,269.09293814
186.382,269.141654929
186.397,269.190150731
186.412,269.238427834
186.427,269.286488486
186.442,269.334334892
186.457,269.381969215
186.472,269.429393582
186.487,269.476610079
186.502,269.523620754
186.517,269.570427618
186.532,269.617032643
186.547,269.663437768
186.562,269.709644895
186.577,269.755655891
186.592,269.80147259
186.607,269.847096789
186.622,269.892530258
186.637,269.93777473
186.652,269.982831908
186.667,270.027703464
186.682,270.07239104
186.697,270.116896247
186.71,270.155321136
186.712,270.16122067
186.727,270.20536586
186.742,270.249333346
186.757,270.293124626
186.772,270.336741171
186.787,270.380184427
186.802,270.423455814
186.817,270.466556727
186.832,270.509488536
186.847,270.552252587
186.862,270.594850201
186.877,270.637282677
186.892,270.679551293
186.907,270.721657301
186.922,270.763601936
186.937,270.805386407
186.952,270.847011905
186.967,270.888479601
186.982,270.929790644
186.997,270.970946166
187.012,271.011947279
187.027,271.052795076
187.042,271.093490632
187.057,271.134035005
187.072,271.174429234
187.087,271.214674343
187.102,271.254771339
187.117,271.294721212
187.132,271.334524937
187.147,271.374183472
187.162,271.413697762
187.177,271.453068736
187.192,271.492297309
187.207,271.531384382
187.222,271.570330842
187.237,271.609137562
187.252,271.647805402
187.267,271.686335212
187.282,271.724727824
187.297,271.762984064
187.312,271.801104741
187.327,271.839090655
187.342,271.876942594
187.357,271.914661334
187.372,271.952247642
187.387,271.989702273
187.402,272.027025972
187.417,272.064219474
187.432,272.101283504
187.447,272.138218778
187.46,272.170125744
187.462,272.175026001
187.477,272.21170587
187.492,272.248259073
187.507,272.284686289
187.522,272.32098819
187.537,272.357165436
187.552,272.393218682
187.567,272.429148575
187.582,272.464955752
187.597,272.500640844
187.612,272.536204475
187.627,272.57164726
187.642,272.60696981
187.657,272.642172725
187.672,272.677256601
187.687,272.712222027
187.702,272.747069586
187.717,272.781799853
187.732,272.816413398
187.747,272.850910785
187.762,272.885292573
187.777,272.919559313
187.792,272.953711552
187.807,272.987749832
187.822,273.021674689
187.837,273.055486652
187.852,273.089186248
187.867,273.122773997
187.882,273.156250415
187.897,273.189616012
187.912,273.222871295
187.927,273.256016766
187.942,273.289052921
187.957,273.321980253
187.972,273.35479925
187.987,273.387510397
188.002,273.420114174
188.017,273.452611058
188.032,273.485001519
188.047,273.517286026
188.062,273.549465045
188.077,273.581539034
188.092,273.613508453
188.107,273.645373754
188.122,273.677135387
188.137,273.7087938
188.152,273.740349434
188.167,273.771802731
188.182,273.803154127
188.197,273.834404056
188.21,273.861405585
188.212,273.865552948
188.227,273.89660123
188.242,273.927549328
188.257,273.958397661
188.272,273.98914665
188.287,274.01979671
188.302,274.050348253
188.317,274.08080169
188.332,274.111157429
188.347,274.141415873
188.362,274.171577426
188.377,274.201642487
188.392,274.231611453
188.407,274.261484719
188.422,274.291262677
188.437,274.320945716
188.452,274.350534225
188.467,274.380028587
188.482,274.409429186
188.497,274.438736402
188.512,274.467950614
188.527,274.497072197
188.542,274.526101526
188.557,274.555038971
188.572,274.583884902
188.587,274.612639688
188.602,274.641303692
188.617,274.669877279
188.632,274.69836081
188.647,274.726754644
188.66,274.751290355
188.662,274.755059139
188.677,274.783274649
188.692,274.811401529
188.707,274.83944013
188.722,274.867390801
