# 10410 EDZE Essen Observations at 12Z 05 Nov 2019
Frequency [GHz],TB
175.31,266.34842709
175.322,266.340111657
175.337,266.329573556
175.352,266.31887548
175.367,266.30801723
175.382,266.296998613
175.397,266.28581944
175.412,266.274479529
175.427,266.262978699
175.442,266.251316778
175.457,266.239493596
175.472,266.227508989
175.487,266.215362796
175.502,266.203054863
175.517,266.190585041
175.532,266.177953184
175.547,266.165159153
175.562,266.152202811
175.577,266.13908403
175.592,266.125802685
175.607,266.112358654
175.622,266.098751824
175.637,266.084982084
175.652,266.07104933
175.667,266.056953461
175.682,266.042694383
175.697,266.028272007
175.712,266.013686248
175.727,265.998937026
175.742,265.984024268
175.757,265.968947904
175.772,265.953707871
175.787,265.93830411
175.802,265.922736567
175.817,265.907005195
175.832,265.89110995
175.847,265.875050795
175.862,265.858827696
175.877,265.842440627
175.892,265.825889564
175.907,265.809174492
175.922,265.792295397
175.937,265.775252275
175.952,265.758045122
175.967,265.740673944
175.982,265.723138748
175.997,265.70543955
176.012,265.687576369
176.027,265.669549228
176.042,265.651358159
176.057,265.633003195
176.072,265.614484378
176.087,265.595801751
176.102,265.576955365
176.117,265.557945277
176.132,265.538771545
176.147,265.519434236
176.162,265.499933421
176.177,265.480269174
176.192,265.460441577
176.207,265.440450715
176.222,265.420296679
176.237,265.399979564
176.252,265.379499471
176.267,265.358856505
176.282,265.338050776
176.297,265.317082398
176.31,265.298778333
176.312,265.295951493
176.327,265.274658184
176.342,265.2532026
176.357,265.231584876
176.372,265.209805149
176.387,265.187863563
176.402,265.165760267
176.417,265.14349541
176.432,265.121069152
176.447,265.098481651
176.46,265.078775519
176.462,265.075733075
176.477,265.052823593
176.492,265.029753379
176.507,265.00652261
176.522,264.983131471
176.537,264.959580146
176.552,264.935868829
176.567,264.911997711
176.582,264.887966993
176.597,264.863776877
176.612,264.839427569
176.627,264.81491928
176.642,264.790252223
176.657,264.765426617
176.672,264.74044268
176.687,264.71530064
176.702,264.690000723
176.717,264.664543161
176.732,264.638928189
176.747,264.613156044
176.762,264.587226967
176.777,264.561141204
176.792,264.534899
176.807,264.508500605
176.822,264.481946274
176.837,264.45523626
176.852,264.428370822
176.867,264.401350222
176.882,264.374174723
176.897,264.346844588
176.912,264.319360088
176.927,264.291721492
176.942,264.263929073
176.957,264.235983104
176.972,264.207883863
176.987,264.179631627
177.002,264.151226675
177.017,264.122669291
177.032,264.093959755
177.047,264.065098354
177.062,264.036085373
177.077,264.006921099
177.092,263.97760582
177.107,263.948139825
177.122,263.918523405
177.137,263.888756851
177.152,263.858840453
177.167,263.828774505
177.182,263.7985593
177.197,263.768195129
177.21,263.741759246
177.212,263.737682288
177.227,263.707021068
177.242,263.676211764
177.257,263.64525467
177.272,263.614150078
177.287,263.582898282
177.302,263.551499573
177.31,263.534693626
177.317,263.519954245
177.332,263.488262587
177.347,263.456424892
177.362,263.424441448
177.377,263.392312545
177.392,263.360038468
177.407,263.327619505
177.422,263.29505594
177.437,263.262348057
177.452,263.229496137
177.467,263.19650046
177.482,263.163361303
177.497,263.130078943
177.512,263.096653654
177.527,263.063085706
177.542,263.029375369
177.557,262.99552291
177.572,262.961528591
177.587,262.927392675
177.602,262.89311542
177.617,262.858697081
177.632,262.824137909
177.647,262.789438154
177.66,262.759251506
177.662,262.75459806
177.677,262.719617871
177.692,262.684497823
177.707,262.649238151
177.722,262.613839086
177.737,262.578300854
177.752,262.542623676
177.767,262.506807772
177.782,262.470853355
177.797,262.434760633
177.812,262.398529811
177.827,262.362161089
177.842,262.32565466
177.857,262.289010715
177.872,262.252229438
177.887,262.215311008
177.902,262.1782556
177.917,262.14106338
177.932,262.103734512
177.947,262.066269153
177.96,262.033688885
177.962,262.028667453
177.977,261.990929558
177.992,261.953055606
178.007,261.915045731
178.022,261.876900058
178.037,261.838618707
178.052,261.800201791
178.067,261.761649418
178.082,261.722961687
178.097,261.684138691
178.112,261.645180516
178.127,261.60608724
178.142,261.566858936
178.157,261.527495668
178.172,261.487997492
178.187,261.448364458
178.202,261.408596607
178.217,261.368693975
178.232,261.328656586
178.247,261.288484458
178.262,261.248177603
178.277,261.207736023
178.292,261.16715971
178.307,261.126448651
178.322,261.085602823
178.337,261.044622194
178.352,261.003506724
178.367,260.962256366
178.382,260.920871061
178.397,260.879350744
178.41,260.843257201
178.412,260.837695339
178.427,260.795904762
178.442,260.75397892
178.457,260.71191771
178.472,260.669721022
178.487,260.627388734
178.502,260.584920716
178.517,260.542316828
178.532,260.499576921
178.547,260.456700836
178.562,260.413688404
178.577,260.370539447
178.592,260.327253777
178.607,260.283831195
178.622,260.240271494
178.637,260.196574456
178.652,260.152739853
178.667,260.108767446
178.682,260.064656987
178.697,260.020408217
178.712,259.976020868
178.727,259.93149466
178.742,259.886829303
178.757,259.842024497
178.772,259.797079931
178.787,259.751995285
178.802,259.706770225
178.817,259.66140441
178.832,259.615897486
178.847,259.570249089
178.862,259.524458843
178.877,259.478526364
178.892,259.432451255
178.907,259.386233108
178.922,259.339871503
178.937,259.293366012
178.952,259.246716194
178.967,259.199921597
178.982,259.152981757
178.997,259.105896202
179.012,259.058664444
179.027,259.011285989
179.042,258.963760327
179.057,258.916086939
179.072,258.868265295
179.087,258.820294852
179.102,258.772175057
179.117,258.723905346
179.132,258.675485141
179.147,258.626913854
179.16,258.584696068
179.162,258.578190887
179.177,258.529315627
179.192,258.480287453
179.207,258.431105729
179.222,258.38176981
179.237,258.332279038
179.252,258.282632744
179.267,258.232830246
179.282,258.18287085
179.297,258.132753853
179.312,258.082478538
179.327,258.032044176
179.342,257.981450027
179.357,257.930695338
179.372,257.879779345
179.387,257.828701272
179.402,257.777460332
179.417,257.726055723
179.432,257.674486634
179.447,257.622752241
179.462,257.570851707
179.477,257.518784185
179.492,257.466548813
179.507,257.414144719
179.522,257.361571019
179.537,257.308826817
179.552,257.255911202
179.567,257.202823256
179.582,257.149562043
179.597,257.096126619
179.612,257.042516027
179.627,256.988729296
179.642,256.934765445
179.657,256.880623479
179.672,256.826302393
179.687,256.771801167
179.702,256.71711877
179.717,256.662254161
179.732,256.607206283
179.747,256.551974068
179.762,256.496556438
179.777,256.4409523
179.792,256.38516055
179.807,256.329180072
179.822,256.273009737
179.837,256.216648405
179.852,256.160094923
179.867,256.103348126
179.882,256.046406837
179.897,255.989269866
179.91,255.939591946
179.912,255.931936013
179.927,255.874404065
179.942,255.816672797
179.957,255.758740971
179.972,255.700607339
179.987,255.64227064
180.002,255.583729602
180.017,255.524982941
180.032,255.46602936
180.047,255.406867553
180.062,255.347496201
180.077,255.287913973
180.092,255.228119529
180.107,255.168111514
180.122,255.107888567
180.137,255.04744931
180.152,254.98679236
180.167,254.925916318
180.182,254.864819779
180.197,254.803501324
180.212,254.741959525
180.227,254.680192944
180.242,254.618200132
180.257,254.555979632
180.272,254.493529975
180.287,254.430849684
180.302,254.367937273
180.317,254.304791245
180.332,254.241410096
180.347,254.177792314
180.362,254.113936375
180.377,254.049840752
180.392,253.985503906
180.407,253.920924293
180.422,253.856100361
180.437,253.79103055
180.452,253.725713296
180.467,253.660147027
180.482,253.594330165
180.497,253.528261129
180.512,253.461938329
180.527,253.395360175
180.542,253.32852507
180.557,253.261431414
180.56,253.247981516
180.572,253.194077604
180.587,253.126462036
180.602,253.0585831
180.617,252.990439189
180.632,252.922028692
180.647,252.85335
180.66,252.793610282
180.662,252.784401503
180.677,252.715181592
180.692,252.645688661
180.707,252.575921105
180.722,252.505877323
180.737,252.435555719
180.752,252.364954701
180.767,252.294072682
180.782,252.222908083
180.797,252.151459333
180.812,252.079724868
180.827,252.007703134
180.842,251.93539259
180.857,251.862791704
180.872,251.789898957
180.887,251.716712846
180.902,251.643231883
180.917,251.569454595
180.932,251.49537953
180.947,251.421005251
180.962,251.346330347
180.977,251.271353425
180.992,251.196073117
181.007,251.120488084
181.022,251.044597009
181.037,250.968398606
181.052,250.891891622
181.067,250.815074832
181.082,250.73794705
181.097,250.660507124
181.112,250.582753941
181.127,250.504686428
181.142,250.426303556
181.157,250.347604342
181.172,250.268587849
181.187,250.18925319
181.202,250.109599533
181.217,250.029626099
181.232,249.949332168
181.247,249.86871708
181.262,249.787780239
181.277,249.706521118
181.292,249.624939257
181.307,249.54303427
181.31,249.526614469
181.322,249.460805849
181.337,249.378253763
181.352,249.295377867
181.367,249.212178103
181.382,249.128654503
181.397,249.044807192
181.412,248.960636399
181.427,248.87614245
181.442,248.791325784
181.457,248.706186947
181.472,248.620726603
181.487,248.534945539
181.502,248.448844664
181.517,248.36242502
181.532,248.275687785
181.547,248.188634278
181.562,248.101265964
181.577,248.01358446
181.592,247.925591542
181.607,247.837289148
181.622,247.748679387
181.637,247.659764546
181.652,247.57054709
181.667,247.481029677
181.682,247.391215158
181.697,247.30110659
181.712,247.210707236
181.727,247.120020579
181.742,247.029050324
181.757,246.937800411
181.772,246.846275017
181.787,246.754478568
181.802,246.662415748
181.817,246.570091502
181.832,246.47751105
181.847,246.384679893
181.862,246.291603823
181.877,246.19828893
181.892,246.104741615
181.907,246.010968595
181.922,245.916976916
181.937,245.82277396
181.952,245.728367457
181.967,245.633765493
181.982,245.538976522
181.997,245.444009376
182.012,245.348873271
182.027,245.253577826
182.042,245.158133065
182.057,245.062549431
182.06,245.043416988
182.072,244.966837798
182.087,244.871009479
182.102,244.775076238
182.117,244.679050301
182.132,244.582944363
182.147,244.486771605
182.162,244.390545696
182.177,244.294280812
182.192,244.197991638
182.207,244.101693382
182.222,244.005401786
182.237,243.909133131
182.252,243.812904246
182.267,243.71673252
182.282,243.620635909
182.297,243.524632938
182.312,243.428742716
182.327,243.332984935
182.342,243.237379878
182.357,243.141948425
182.372,243.046712052
182.387,242.951692839
182.402,242.856913466
182.417,242.762397216
182.432,242.668167971
182.447,242.574250215
182.462,242.480669022
182.477,242.387450056
182.492,242.294619558
182.507,242.202204341
182.522,242.110231775
182.537,242.018729775
182.552,241.927726781
182.567,241.837251745
182.582,241.747334101
182.597,241.658003748
182.612,241.569291022
182.627,241.48122666
182.642,241.393841774
182.657,241.307167809
182.672,241.221236504
182.687,241.136079851
182.702,241.051730044
182.717,240.968219432
182.732,240.88558046
182.747,240.803845609
182.762,240.723047339
182.777,240.64321801
182.792,240.564389816
182.807,240.486594699
182.822,240.409864263
182.837,240.334229672
182.852,240.259721544
182.867,240.186369819
182.882,240.114203612
182.897,240.043251034
182.912,239.973538963
182.927,239.905092769
182.942,239.837935941
182.957,239.7720896
182.972,239.707571834
182.987,239.644396789
183.002,239.582573399
183.017,239.522103608
183.032,239.462979838
183.047,239.405181384
183.062,239.348669229
183.077,239.293378548
183.092,239.239207809
183.107,239.186002828
183.122,239.133533322
183.137,239.08145825
183.152,239.029274467
183.167,238.976240807
183.182,238.921267265
183.197,238.86275892
183.212,238.798416019
183.227,238.725044758
183.242,238.638613619
183.257,238.535306471
183.367,238.551083925
183.382,238.646795222
183.397,238.726448597
183.412,238.794119209
183.427,238.853662753
183.442,238.908034187
183.457,238.95933438
183.472,239.009013051
183.487,239.058059214
183.502,239.107145013
183.517,239.156726605
183.532,239.207112957
183.547,239.258512339
183.562,239.311063709
183.577,239.364857982
183.592,239.419952512
183.607,239.476381003
183.622,239.534160344
183.637,239.593295338
183.652,239.653782
183.667,239.715609872
183.682,239.778763658
183.697,239.843224388
183.712,239.908970264
183.727,239.975977264
183.742,240.044219606
183.757,240.113670083
183.772,240.184300334
183.787,240.25608105
183.802,240.328982149
183.817,240.402972917
183.832,240.478022126
183.847,240.554098147
183.862,240.631169042
183.877,240.70920265
183.892,240.788166665
183.907,240.868028711
183.922,240.948756405
183.937,241.030317423
183.952,241.112679555
183.967,241.19581076
183.982,241.279679215
183.997,241.364253361
184.012,241.449501944
184.027,241.535394057
184.042,241.621899171
184.057,241.708987171
184.072,241.796628382
184.087,241.884793598
184.102,241.973454104
184.117,242.062581694
184.132,242.152148694
184.147,242.242127975
184.162,242.332492964
184.177,242.423217661
184.192,242.51427664
184.207,242.605645066
184.222,242.697298692
184.237,242.789213866
184.252,242.881367534
184.267,242.973737242
184.282,243.066301131
184.297,243.159037941
184.312,243.251927002
184.327,243.344948237
184.342,243.438082153
184.357,243.531309836
184.372,243.624612947
184.387,243.717973712
184.402,243.811374919
184.417,243.904799904
184.432,243.998232547
184.447,244.091657264
184.462,244.185058992
184.477,244.278423187
184.492,244.371735809
184.507,244.464983312
184.522,244.55815264
184.537,244.651231207
184.552,244.744206895
184.56,244.793747817
184.567,244.837068039
184.582,244.929803419
184.597,245.022402248
184.612,245.114854162
184.627,245.207149208
184.642,245.299277837
184.657,245.391230891
184.672,245.482999593
184.687,245.574575538
184.702,245.665950682
184.717,245.757117332
184.732,245.848068136
184.747,245.938796075
184.762,246.029294451
184.777,246.119556879
184.792,246.209577279
184.807,246.299349863
184.822,246.388869132
184.837,246.478129861
184.852,246.567127096
184.867,246.655856141
184.882,246.744312552
184.897,246.832492131
184.912,246.920390914
184.927,247.008005165
184.942,247.095331372
184.957,247.182366233
184.972,247.269106655
184.987,247.355549743
185.002,247.441692796
185.017,247.527533298
185.032,247.613068914
185.047,247.698297481
185.062,247.783217005
185.077,247.867825653
185.092,247.952121746
185.107,248.036103757
185.122,248.119770304
185.137,248.203120143
185.152,248.286152164
185.167,248.368865387
185.182,248.451258955
185.197,248.533332133
185.212,248.615084298
185.227,248.696514941
185.242,248.777623655
185.257,248.858410137
185.272,248.938874184
185.287,249.019015684
185.302,249.098834616
185.31,249.141272838
185.317,249.178331047
185.332,249.257505124
185.347,249.336357076
185.362,249.414887208
185.377,249.493095895
185.392,249.570983586
185.407,249.648550793
185.422,249.725798093
185.437,249.802726124
185.452,249.879335581
185.467,249.955627217
185.482,250.031601834
185.497,250.107260287
185.512,250.182603479
185.527,250.257632356
185.542,250.332347911
185.557,250.406751174
185.572,250.480843217
185.587,250.554625149
185.602,250.628098111
185.617,250.701263281
185.632,250.774121865
185.647,250.846675101
185.662,250.918924253
185.677,250.990870614
185.692,251.062515497
185.707,251.133860243
185.722,251.204906211
185.737,251.275654782
185.752,251.346107356
185.767,251.41626535
185.782,251.486130196
185.797,251.555703343
185.812,251.624986254
185.827,251.693980403
185.842,251.762687277
185.857,251.831108374
185.872,251.8992452
185.887,251.967099271
185.902,252.03467211
185.917,252.101965248
185.932,252.168980221
185.947,252.235718571
185.96,252.293335911
185.962,252.302181842
185.977,252.368371586
185.992,252.434289353
186.007,252.4999367
186.022,252.565315181
186.037,252.630426355
186.052,252.695271778
186.06,252.729747879
186.067,252.759853008
186.082,252.824171602
186.097,252.888229113
186.112,252.952027097
186.127,253.015567102
186.142,253.078850678
186.157,253.141879368
186.172,253.204654714
186.187,253.267178253
186.202,253.329451518
186.217,253.391476034
186.232,253.453253326
186.247,253.514784908
186.262,253.576072293
186.277,253.637116985
186.292,253.697920483
186.307,253.758484276
186.322,253.818809851
186.337,253.878898683
186.352,253.938752243
186.367,253.998371993
186.382,254.057759387
186.397,254.11691587
186.412,254.17584288
186.427,254.234541847
186.442,254.29301419
186.457,254.351261322
186.472,254.409284645
186.487,254.467085553
186.502,254.524665431
186.517,254.582025652
186.532,254.639167583
186.547,254.696092581
186.562,254.752801991
186.577,254.80929715
186.592,254.865579385
186.607,254.921650013
186.622,254.977510341
186.637,255.033161666
186.652,255.088605275
186.667,255.143842444
186.682,255.19887444
186.697,255.253702519
186.71,255.301056205
186.712,255.308327927
186.727,255.362751901
186.742,255.416975664
186.757,255.471000433
186.772,255.524827411
186.787,255.578457794
186.802,255.631892764
186.817,255.685133495
186.832,255.738181151
186.847,255.791036882
186.862,255.843701833
186.877,255.896177133
186.892,255.948463905
186.907,256.000563258
186.922,256.052476295
186.937,256.104204103
186.952,256.155747764
186.967,256.207108345
186.982,256.258286907
186.997,256.309284497
187.012,256.360102154
187.027,256.410740906
187.042,256.46120177
187.057,256.511485754
187.072,256.561593855
187.087,256.61152706
187.102,256.661286347
187.117,256.710872683
187.132,256.760287023
187.147,256.809530315
187.162,256.858603496
187.177,256.907507492
187.192,256.956243221
187.207,257.004811589
187.222,257.053213494
187.237,257.101449824
187.252,257.149521455
187.267,257.197429256
187.282,257.245174086
187.297,257.292756792
187.312,257.340178214
187.327,257.387439182
187.342,257.434540515
187.357,257.481483024
187.372,257.52826751
187.387,257.574894766
187.402,257.621365573
187.417,257.667680705
187.432,257.713840926
187.447,257.759846991
187.46,257.799594795
187.462,257.805699645
187.477,257.851399626
187.492,257.89694766
187.507,257.942344467
187.522,257.987590756
187.537,258.032687228
187.552,258.077634575
187.567,258.12243348
187.582,258.167084618
187.597,258.211588654
187.612,258.255946246
187.627,258.300158042
187.642,258.344224683
187.657,258.388146799
187.672,258.431925013
187.687,258.475559941
187.702,258.519052189
187.717,258.562402355
187.732,258.605611029
187.747,258.648678791
187.762,258.691606217
187.777,258.734393871
187.792,258.77704231
187.807,258.819552084
187.822,258.861923734
187.837,258.904157795
187.852,258.946254791
187.867,258.98821524
187.882,259.030039654
187.897,259.071728533
187.912,259.113282374
187.927,259.154701664
187.942,259.195986882
187.957,259.2371385
187.972,259.278156985
187.987,259.319042792
188.002,259.359796373
188.017,259.400418171
188.032,259.440908621
188.047,259.481268152
188.062,259.521497185
188.077,259.561596136
188.092,259.601565411
188.107,259.641405412
188.122,259.681116532
188.137,259.720699157
188.152,259.760153669
188.167,259.79948044
188.182,259.838679838
188.197,259.877752223
188.21,259.91151249
188.212,259.916697947
188.227,259.955517359
188.242,259.9942108
188.257,260.032778603
188.272,260.071221097
188.287,260.109538603
188.302,260.147731438
188.317,260.185799911
188.332,260.223744325
188.347,260.261564977
188.362,260.29926216
188.377,260.336836158
188.392,260.374287252
188.407,260.411615715
188.422,260.448821817
188.437,260.485905818
188.452,260.522867977
188.467,260.559708545
188.482,260.596427768
188.497,260.633025886
188.512,260.669503135
188.527,260.705859744
188.542,260.742095939
188.557,260.77821194
188.572,260.814207959
188.587,260.850084208
188.602,260.885840891
188.617,260.921478207
188.632,260.956996351
188.647,260.992395514
188.66,261.022978688
188.662,261.027675879
188.677,261.06283763
188.692,261.09788094
188.707,261.132805982
188.722,261.167612924
188.737,261.202301927
188.752,261.23687315
