# 48698 WSSS Singapore Observations at 12Z 05 Nov 2019
Frequency [GHz],TB
175.31,271.702382619
175.322,271.677793747
175.337,271.646992105
175.352,271.616117458
175.367,271.585169621
175.382,271.554148407
175.397,271.52305363
175.412,271.491885104
175.427,271.460642641
175.442,271.429326055
175.457,271.397935155
175.472,271.366469754
175.487,271.334929662
175.502,271.303314691
175.517,271.271624647
175.532,271.239859342
175.547,271.208018583
175.562,271.176102178
175.577,271.144109937
175.592,271.112041663
175.607,271.079897166
175.622,271.04767625
175.637,271.01537872
175.652,270.983004381
175.667,270.95055304
175.682,270.918024498
175.697,270.885418558
175.712,270.852735024
175.727,270.819973697
175.742,270.787134379
175.757,270.754216871
175.772,270.721220974
175.787,270.688146488
175.802,270.65499321
175.817,270.621760941
175.832,270.58844948
175.847,270.555058622
175.862,270.521588166
175.877,270.488037909
175.892,270.454407646
175.907,270.420697173
175.922,270.386906284
175.937,270.353034773
175.952,270.319082436
175.967,270.285049062
175.982,270.25093445
175.997,270.216738385
176.012,270.182460664
176.027,270.148101073
176.042,270.113659406
176.057,270.07913545
176.072,270.044528996
176.087,270.009839832
176.102,269.975067744
176.117,269.940212522
176.132,269.905273951
176.147,269.870251817
176.162,269.835145905
176.177,269.799956
176.192,269.764681888
176.207,269.729323349
176.222,269.693880169
176.237,269.658352129
176.252,269.62273901
176.267,269.587040593
176.282,269.55125666
176.297,269.515386988
176.31,269.484230417
176.312,269.479431358
176.327,269.443389546
176.342,269.407261331
176.357,269.371046492
176.372,269.334744801
176.387,269.298356036
176.402,269.261879972
176.417,269.225316382
176.432,269.18866504
176.447,269.151925718
176.46,269.12001363
176.462,269.115098189
176.477,269.078182223
176.492,269.041177592
176.507,269.004084064
176.522,268.96690141
176.537,268.929629395
176.552,268.892267789
176.567,268.854816358
176.582,268.817274868
176.597,268.779643084
176.612,268.741920769
176.627,268.704107688
176.642,268.666203602
176.657,268.628208275
176.672,268.590121465
176.687,268.551942934
176.702,268.513672441
176.717,268.475309742
176.732,268.436854597
176.747,268.398306762
176.762,268.359665991
176.777,268.320932041
176.792,268.282104663
176.807,268.24318361
176.822,268.204168634
176.837,268.165059488
176.852,268.125855918
176.867,268.086557675
176.882,268.047164506
176.897,268.007676156
176.912,267.968092374
176.927,267.928412901
176.942,267.888637482
176.957,267.848765859
176.972,267.808797773
176.987,267.768732962
177.002,267.728571167
177.017,267.688312126
177.032,267.647955574
177.047,267.607501245
177.062,267.566948875
177.077,267.526298196
177.092,267.485548938
177.107,267.444700832
177.122,267.403753607
177.137,267.36270699
177.152,267.321560705
177.167,267.280314479
177.182,267.238968033
177.197,267.197521091
177.21,267.161518899
177.212,267.15597337
177.227,267.114324591
177.242,267.072574469
177.257,267.030722722
177.272,266.98876906
177.287,266.946713199
177.302,266.904554848
177.31,266.882028387
177.317,266.862293716
177.332,266.819929509
177.347,266.777461935
177.362,266.734890695
177.377,266.692215492
177.392,266.649436026
177.407,266.606551995
177.422,266.563563095
177.437,266.52046902
177.452,266.477269463
177.467,266.433964114
177.482,266.39055266
177.497,266.347034788
177.512,266.303410183
177.527,266.259678524
177.542,266.215839494
177.557,266.171892767
177.572,266.127838019
177.587,266.083674923
177.602,266.039403149
177.617,265.995022364
177.632,265.950532235
177.647,265.905932424
177.66,265.86719027
177.662,265.86122259
177.677,265.816402391
177.692,265.771471482
177.707,265.726429516
177.722,265.681276141
177.737,265.636011004
177.752,265.590633748
177.767,265.545144014
177.782,265.499541441
177.797,265.453825661
177.812,265.407996307
177.827,265.362053007
177.842,265.315995386
177.857,265.269823065
177.872,265.223535664
177.887,265.177132798
177.902,265.130614076
177.917,265.083979108
177.932,265.037227498
177.947,264.990358847
177.96,264.949644364
177.962,264.943372751
177.977,264.896268804
177.992,264.849046594
178.007,264.801705706
178.022,264.754245723
178.037,264.706666221
178.052,264.658966774
178.067,264.611146948
178.082,264.56320631
178.097,264.515144419
178.112,264.46696083
178.127,264.418655094
178.142,264.370226758
178.157,264.321675363
178.172,264.273000445
178.187,264.224201535
178.202,264.175278162
178.217,264.126229846
178.232,264.077056105
178.247,264.027756448
178.262,263.978330383
178.277,263.928777409
178.292,263.879097022
178.307,263.829288711
178.322,263.779351958
178.337,263.729286242
178.352,263.679091036
178.367,263.628765804
178.382,263.578310007
178.397,263.527723097
178.41,263.483774626
178.412,263.477004523
178.427,263.426153723
178.442,263.375170134
178.457,263.324053182
178.472,263.272802287
178.487,263.221416866
178.502,263.169896323
178.517,263.11824006
178.532,263.066447468
178.547,263.014517934
178.562,262.962450835
178.577,262.910245542
178.592,262.857901418
178.607,262.805417817
178.622,262.752794089
178.637,262.70002957
178.652,262.647123594
178.667,262.594075482
178.682,262.540884549
178.697,262.487550103
178.712,262.43407144
178.727,262.380447849
178.742,262.326678611
178.757,262.272762995
178.772,262.218700265
178.787,262.164489673
178.802,262.110130464
178.817,262.05562187
178.832,262.000963116
178.847,261.946153416
178.862,261.891191978
178.877,261.836077993
178.892,261.780810648
178.907,261.725389117
178.922,261.669812565
178.937,261.614080144
178.952,261.558190999
178.967,261.502144261
178.982,261.445939052
178.997,261.389574482
179.012,261.333049651
179.027,261.276363646
179.042,261.219515544
179.057,261.162504411
179.072,261.105329298
179.087,261.047989248
179.102,260.99048329
179.117,260.932810442
179.132,260.874969709
179.147,260.816960084
179.16,260.766547673
179.162,260.758780546
179.177,260.700430065
179.192,260.641907594
179.207,260.583212076
179.222,260.52434244
179.237,260.465297602
179.252,260.406076464
179.267,260.346677915
179.282,260.287100832
179.297,260.227344076
179.312,260.167406496
179.327,260.107286925
179.342,260.046984184
179.357,259.986497079
179.372,259.925824401
179.387,259.864964927
179.402,259.80391742
179.417,259.742680628
179.432,259.681253284
179.447,259.619634106
179.462,259.557821796
179.477,259.495815043
179.492,259.433612518
179.507,259.371212879
179.522,259.308614766
179.537,259.245816806
179.552,259.182817607
179.567,259.119615764
179.582,259.056209853
179.597,258.992598437
179.612,258.928780059
179.627,258.86475325
179.642,258.800516519
179.657,258.736068363
179.672,258.671407258
179.687,258.606531667
179.702,258.541440034
179.717,258.476130786
179.732,258.410602331
179.747,258.344853062
179.762,258.278881352
179.777,258.212685559
179.792,258.146264021
179.807,258.079615058
179.822,258.012736973
179.837,257.94562805
179.852,257.878286555
179.867,257.810710733
179.882,257.742898815
179.897,257.674849008
179.91,257.615678686
179.912,257.606559505
179.927,257.538028474
179.942,257.46925407
179.957,257.400234423
179.972,257.330967647
179.987,257.261451835
180.002,257.19168506
180.017,257.121665374
180.032,257.051390811
180.047,256.980859383
180.062,256.91006908
180.077,256.839017873
180.092,256.767703713
180.107,256.696124527
180.122,256.624278223
180.137,256.552162685
180.152,256.479775778
180.167,256.407115341
180.182,256.334179196
180.197,256.260965138
180.212,256.18747094
180.227,256.113694354
180.242,256.039633107
180.257,255.965284904
180.272,255.890647424
180.287,255.815718324
180.302,255.740495236
180.317,255.664975766
180.332,255.589157497
180.347,255.513037986
180.362,255.436614764
180.377,255.359885338
180.392,255.282847186
180.407,255.205497762
180.422,255.127834491
180.437,255.049854772
180.452,254.971555977
180.467,254.892935447
180.482,254.813990499
180.497,254.734718417
180.512,254.655116459
180.527,254.575181851
180.542,254.494911791
180.557,254.414303446
180.56,254.398140931
180.572,254.333353951
180.587,254.252060411
180.602,254.170419898
180.617,254.088429453
180.632,254.006086084
180.647,253.923386766
180.66,253.851423736
180.662,253.840328439
180.677,253.756908011
180.692,253.673122354
180.707,253.588968307
180.722,253.504442669
180.737,253.419542208
180.752,253.334263652
180.767,253.248603695
180.782,253.16255899
180.797,253.076126156
180.812,252.98930177
180.827,252.902082373
180.842,252.814464465
180.857,252.726444506
180.872,252.638018916
180.887,252.549184076
180.902,252.459936324
180.917,252.370271957
180.932,252.28018723
180.947,252.189678357
180.962,252.098741506
180.977,252.007372807
180.992,251.915568343
181.007,251.823324155
181.022,251.73063624
181.037,251.63750055
181.052,251.543912994
181.067,251.449869438
181.082,251.3553657
181.097,251.260397556
181.112,251.164960738
181.127,251.069050932
181.142,250.97266378
181.157,250.87579488
181.172,250.778439784
181.187,250.680594004
181.202,250.582253005
181.217,250.483412209
181.232,250.384066996
181.247,250.284212705
181.262,250.18384463
181.277,250.082958026
181.292,249.981548106
181.307,249.879610045
181.31,249.859158628
181.322,249.777138978
181.337,249.674130001
181.352,249.570578176
181.367,249.466478527
181.382,249.361826044
181.397,249.256615683
181.412,249.150842369
181.427,249.044500996
181.442,248.937586431
181.457,248.830093512
181.472,248.722017052
181.487,248.613351842
181.502,248.50409265
181.517,248.394234228
181.532,248.283771307
181.547,248.172698607
181.562,248.061010836
181.577,247.948702691
181.592,247.835768865
181.607,247.722204045
181.622,247.608002921
181.637,247.493160182
181.652,247.377670527
181.667,247.261528663
181.682,247.144729311
181.697,247.027267207
181.712,246.909137112
181.727,246.79033381
181.742,246.670852115
181.757,246.550686874
181.772,246.429832976
181.787,246.30828535
181.802,246.186038977
181.817,246.063088888
181.832,245.939430178
181.847,245.815058003
181.862,245.689967593
181.877,245.564154254
181.892,245.437613375
181.907,245.310340437
181.922,245.182331017
181.937,245.053580799
181.952,244.924085576
181.967,244.793841264
181.982,244.662843908
181.997,244.53108969
182.012,244.39857494
182.027,244.265296144
182.042,244.131249954
182.057,243.996433204
182.06,243.969377121
182.072,243.860842913
182.087,243.724476303
182.102,243.587330813
182.117,243.449404105
182.132,243.310694087
182.147,243.171198922
182.162,243.030917048
182.177,242.889847191
182.192,242.747988388
182.207,242.605340003
182.222,242.461901747
182.237,242.317673705
182.252,242.172656352
182.267,242.026850583
182.282,241.880257737
182.297,241.732879627
182.312,241.584718569
182.327,241.435777413
182.342,241.286059579
182.357,241.135569092
182.372,240.984310621
182.387,240.832289518
182.402,240.679511864
182.417,240.525984516
182.432,240.371715149
182.447,240.216712318
182.462,240.060985503
182.477,239.90454517
182.492,239.747402835
182.507,239.589571119
182.522,239.431063821
182.537,239.271895983
182.552,239.112083963
182.567,238.951645506
182.582,238.790599822
182.597,238.62896766
182.612,238.466771386
182.627,238.30403506
182.642,238.140784512
182.657,237.977047412
182.672,237.812853342
182.687,237.648233855
182.702,237.483222528
182.717,237.317855003
182.732,237.152169011
182.747,236.98620437
182.762,236.820002966
182.777,236.65360869
182.792,236.487067334
182.807,236.320426435
182.822,236.153735046
182.837,235.987043426
182.852,235.820402624
182.867,235.653863927
182.882,235.487478148
182.897,235.321294716
182.912,235.155360501
182.927,234.989718332
182.942,234.824405118
182.957,234.65944947
182.972,234.494868687
182.987,234.330664952
183.002,234.166820498
183.017,234.00329146
183.032,233.840000026
183.047,233.676824367
183.062,233.513585674
183.077,233.350031373
183.092,233.185813341
183.107,233.020459563
183.122,232.853337344
183.137,232.683605987
183.152,232.510157315
183.167,232.331544789
183.182,232.145909588
183.197,231.950933392
183.212,231.743904784
183.227,231.522135093
183.242,231.284330798
183.257,231.034337125
183.367,231.086718725
183.382,231.331150657
183.397,231.561627548
183.412,231.776184261
183.427,231.976688973
183.442,232.165905788
183.457,232.34645965
183.472,232.520546658
183.487,232.689910433
183.502,232.85590097
183.517,233.01954923
183.532,233.18163536
183.547,233.342744919
183.562,233.503313265
183.577,233.663659964
183.592,233.824015257
183.607,233.984540429
183.622,234.145343496
183.637,234.30649135
183.652,234.468019198
183.667,234.629937924
183.682,234.792239874
183.697,234.954903391
183.712,235.117896405
183.727,235.281179262
183.742,235.444706964
183.757,235.608430941
183.772,235.772300439
183.787,235.936263626
183.802,236.100268445
183.817,236.26426328
183.832,236.428197468
183.847,236.592021685
183.862,236.755688235
183.877,236.919151253
183.892,237.08236685
183.907,237.2452932
183.922,237.407890589
183.937,237.570121431
183.952,237.731950262
183.967,237.893343702
183.982,238.05427042
183.997,238.21470107
184.012,238.374608226
184.027,238.533966318
184.042,238.692751547
184.057,238.850941817
184.072,239.00851665
184.087,239.16545711
184.102,239.321745726
184.117,239.477366414
184.132,239.632304408
184.147,239.786546178
184.162,239.940079374
184.177,240.092892747
184.192,240.244976095
184.207,240.396320195
184.222,240.546916753
184.237,240.696758341
184.252,240.84583835
184.267,240.994150941
184.282,241.141690997
184.297,241.28845408
184.312,241.434436389
184.327,241.579634722
184.342,241.724046441
184.357,241.867669435
184.372,242.01050209
184.387,242.152543256
184.402,242.293792223
184.417,242.434248691
184.432,242.573912746
184.447,242.712784837
184.462,242.850865754
184.477,242.988156606
184.492,243.124658802
184.507,243.260374037
184.522,243.395304268
184.537,243.529451702
184.552,243.662818781
184.56,243.733629721
184.567,243.795408165
184.582,243.927222724
184.597,244.058265516
184.612,244.188539787
184.627,244.318048949
184.642,244.446796575
184.657,244.574786389
184.672,244.702022251
184.687,244.828508156
184.702,244.95424822
184.717,245.079246671
184.732,245.203507845
184.747,245.327036175
184.762,245.449836188
184.777,245.571912493
184.792,245.693269779
184.807,245.813912806
184.822,245.9338464
184.837,246.053075447
184.852,246.17160489
184.867,246.289439719
184.882,246.406584972
184.897,246.523045723
184.912,246.638827084
184.927,246.753934197
184.942,246.868372232
184.957,246.982146381
184.972,247.095261853
184.987,247.207723875
185.002,247.319537684
185.017,247.430708526
185.032,247.541241649
185.047,247.651142308
185.062,247.760415751
185.077,247.869067226
185.092,247.977101972
185.107,248.084525219
185.122,248.191342184
185.137,248.297558073
185.152,248.40317807
185.167,248.508207346
185.182,248.612651046
185.197,248.716514296
185.212,248.819802195
185.227,248.922519817
185.242,249.024672208
185.257,249.126264383
185.272,249.227301328
185.287,249.327787996
185.302,249.427729306
185.31,249.480810036
185.317,249.527130144
185.332,249.625995358
185.347,249.72432976
185.362,249.822138125
185.377,249.919425189
185.392,250.016195649
185.407,250.112454161
185.422,250.208205342
185.437,250.303453766
185.452,250.398203966
185.467,250.492460435
185.482,250.586227619
185.497,250.679509925
185.512,250.772311716
185.527,250.864637311
185.542,250.956490985
185.557,251.047876971
185.572,251.138799458
185.587,251.229262591
185.602,251.31927047
185.617,251.408827153
185.632,251.497936656
185.647,251.586602948
185.662,251.674829957
185.677,251.762621568
185.692,251.849981622
185.707,251.936913919
185.722,252.023422215
185.737,252.109510225
185.752,252.195181622
185.767,252.280440039
185.782,252.365289065
185.797,252.449732252
185.812,252.533773107
185.827,252.617415103
185.842,252.700661669
185.857,252.783516197
185.872,252.865982039
185.887,252.948062511
185.902,253.029760889
185.917,253.111080413
185.932,253.192024286
185.947,253.272595674
185.96,253.342125332
185.962,253.352797707
185.977,253.432633483
185.992,253.512106059
186.007,253.591218461
186.022,253.669973682
186.037,253.748374679
186.052,253.826424376
186.06,253.867908239
186.067,253.904125667
186.082,253.98148141
186.097,254.058494434
186.112,254.135167536
186.127,254.211503481
186.142,254.287505004
186.157,254.363174812
186.172,254.438515579
186.187,254.513529952
186.202,254.588220549
186.217,254.662589959
186.232,254.736640743
186.247,254.810375436
186.262,254.883796543
186.277,254.956906544
186.292,255.029707893
186.307,255.102203017
186.322,255.174394316
186.337,255.246284168
186.352,255.317874923
186.367,255.389168907
186.382,255.460168423
186.397,255.530875747
186.412,255.601293134
186.427,255.671422815
186.442,255.741266996
186.457,255.810827863
186.472,255.880107577
186.487,255.949108278
186.502,256.017832084
186.517,256.08628109
186.532,256.154457371
186.547,256.222362979
186.562,256.289999948
186.577,256.357370287
186.592,256.424475988
186.607,256.491319021
186.622,256.557901336
186.637,256.624224864
186.652,256.690291516
186.667,256.756103182
186.682,256.821661735
186.697,256.886969028
186.71,256.943366859
186.712,256.952026895
186.727,257.016837152
186.742,257.081401594
186.757,257.145722002
186.772,257.209800135
186.787,257.273637736
186.802,257.33723653
186.817,257.400598224
186.832,257.463724508
186.847,257.526617054
186.862,257.589277517
186.877,257.651707537
186.892,257.713908734
186.907,257.775882713
186.922,257.837631063
186.937,257.899155356
186.952,257.960457147
186.967,258.021537975
186.982,258.082399367
186.997,258.143042827
187.012,258.20346985
187.027,258.263681911
187.042,258.323680472
187.057,258.383466979
187.072,258.443042864
187.087,258.502409541
187.102,258.561568413
187.117,258.620520864
187.132,258.679268268
187.147,258.737811981
187.162,258.796153346
187.177,258.854293692
187.192,258.912234333
187.207,258.96997657
187.222,259.02752169
187.237,259.084870964
187.252,259.142025653
187.267,259.198987003
187.282,259.255756245
187.297,259.3123346
187.312,259.368723272
187.327,259.424923455
187.342,259.480936329
187.357,259.536763061
187.372,259.592404807
187.387,259.647862706
187.402,259.703137891
187.417,259.758231478
187.432,259.813144571
187.447,259.867878265
187.46,259.915169854
187.462,259.922433639
187.477,259.976811764
187.492,260.031013698
187.507,260.085040485
187.522,260.13889316
187.537,260.192572747
187.552,260.246080256
187.567,260.29941669
187.582,260.352583037
187.597,260.405580275
187.612,260.458409373
187.627,260.511071289
187.642,260.563566967
187.657,260.615897345
187.672,260.668063348
187.687,260.720065892
187.702,260.771905882
187.717,260.823584214
187.732,260.875101772
187.747,260.926459433
187.762,260.977658062
187.777,261.028698516
187.792,261.079581642
187.807,261.130308277
187.822,261.180879249
187.837,261.231295377
187.852,261.281557473
187.867,261.331666336
187.882,261.381622759
187.897,261.431427526
187.912,261.481081412
187.927,261.530585183
187.942,261.579939597
187.957,261.629145405
187.972,261.678203347
187.987,261.727114157
188.002,261.775878562
188.017,261.824497277
188.032,261.872971014
188.047,261.921300474
188.062,261.969486352
188.077,262.017529336
188.092,262.065430104
188.107,262.113189329
188.122,262.160807676
188.137,262.208285804
188.152,262.255624364
188.167,262.302823999
188.182,262.349885346
188.197,262.396809038
188.21,262.437365371
188.212,262.443595696
188.227,262.49024594
188.242,262.53676038
188.257,262.583139621
188.272,262.62938426
188.287,262.67549489
188.302,262.721472097
188.317,262.767316461
188.332,262.813028556
188.347,262.85860895
188.362,262.904058207
188.377,262.949376881
188.392,262.994565526
188.407,263.039624685
188.422,263.084554901
188.437,263.129356706
188.452,263.174030632
188.467,263.218577203
188.482,263.262996937
188.497,263.307290348
188.512,263.351457948
188.527,263.395500239
188.542,263.43941772
188.557,263.483210887
188.572,263.52688023
188.587,263.570426235
188.602,263.613849382
188.617,263.657150146
188.632,263.700329002
188.647,263.743386416
188.66,263.780604966
188.662,263.786322851
188.677,263.829138768
188.692,263.871834619
188.707,263.914410859
188.722,263.956867932
188.737,263.999206281
