# 78954 TBPB Grantley Adams Observations at 12Z 03 Dec 2019
Frequency [GHz],TB
175.31,280.10790859
175.322,280.090554643
175.337,280.068813168
175.352,280.047017096
175.367,280.025166309
175.382,280.00326069
175.397,279.981300118
175.412,279.959284474
175.427,279.937213637
175.442,279.915087486
175.457,279.892905897
175.472,279.870668748
175.487,279.848375913
175.502,279.826027269
175.517,279.803622687
175.532,279.781162042
175.547,279.758645204
175.562,279.736072047
175.577,279.713442437
175.592,279.690756246
175.607,279.668013342
175.622,279.645213591
175.637,279.62235686
175.652,279.599443014
175.667,279.576471918
175.682,279.553443434
175.697,279.530357425
175.712,279.507213753
175.727,279.484012277
175.742,279.460752857
175.757,279.437435352
175.772,279.414059619
175.787,279.390625513
175.802,279.367132891
175.817,279.343581606
175.832,279.319971512
175.847,279.296302461
175.862,279.272574304
175.877,279.24878689
175.892,279.22494007
175.907,279.201033691
175.922,279.1770676
175.937,279.153041642
175.952,279.128955662
175.967,279.104809504
175.982,279.080603011
175.997,279.056336023
176.012,279.032008381
176.027,279.007619925
176.042,278.983170492
176.057,278.958659919
176.072,278.934088042
176.087,278.909454696
176.102,278.884759714
176.117,278.860002929
176.132,278.835184172
176.147,278.810303273
176.162,278.785360061
176.177,278.760354363
176.192,278.735286007
176.207,278.710154817
176.222,278.684960619
176.237,278.659703234
176.252,278.634382485
176.267,278.608998193
176.282,278.583550176
176.297,278.558038254
176.31,278.535876086
176.312,278.532462242
176.327,278.506821957
176.342,278.481117213
176.357,278.455347824
176.372,278.429513601
176.387,278.403614355
176.402,278.377649897
176.417,278.351620033
176.432,278.325524572
176.447,278.299363318
176.46,278.276636862
176.462,278.273136077
176.477,278.246842651
176.492,278.220482842
176.507,278.194056452
176.522,278.167563278
176.537,278.141003119
176.552,278.114375772
176.567,278.087681032
176.582,278.060918692
176.597,278.034088547
176.612,278.007190385
176.627,277.980223999
176.642,277.953189175
176.657,277.926085702
176.672,277.898913365
176.687,277.87167195
176.702,277.844361237
176.717,277.81698101
176.732,277.789531048
176.747,277.762011131
176.762,277.734421036
176.777,277.706760539
176.792,277.679029413
176.807,277.651227433
176.822,277.623354371
176.837,277.595409995
176.852,277.567394076
176.867,277.53930638
176.882,277.511146673
176.897,277.482914719
176.912,277.454610282
176.927,277.426233122
176.942,277.397782999
176.957,277.369259671
176.972,277.340662895
176.987,277.311992427
177.002,277.283248019
177.017,277.254429424
177.032,277.225536392
177.047,277.196568672
177.062,277.167526011
177.077,277.138408156
177.092,277.109214849
177.107,277.079945833
177.122,277.05060085
177.137,277.021179637
177.152,276.991681933
177.167,276.962107474
177.182,276.932455992
177.197,276.902727222
177.21,276.876899561
177.212,276.872920893
177.227,276.843036734
177.242,276.813074472
177.257,276.783033834
177.272,276.752914542
177.287,276.722716318
177.302,276.692438883
177.31,276.676258431
177.317,276.662081954
177.332,276.631645249
177.347,276.601128482
177.362,276.570531365
177.377,276.53985361
177.392,276.509094926
177.407,276.478255019
177.422,276.447333595
177.437,276.416330357
177.452,276.385245007
177.467,276.354077243
177.482,276.322826763
177.497,276.291493263
177.512,276.260076436
177.527,276.228575973
177.542,276.196991563
177.557,276.165322894
177.572,276.133569651
177.587,276.101731515
177.602,276.06980817
177.617,276.037799292
177.632,276.005704558
177.647,275.973523643
177.66,275.945563552
177.662,275.941256218
177.677,275.908901954
177.692,275.876460518
177.707,275.843931574
177.722,275.811314786
177.737,275.778609815
177.752,275.745816318
177.767,275.71293395
177.782,275.679962367
177.797,275.646901217
177.812,275.61375015
177.827,275.580508811
177.842,275.547176844
177.857,275.513753888
177.872,275.480239583
177.887,275.446633565
177.902,275.412935464
177.917,275.379144912
177.932,275.345261536
177.947,275.311284961
177.96,275.281762915
177.962,275.277214808
177.977,275.243050696
177.992,275.208792242
178.007,275.174439058
178.022,275.139990755
178.037,275.105446941
178.052,275.070807218
178.067,275.036071188
178.082,275.001238451
178.097,274.966308599
178.112,274.931281226
178.127,274.896155919
178.142,274.860932264
178.157,274.825609842
178.172,274.790188233
178.187,274.754667011
178.202,274.719045748
178.217,274.683324012
178.232,274.647501368
178.247,274.611577377
178.262,274.575551596
178.277,274.539423578
178.292,274.503192874
178.307,274.46685903
178.322,274.430421587
178.337,274.393880085
178.352,274.357234056
178.367,274.320483032
178.382,274.283626539
178.397,274.246664098
178.41,274.21454391
178.412,274.209595227
178.427,274.17241944
178.442,274.135136245
178.457,274.097745147
178.472,274.060245647
178.487,274.022637239
178.502,273.984919415
178.517,273.94709166
178.532,273.909153456
178.547,273.87110428
178.562,273.832943604
178.577,273.794670893
178.592,273.756285609
178.607,273.717787209
178.622,273.679175143
178.637,273.640448858
178.652,273.601607793
178.667,273.562651384
178.682,273.523579059
178.697,273.484390242
178.712,273.445084351
178.727,273.405660797
178.742,273.366118987
178.757,273.326458319
178.772,273.286678189
178.787,273.246777982
178.802,273.20675708
178.817,273.166614857
178.832,273.126350682
178.847,273.085963915
178.862,273.045453911
178.877,273.004820016
178.892,272.964061573
178.907,272.923177913
178.922,272.882168362
178.937,272.84103224
178.952,272.799768857
178.967,272.758377516
178.982,272.716857514
178.997,272.675208137
179.012,272.633428666
179.027,272.591518371
179.042,272.549476517
179.057,272.507302357
179.072,272.464995137
179.087,272.422554096
179.102,272.379978461
179.117,272.337267451
179.132,272.294420277
179.147,272.251436139
179.16,272.214071807
179.162,272.20831423
179.177,272.165053729
179.192,272.121653809
179.207,272.078113631
179.222,272.034432348
179.237,271.990609099
179.252,271.946643015
179.267,271.902533217
179.282,271.858278812
179.297,271.813878899
179.312,271.769332564
179.327,271.724638882
179.342,271.679796916
179.357,271.634805718
179.372,271.589664326
179.387,271.544371767
179.402,271.498927056
179.417,271.453329195
179.432,271.407577171
179.447,271.361669961
179.462,271.315606525
179.477,271.269385814
179.492,271.223006761
179.507,271.176468285
179.522,271.129769295
179.537,271.082908679
179.552,271.035885315
179.567,270.988698065
179.582,270.941345773
179.597,270.89382727
179.612,270.84614137
179.627,270.798286871
179.642,270.750262555
179.657,270.702067186
179.672,270.653699511
179.687,270.605158261
179.702,270.556442147
179.717,270.507549866
179.732,270.458480091
179.747,270.409231482
179.762,270.359802676
179.777,270.310192293
179.792,270.260398931
179.807,270.210421172
179.822,270.160257573
179.837,270.109906674
179.852,270.059366992
179.867,270.008637023
179.882,269.957715241
179.897,269.906600099
179.91,269.86214269
179.912,269.855290027
179.927,269.803783431
179.942,269.752078694
179.957,269.700174176
179.972,269.648068213
179.987,269.595759116
180.002,269.543245171
180.017,269.490524638
180.032,269.437595752
180.047,269.384456722
180.062,269.331105729
180.077,269.277540927
180.092,269.223760444
180.107,269.169762378
180.122,269.115544799
180.137,269.061105747
180.152,269.006443235
180.167,268.951555243
180.182,268.896439721
180.197,268.84109459
180.212,268.785517735
180.227,268.729707013
180.242,268.673660246
180.257,268.617375224
180.272,268.560849701
180.287,268.504081398
180.302,268.447068001
180.317,268.38980716
180.332,268.332296489
180.347,268.274533564
180.362,268.216515926
180.377,268.158241076
180.392,268.099706476
180.407,268.04090955
180.422,267.981847681
180.437,267.922518212
180.452,267.862918445
180.467,267.803045638
180.482,267.742897009
180.497,267.68246973
180.512,267.621760932
180.527,267.560767699
180.542,267.499487071
180.557,267.437916039
180.56,267.425566717
180.572,267.376051551
180.587,267.313890504
180.602,267.251429749
180.617,267.188666087
180.632,267.125596268
180.647,267.062216994
180.66,267.007035385
180.662,266.998524913
180.677,266.934516621
180.692,266.870188664
180.707,266.80553753
180.722,266.740559655
180.737,266.67525142
180.752,266.609609149
180.767,266.543629107
180.782,266.477307506
180.797,266.410640495
180.812,266.343624165
180.827,266.276254549
180.842,266.208527614
180.857,266.140439271
180.872,266.071985364
180.887,266.003161675
180.902,265.933963922
180.917,265.864387756
180.932,265.794428765
180.947,265.724082468
180.962,265.653344317
180.977,265.582209694
180.992,265.510673915
181.007,265.438732223
181.022,265.366379792
181.037,265.293611722
181.052,265.220423044
181.067,265.146808712
181.082,265.072763609
181.097,264.998282542
181.112,264.923360241
181.127,264.847991363
181.142,264.772170485
181.157,264.695892108
181.172,264.619150655
181.187,264.541940468
181.202,264.464255811
181.217,264.386090868
181.232,264.307439741
181.247,264.22829645
181.262,264.148654935
181.277,264.068509052
181.292,263.987852573
181.307,263.906679189
181.31,263.890381923
181.322,263.824982505
181.337,263.742756042
181.352,263.659993236
181.367,263.576687438
181.382,263.492831913
181.397,263.408419843
181.412,263.323444319
181.427,263.23789835
181.442,263.151774856
181.457,263.065066673
181.472,262.977766547
181.487,262.88986714
181.502,262.801361026
181.517,262.712240693
181.532,262.622498542
181.547,262.532126887
181.562,262.441117958
181.577,262.349463895
181.592,262.257156756
181.607,262.164188511
181.622,262.070551046
181.637,261.97623616
181.652,261.881235569
181.667,261.785540906
181.682,261.689143718
181.697,261.592035469
181.712,261.494207541
181.727,261.395651233
181.742,261.296357762
181.757,261.196318263
181.772,261.09552379
181.787,260.993965316
181.802,260.891633735
181.817,260.788519858
181.832,260.684614417
181.847,260.579908065
181.862,260.474391371
181.877,260.368054829
181.892,260.260888847
181.907,260.152883753
181.922,260.044029793
181.937,259.934317129
181.952,259.823735837
181.967,259.712275906
181.982,259.599927235
181.997,259.486679631
182.012,259.372522803
182.027,259.257446362
182.042,259.141439812
182.057,259.024492546
182.06,259.000989266
182.072,258.906593841
182.087,258.787732846
182.102,258.667898577
182.117,258.547079904
182.132,258.425265542
182.147,258.302444033
182.162,258.178603735
182.177,258.053732801
182.192,257.92781916
182.207,257.800850497
182.222,257.672814219
182.237,257.543697437
182.252,257.413486922
182.267,257.282169074
182.282,257.149729877
182.297,257.016154855
182.312,256.88142901
182.327,256.74553677
182.342,256.608461915
182.357,256.470187502
182.372,256.330695775
182.387,256.18996807
182.402,256.047984702
182.417,255.90472484
182.432,255.760166366
182.447,255.614285713
182.462,255.467057687
182.477,255.31845526
182.492,255.168449341
182.507,255.017008509
182.522,254.864098717
182.537,254.709682955
182.552,254.553720859
182.567,254.396168276
182.582,254.23697676
182.597,254.076093
182.612,253.913458163
182.627,253.749007145
182.642,253.582667707
182.657,253.414359482
182.672,253.243992832
182.687,253.071467534
182.702,252.896671249
182.717,252.719477762
182.732,252.53974493
182.747,252.357312299
182.762,252.171998331
182.777,251.983597159
182.792,251.791874801
182.807,251.596564712
182.822,251.397362565
182.837,251.193920102
182.852,250.985837889
182.867,250.772656744
182.882,250.553847585
182.897,250.328799383
182.912,250.096804842
182.927,249.857043336
182.942,249.608560572
182.957,249.350244287
182.972,249.080795231
182.987,248.798692479
183.002,248.502152009
183.017,248.189077339
183.032,247.857000888
183.047,247.503014737
183.062,247.123689603
183.077,246.714981397
183.092,246.272125874
183.107,245.78952428
183.122,245.260627331
183.137,244.677833074
183.152,244.032429045
183.167,243.314636183
183.182,242.51386135
183.197,241.619357128
183.212,240.621662395
183.227,239.515541568
183.242,238.30584687
183.257,237.0191933
183.367,237.328291037
183.382,238.594608993
183.397,239.77446786
183.412,240.848364064
183.427,241.814777963
183.442,242.680384629
183.457,243.455137073
183.472,244.149807969
183.487,244.774798243
183.502,245.339606949
183.517,245.852645331
183.532,246.321225702
183.547,246.75163396
183.562,247.149236803
183.577,247.518597893
183.592,247.863589994
183.607,248.187497123
183.622,248.493104576
183.637,248.782776668
183.652,249.058523007
183.667,249.322054524
183.682,249.574830608
183.697,249.818098632
183.712,250.052927049
183.727,250.280233097
183.742,250.500805978
183.757,250.715326291
183.772,250.924382323
183.787,251.128483742
183.802,251.328073115
183.817,251.523535622
183.832,251.715207259
183.847,251.903381784
183.862,252.088316606
183.877,252.270237795
183.892,252.449344344
183.907,252.625811807
183.922,252.799795418
183.937,252.971432752
183.952,253.140846022
183.967,253.308144045
183.982,253.473423946
183.997,253.636772621
184.012,253.798268013
184.027,253.957980209
184.042,254.115972395
184.057,254.272301694
184.072,254.427019886
184.087,254.580174042
184.102,254.731807077
184.117,254.881958236
184.132,255.030663517
184.147,255.177956044
184.162,255.323866395
184.177,255.468422892
184.192,255.611651852
184.207,255.753577813
184.222,255.894223735
184.237,256.033611168
184.252,256.171760415
184.267,256.308690663
184.282,256.444420106
184.297,256.578966056
184.312,256.712345031
184.327,256.844572848
184.342,256.975664693
184.357,257.105635187
184.372,257.234498449
184.387,257.362268145
184.402,257.488957536
184.417,257.614579518
184.432,257.73914666
184.447,257.862671236
184.462,257.985165251
184.477,258.106640471
184.492,258.22710844
184.507,258.346580505
184.522,258.465067828
184.537,258.582581406
184.552,258.69913208
184.56,258.760902419
184.567,258.81473055
184.582,258.929387385
184.597,259.043113027
184.612,259.155917807
184.627,259.267811943
184.642,259.378805554
184.657,259.488908656
184.672,259.598131175
184.687,259.706482942
184.702,259.813973705
184.717,259.920613122
184.732,260.026410771
184.747,260.131376147
184.762,260.235518663
184.777,260.338847656
184.792,260.441372381
184.807,260.543102015
184.822,260.64404566
184.837,260.744212337
184.852,260.84361099
184.867,260.942250486
184.882,261.040139615
184.897,261.137287086
184.912,261.233701531
184.927,261.329391505
184.942,261.42436548
184.957,261.518631852
184.972,261.612198936
184.987,261.705074966
185.002,261.797268095
185.017,261.888786397
185.032,261.979637863
185.047,262.069830403
185.062,262.159371845
185.077,262.248269933
185.092,262.336532332
185.107,262.42416662
185.122,262.511180296
185.137,262.597580773
185.152,262.683375383
185.167,262.768571374
185.182,262.853175911
185.197,262.937196074
185.212,263.020638862
185.227,263.10351119
185.242,263.185819891
185.257,263.267571714
185.272,263.348773327
185.287,263.429431313
185.302,263.509552175
185.31,263.552065898
185.317,263.589142334
185.332,263.66820813
185.347,263.746755821
185.362,263.824791584
185.377,263.902321516
185.392,263.979351636
185.407,264.055887882
185.422,264.131936113
185.437,264.207502111
185.452,264.282591578
185.467,264.357210143
185.482,264.431363354
185.497,264.505056685
185.512,264.578295535
185.527,264.651085229
185.542,264.723431015
185.557,264.795338072
185.572,264.866811502
185.587,264.937856339
185.602,265.008477543
185.617,265.078680004
185.632,265.148468544
185.647,265.217847915
185.662,265.286822799
185.677,265.355397813
185.692,265.423577505
185.707,265.491366361
185.722,265.558768797
185.737,265.625789167
185.752,265.692431762
185.767,265.758700809
185.782,265.824600472
185.797,265.890134857
185.812,265.955308005
185.827,266.020123902
185.842,266.084586471
185.857,266.148699579
185.872,266.212467035
185.887,266.275892592
185.902,266.338979947
185.917,266.401732741
185.932,266.464154561
185.947,266.526248942
185.96,266.579801902
185.962,266.588019364
185.977,266.649469257
185.992,266.710601997
186.007,266.771420913
186.022,266.831929281
186.037,266.89213033
186.052,266.952027239
186.06,266.983848982
186.067,267.011623142
186.082,267.070921123
186.097,267.129924222
186.112,267.188635433
186.127,267.247057703
186.142,267.305193938
186.157,267.363047
186.172,267.420619706
186.187,267.477914833
186.202,267.534935116
186.217,267.591683249
186.232,267.648161886
186.247,267.704373642
186.262,267.760321091
186.277,267.816006771
186.292,267.871433181
186.307,267.926602785
186.322,267.981518006
186.337,268.036181237
186.352,268.090594831
186.367,268.144761108
186.382,268.198682353
186.397,268.25236082
186.412,268.305798726
186.427,268.358998259
186.442,268.411961572
186.457,268.464690789
186.472,268.517188001
186.487,268.56945527
186.502,268.621494627
186.517,268.673308074
186.532,268.724897584
186.547,268.776265102
186.562,268.827412544
186.577,268.878341799
186.592,268.929054728
186.607,268.979553167
186.622,269.029838924
186.637,269.079913782
186.652,269.129779499
186.667,269.179437807
186.682,269.228890416
186.697,269.278139008
186.71,269.320657378
186.712,269.327185244
186.727,269.376030761
186.742,269.424677173
186.757,269.473126072
186.772,269.521379026
186.787,269.569437584
186.802,269.617303271
186.817,269.664977593
186.832,269.712462034
186.847,269.759758057
186.862,269.806867106
186.877,269.853790606
186.892,269.900529961
186.907,269.947086557
186.922,269.993461761
186.937,270.039656922
186.952,270.085673369
186.967,270.131512415
186.982,270.177175356
186.997,270.222663469
187.012,270.267978015
187.027,270.313120239
187.042,270.358091368
187.057,270.402892613
187.072,270.447525172
187.087,270.491990224
187.102,270.536288934
187.117,270.580422453
187.132,270.624391915
187.147,270.668198441
187.162,270.711843137
187.177,270.755327095
187.192,270.798651395
187.207,270.841817099
187.222,270.884825261
187.237,270.927676917
187.252,270.970373094
187.267,271.012914803
187.282,271.055303044
187.297,271.097538805
187.312,271.139623062
187.327,271.181556777
187.342,271.223340903
187.357,271.26497638
187.372,271.306464137
187.387,271.347805091
187.402,271.389000149
187.417,271.430050208
187.432,271.470956152
187.447,271.511718857
187.46,271.546931338
187.462,271.552339186
187.477,271.592817995
187.492,271.633156128
187.507,271.67335442
187.522,271.713413696
187.537,271.753334771
187.552,271.793118452
187.567,271.832765536
187.582,271.872276811
187.597,271.911653057
187.612,271.950895043
187.627,271.990003533
187.642,272.028979279
187.657,272.067823026
187.672,272.106535512
187.687,272.145117465
187.702,272.183569607
187.717,272.221892651
187.732,272.260087301
187.747,272.298154257
187.762,272.336094208
187.777,272.373907839
187.792,272.411595824
187.807,272.449158833
187.822,272.486597528
187.837,272.523912564
187.852,272.56110459
187.867,272.598174246
187.882,272.635122168
187.897,272.671948985
187.912,272.708655319
187.927,272.745241787
187.942,272.781708997
187.957,272.818057555
187.972,272.854288057
187.987,272.890401096
188.002,272.926397259
188.017,272.962277125
188.032,272.998041271
188.047,273.033690264
188.062,273.06922467
188.077,273.104645047
188.092,273.139951948
188.107,273.175145921
188.122,273.210227511
188.137,273.245197254
188.152,273.280055683
188.167,273.314803327
188.182,273.34944071
188.197,273.38396835
188.21,273.413803932
188.212,273.41838676
188.227,273.452696451
188.242,273.486897927
188.257,273.520991689
188.272,273.554978231
188.287,273.588858047
188.302,273.622631623
188.317,273.656299442
188.332,273.689861984
188.347,273.723319723
188.362,273.75667313
188.377,273.789922672
188.392,273.823068812
188.407,273.856112008
188.422,273.889052717
188.437,273.921891389
188.452,273.954628473
188.467,273.987264412
188.482,274.019799648
188.497,274.052234616
188.512,274.084569751
188.527,274.116805482
188.542,274.148942236
188.557,274.180980437
188.572,274.212920504
188.587,274.244762854
188.602,274.2765079
188.617,274.308156053
188.632,274.33970772
188.647,274.371163304
188.66,274.398347401
188.662,274.402523207
188.677,274.433787827
188.692,274.464957558
188.707,274.496032793
188.722,274.52701392
