# 10410 EDZE Essen Observations at 12Z 30 Jul 2019
Frequency [GHz],TB
175.31,279.644748356
175.322,279.631609211
175.337,279.615052802
175.352,279.598349164
175.367,279.581498266
175.382,279.56450008
175.397,279.547354586
175.412,279.530061767
175.427,279.512621609
175.442,279.495034104
175.457,279.47729925
175.472,279.459417047
175.487,279.4413875
175.502,279.423210622
175.517,279.404886426
175.532,279.386414931
175.547,279.367796163
175.562,279.34903015
175.577,279.330116925
175.592,279.311056526
175.607,279.291848996
175.622,279.272494382
175.637,279.252992736
175.652,279.233344113
175.667,279.213548575
175.682,279.193606187
175.697,279.173517019
175.712,279.153281146
175.727,279.132898645
175.742,279.112369602
175.757,279.091694103
175.772,279.070872241
175.787,279.049904112
175.802,279.028789819
175.817,279.007529466
175.832,278.986123164
175.847,278.964571027
175.862,278.942873173
175.877,278.921029727
175.892,278.899040814
175.907,278.876906567
175.922,278.854627121
175.937,278.832202617
175.952,278.809633198
175.967,278.786919013
175.982,278.764060215
175.997,278.741056959
176.012,278.717909406
176.027,278.69461772
176.042,278.671182071
176.057,278.64760263
176.072,278.623879573
176.087,278.600013081
176.102,278.576003337
176.117,278.551850529
176.132,278.527554848
176.147,278.503116489
176.162,278.47853565
176.177,278.453812533
176.192,278.428947344
176.207,278.403940292
176.222,278.378791588
176.237,278.353501449
176.252,278.328070093
176.267,278.302497742
176.282,278.276784621
176.297,278.250930958
176.31,278.228410946
176.312,278.224936985
176.327,278.198802935
176.342,278.172529047
176.357,278.146115558
176.372,278.119562712
176.387,278.092870755
176.402,278.066039933
176.417,278.039070496
176.432,278.011962699
176.447,277.984716795
176.46,277.960992164
176.462,277.957333042
176.477,277.929811699
176.492,277.902153028
176.507,277.874357292
176.522,277.846424757
176.537,277.81835569
176.552,277.79015036
176.567,277.761809039
176.582,277.733331998
176.597,277.70471951
176.612,277.675971852
176.627,277.6470893
176.642,277.618072131
176.657,277.588920624
176.672,277.559635059
176.687,277.530215716
176.702,277.500662878
176.717,277.470976824
176.732,277.44115784
176.747,277.411206206
176.762,277.381122208
176.777,277.350906128
176.792,277.320558251
176.807,277.29007886
176.822,277.259468239
176.837,277.22872667
176.852,277.197854439
176.867,277.166851826
176.882,277.135719115
176.897,277.104456586
176.912,277.073064521
176.927,277.041543198
176.942,277.009892896
176.957,276.978113893
176.972,276.946206464
176.987,276.914170885
177.002,276.882007427
177.017,276.849716363
177.032,276.817297961
177.047,276.784752489
177.062,276.752080213
177.077,276.719281394
177.092,276.686356294
177.107,276.653305171
177.122,276.62012828
177.137,276.586825873
177.152,276.5533982
177.167,276.519845507
177.182,276.486168039
177.197,276.452366033
177.21,276.422970408
177.212,276.418439727
177.227,276.384389353
177.242,276.350215139
177.257,276.315917312
177.272,276.28149609
177.287,276.24695169
177.302,276.212284324
177.31,276.193744855
177.317,276.1774942
177.332,276.142581519
177.347,276.10754648
177.362,276.072389274
177.377,276.03711009
177.392,276.001709109
177.407,275.966186507
177.422,275.930542456
177.437,275.89477712
177.452,275.858890658
177.467,275.822883223
177.482,275.786754962
177.497,275.750506014
177.512,275.714136513
177.527,275.677646586
177.542,275.641036352
177.557,275.604305923
177.572,275.567455406
177.587,275.530484897
177.602,275.493394487
177.617,275.45618426
177.632,275.418854288
177.647,275.381404639
177.66,275.348851516
177.662,275.343835371
177.677,275.306146535
177.692,275.26833817
177.707,275.230410311
177.722,275.19236298
177.737,275.154196192
177.752,275.115909954
177.767,275.07750426
177.782,275.038979098
177.797,275.000334444
177.812,274.961570265
177.827,274.922686519
177.842,274.883683152
177.857,274.8445601
177.872,274.80531729
177.887,274.765954637
177.902,274.726472045
177.917,274.686869408
177.932,274.647146608
177.947,274.607303516
177.96,274.572675425
177.962,274.567339991
177.977,274.527255883
177.992,274.487051026
178.007,274.446725245
178.022,274.406278352
178.037,274.365710146
178.052,274.325020416
178.067,274.284208937
178.082,274.243275469
178.097,274.202219763
178.112,274.161041555
178.127,274.119740567
178.142,274.07831651
178.157,274.036769079
178.172,273.995097958
178.187,273.953302814
178.202,273.911383303
178.217,273.869339065
178.232,273.827169726
178.247,273.784874899
178.262,273.742454182
178.277,273.699907156
178.292,273.65723339
178.307,273.614432437
178.322,273.571503834
178.337,273.528447104
178.352,273.485261753
178.367,273.441947275
178.382,273.398503143
178.397,273.354928819
178.41,273.317058663
178.412,273.311223746
178.427,273.267387351
178.442,273.223419047
178.457,273.179318228
178.472,273.135084273
178.487,273.090716544
178.502,273.046214386
178.517,273.001577126
178.532,272.956804076
178.547,272.91189453
178.562,272.866847763
178.577,272.821663035
178.592,272.776339587
178.607,272.730876642
178.622,272.685273406
178.637,272.639529066
178.652,272.593642792
178.667,272.547613735
178.682,272.501441027
178.697,272.455123783
178.712,272.408661098
178.727,272.36205205
178.742,272.315295695
178.757,272.268391073
178.772,272.221337204
178.787,272.174133087
178.802,272.126777704
178.817,272.079270017
178.832,272.031608967
178.847,271.983793477
178.862,271.935822448
178.877,271.887694765
178.892,271.839409288
178.907,271.79096486
178.922,271.742360302
178.937,271.693594417
178.952,271.644665985
178.967,271.595573767
178.982,271.546316502
178.997,271.496892908
179.012,271.447301684
179.027,271.397541507
179.042,271.347611032
179.057,271.297508893
179.072,271.247233704
179.087,271.196784056
179.102,271.146158519
179.117,271.095355642
179.132,271.044373952
179.147,270.993211953
179.16,270.948724532
179.162,270.941868128
179.177,270.890340938
179.192,270.838628823
179.207,270.7867302
179.222,270.734643462
179.237,270.682366981
179.252,270.629899109
179.267,270.577238171
179.282,270.524382473
179.297,270.471330297
179.312,270.418079902
179.327,270.364629525
179.342,270.31097738
179.357,270.257121657
179.372,270.203060524
179.387,270.148792126
179.402,270.094314586
179.417,270.039626001
179.432,269.984724446
179.447,269.929607975
179.462,269.874274616
179.477,269.818722374
179.492,269.762949231
179.507,269.706953147
179.522,269.650732056
179.537,269.59428387
179.552,269.537606478
179.567,269.480697744
179.582,269.423555509
179.597,269.366177591
179.612,269.308561784
179.627,269.250705858
179.642,269.19260756
179.657,269.134264614
179.672,269.075674718
179.687,269.01683555
179.702,268.95774476
179.717,268.89839998
179.732,268.838798813
179.747,268.778938841
179.762,268.718817624
179.777,268.658432696
179.792,268.597781568
179.807,268.53686173
179.822,268.475670647
179.837,268.414205759
179.852,268.352464486
179.867,268.290444224
179.882,268.228142346
179.897,268.165556201
179.91,268.11108287
179.912,268.102683117
179.927,268.039520398
179.942,267.976065326
179.957,267.912315161
179.972,267.84826714
179.987,267.783918478
180.002,267.719266368
180.017,267.654307982
180.032,267.58904047
180.047,267.523460959
180.062,267.457566556
180.077,267.391354348
180.092,267.324821399
180.107,267.257964753
180.122,267.190781434
180.137,267.123268446
180.152,267.055422772
180.167,266.987241377
180.182,266.918721204
180.197,266.84985918
180.212,266.780652211
180.227,266.711097185
180.242,266.641190972
180.257,266.570930425
180.272,266.500312377
180.287,266.429333648
180.302,266.357991037
180.317,266.28628133
180.332,266.214201295
180.347,266.141747687
180.362,266.068917243
180.377,265.995706688
180.392,265.922112732
180.407,265.848132072
180.422,265.773761391
180.437,265.698997362
180.452,265.623836643
180.467,265.548275884
180.482,265.472311723
180.497,265.395940788
180.512,265.319159697
180.527,265.241965061
180.542,265.164353483
180.557,265.086321559
180.56,265.070664432
180.572,265.007865877
180.587,264.928983022
180.602,264.849669573
180.617,264.769922104
180.632,264.689737189
180.647,264.609111398
180.66,264.538876441
180.662,264.528041301
180.677,264.446523466
180.692,264.364554464
180.707,264.282130868
180.722,264.199249252
180.737,264.115906197
180.752,264.032098288
180.767,263.947822115
180.782,263.863074279
180.797,263.777851389
180.812,263.692150062
180.827,263.60596693
180.842,263.519298637
180.857,263.43214184
180.872,263.344493216
180.887,263.256349457
180.902,263.167707273
180.917,263.078563399
180.932,262.988914589
180.947,262.898757623
180.962,262.808089308
180.977,262.716906476
180.992,262.625205994
181.007,262.532984757
181.022,262.440239695
181.037,262.346967775
181.052,262.253166002
181.067,262.158831422
181.082,262.063961123
181.097,261.96855224
181.112,261.872601953
181.127,261.776107495
181.142,261.679066151
181.157,261.581475262
181.172,261.483332226
181.187,261.384634504
181.202,261.285379621
181.217,261.185565167
181.232,261.085188805
181.247,260.984248269
181.262,260.882741372
181.277,260.780666007
181.292,260.678020147
181.307,260.574801857
181.31,260.554089343
181.322,260.47100929
181.337,260.366640693
181.352,260.261694413
181.367,260.156168899
181.382,260.050062706
181.397,259.943374499
181.412,259.836103059
181.427,259.728247285
181.442,259.619806201
181.457,259.510778959
181.472,259.401164843
181.487,259.290963277
181.502,259.180173824
181.517,259.0687962
181.532,258.956830271
181.547,258.844276062
181.562,258.731133762
181.577,258.617403729
181.592,258.503086498
181.607,258.388182784
181.622,258.272693487
181.637,258.156619704
181.652,258.039962729
181.667,257.922724061
181.682,257.804905414
181.697,257.686508717
181.712,257.567536127
181.727,257.447990035
181.742,257.327873067
181.757,257.207188101
181.772,257.085938264
181.787,256.964126949
181.802,256.841757814
181.817,256.718834798
181.832,256.595362122
181.847,256.471344302
181.862,256.346786153
181.877,256.221692801
181.892,256.09606969
181.907,255.969922591
181.922,255.843257612
181.937,255.716081205
181.952,255.588400175
181.967,255.460221694
181.982,255.331553306
181.997,255.202402938
182.012,255.072778914
182.027,254.942689959
182.042,254.812145214
182.057,254.681154249
182.06,254.654903383
182.072,254.549727069
182.087,254.417874129
182.102,254.285606345
182.117,254.152935108
182.132,254.019872295
182.147,253.886430283
182.162,253.752621964
182.177,253.618460757
182.192,253.483960624
182.207,253.349136087
182.222,253.21400224
182.237,253.07857477
182.252,252.942869974
182.267,252.806904774
182.282,252.67069674
182.297,252.534264108
182.312,252.3976258
182.327,252.260801449
182.342,252.123811421
182.357,251.986676837
182.372,251.849419601
182.387,251.712062425
182.402,251.574628857
182.417,251.437143313
182.432,251.299631101
182.447,251.16211846
182.462,251.024632588
182.477,250.887201678
182.492,250.749854955
182.507,250.61262271
182.522,250.475536343
182.537,250.338628398
182.552,250.201932603
182.567,250.065483918
182.582,249.929318566
182.597,249.793474085
182.612,249.657989366
182.627,249.522904695
182.642,249.388261798
182.657,249.254103879
182.672,249.120475662
182.687,248.987423431
182.702,248.854995064
182.717,248.72324007
182.732,248.592209621
182.747,248.461956583
182.762,248.332535542
182.777,248.204002827
182.792,248.07641654
182.807,247.949836574
182.822,247.824324638
182.837,247.699944288
182.852,247.576760961
182.867,247.454842027
182.882,247.33425686
182.897,247.215076941
182.912,247.097376004
182.927,246.981230251
182.942,246.866718651
182.957,246.753923355
182.972,246.642930271
182.987,246.533829847
183.002,246.426718117
183.017,246.321698099
183.032,246.218881611
183.047,246.118391639
183.062,246.020365336
183.077,245.924957789
183.092,245.83234665
183.107,245.742737674
183.122,245.656371152
183.137,245.573529059
183.152,245.494542502
183.167,245.419798741
183.182,245.349746597
183.197,245.284898586
183.212,245.225827674
183.227,245.173156336
183.242,245.127535901
183.257,245.089615252
183.367,245.084737983
183.382,245.121069565
183.397,245.164949828
183.412,245.215726764
183.427,245.272754383
183.442,245.335421381
183.457,245.403169265
183.472,245.475501204
183.487,245.551983762
183.502,245.632243807
183.517,245.715962601
183.532,245.802868617
183.547,245.892730137
183.562,245.985348271
183.577,246.08055076
183.592,246.17818667
183.607,246.278122
183.622,246.380236118
183.637,246.484418935
183.652,246.590568691
183.667,246.698590251
183.682,246.808393806
183.697,246.919893899
183.712,247.033008702
183.727,247.147659485
183.742,247.26377023
183.757,247.38126736
183.772,247.500079545
183.787,247.620137563
183.802,247.74137421
183.817,247.863724235
183.832,247.987124289
183.847,248.111512898
183.862,248.236830428
183.877,248.363019067
183.892,248.490022797
183.907,248.617787374
183.922,248.746260297
183.937,248.875390781
183.952,249.005129729
183.967,249.135429692
183.982,249.266244838
183.997,249.397530912
184.012,249.529245194
184.027,249.661346457
184.042,249.79379493
184.057,249.926552248
184.072,250.05958141
184.087,250.192846737
184.102,250.326313829
184.117,250.459949518
184.132,250.59372183
184.147,250.727599942
184.162,250.861554139
184.177,250.995555779
184.192,251.129577254
184.207,251.263591951
184.222,251.397574218
184.237,251.531499331
184.252,251.66534346
184.267,251.799083638
184.282,251.932697732
184.297,252.066164412
184.312,252.199463127
184.327,252.332574078
184.342,252.465478191
184.357,252.598157096
184.372,252.730593101
184.387,252.862769175
184.402,252.994668925
184.417,253.126276576
184.432,253.257576951
184.447,253.388555456
184.462,253.519198063
184.477,253.649491289
184.492,253.779422185
184.507,253.908978319
184.522,254.038147762
184.537,254.166919071
184.552,254.29528128
184.56,254.363570203
184.567,254.423223884
184.582,254.550736829
184.597,254.677810494
184.612,254.804435688
184.627,254.93060363
184.642,255.056305943
184.657,255.181534643
184.672,255.306282125
184.687,255.430541156
184.702,255.554304865
184.717,255.677566731
184.732,255.800320575
184.747,255.922560552
184.762,256.044281139
184.777,256.165477128
184.792,256.286143617
184.807,256.406276002
184.822,256.525869969
184.837,256.644921482
184.852,256.763426781
184.867,256.881382372
184.882,256.998785016
184.897,257.115631727
184.912,257.23191976
184.927,257.347646607
184.942,257.462809989
184.957,257.577407849
184.972,257.691438344
184.987,257.804899842
185.002,257.917790911
185.017,258.030110316
185.032,258.141857013
185.047,258.253030141
185.062,258.363629015
185.077,258.473653124
185.092,258.583102125
185.107,258.691975834
185.122,258.800274222
185.137,258.907997412
185.152,259.015145673
185.167,259.121719411
185.182,259.227719171
185.197,259.333145627
185.212,259.437999578
185.227,259.542281945
185.242,259.645993768
185.257,259.749136198
185.272,259.851710493
185.287,259.953718018
185.302,260.055160238
185.31,260.109032142
185.317,260.156038711
185.332,260.256355094
185.347,260.356111127
185.362,260.455308638
185.377,260.553949539
185.392,260.652035816
185.407,260.749569534
185.422,260.846552829
185.437,260.942987904
185.452,261.038877031
185.467,261.134222544
185.482,261.229026835
185.497,261.323292356
185.512,261.417021612
185.527,261.510217161
185.542,261.602881609
185.557,261.695017611
185.572,261.786627864
185.587,261.877715111
185.602,261.96828213
185.617,262.058331742
185.632,262.1478668
185.647,262.236890191
185.662,262.325404836
185.677,262.413413684
185.692,262.50091971
185.707,262.58792592
185.722,262.674435339
185.737,262.760451017
185.752,262.845976025
185.767,262.931013454
185.782,263.01556641
185.797,263.099638017
185.812,263.183231415
185.827,263.266349756
185.842,263.348996203
185.857,263.431173932
185.872,263.512886127
185.887,263.594135981
185.902,263.674926693
185.917,263.75526147
185.932,263.83514352
185.947,263.914576059
185.96,263.983056474
185.962,263.993562303
185.977,264.072105471
185.992,264.150208782
186.007,264.227875454
186.022,264.305108707
186.037,264.381911755
186.052,264.458287811
186.06,264.498848225
186.067,264.534240086
186.082,264.609771784
186.097,264.684886105
186.112,264.759586243
186.127,264.833875386
186.142,264.907756712
186.157,264.981233396
186.172,265.0543086
186.187,265.126985479
186.202,265.199267178
186.217,265.271156831
186.232,265.342657563
186.247,265.413772485
186.262,265.484504698
186.277,265.554857291
186.292,265.624833339
186.307,265.694435904
186.322,265.763668036
186.337,265.832532769
186.352,265.901033123
186.367,265.969172105
186.382,266.036952704
186.397,266.104377895
186.412,266.171450639
186.427,266.238173877
186.442,266.304550538
186.457,266.37058353
186.472,266.436275747
186.487,266.501630065
186.502,266.566649343
186.517,266.631336421
186.532,266.695694122
186.547,266.759725252
186.562,266.823432596
186.577,266.886818923
186.592,266.949886982
186.607,267.012639504
186.622,267.0750792
186.637,267.137208764
186.652,267.199030867
186.667,267.260548164
186.682,267.321763289
186.697,267.382678857
186.71,267.435232046
186.712,267.443297462
186.727,267.50362168
186.742,267.563654066
186.757,267.623397155
186.772,267.682853462
186.787,267.742025482
186.802,267.80091569
186.817,267.859526539
186.832,267.917860466
186.847,267.975919882
186.862,268.033707181
186.877,268.091224738
186.892,268.148474903
186.907,268.20546001
186.922,268.262182369
186.937,268.318644273
186.952,268.374847991
186.967,268.430795774
186.982,268.486489851
186.997,268.541932433
187.012,268.597125707
187.027,268.652071842
187.042,268.706772986
187.057,268.761231267
187.072,268.815448792
187.087,268.869427647
187.102,268.9231699
187.117,268.976677597
187.132,269.029952764
187.147,269.082997406
187.162,269.135813511
187.177,269.188403043
187.192,269.24076795
187.207,269.292910156
187.222,269.344831568
187.237,269.396534073
187.252,269.448019536
187.267,269.499289806
187.282,269.550346708
187.297,269.601192052
187.312,269.651827625
187.327,269.702255196
187.342,269.752476515
187.357,269.802493314
187.372,269.852307302
187.387,269.901920172
187.402,269.951333598
187.417,270.000549235
187.432,270.049568718
187.447,270.098393664
187.46,270.140552495
187.462,270.147025672
187.477,270.195466322
187.492,270.243717175
187.507,270.291779775
187.522,270.339655647
187.537,270.387346298
187.552,270.434853217
187.567,270.482177875
187.582,270.529321726
187.597,270.576286206
187.612,270.623072731
187.627,270.669682704
187.642,270.716117506
187.657,270.762378505
187.672,270.808467049
187.687,270.85438447
187.702,270.900132082
187.717,270.945711183
187.732,270.991123056
187.747,271.036368964
187.762,271.081450155
187.777,271.126367862
187.792,271.171123299
187.807,271.215717667
187.822,271.260152148
187.837,271.30442791
187.852,271.348546104
187.867,271.392507866
187.882,271.436314317
187.897,271.479966561
187.912,271.523465687
187.927,271.56681277
187.942,271.610008869
187.957,271.653055027
187.972,271.695952274
187.987,271.738701624
188.002,271.781304076
188.017,271.823760617
188.032,271.866072216
188.047,271.90823983
188.062,271.950264401
188.077,271.992146857
188.092,272.033888113
188.107,272.075489068
188.122,272.116950609
188.137,272.158273609
188.152,272.199458928
188.167,272.240507411
188.182,272.281419892
188.197,272.32219719
188.21,272.357428791
188.212,272.362840112
188.227,272.403349451
188.242,272.443725989
188.257,272.483970493
188.272,272.52408372
188.287,272.564066413
188.302,272.603919303
188.317,272.643643109
188.332,272.683238537
188.347,272.722706282
188.362,272.762047027
188.377,272.801261443
188.392,272.84035019
188.407,272.879313916
188.422,272.918153257
188.437,272.956868839
188.452,272.995461276
188.467,273.033931172
188.482,273.072279118
188.497,273.110505695
188.512,273.148611476
188.527,273.18659702
188.542,273.224462876
188.557,273.262209585
188.572,273.299837675
188.587,273.337347666
188.602,273.374740066
188.617,273.412015374
188.632,273.449174081
188.647,273.486216666
188.66,273.518226674
188.662,273.523143599
188.677,273.559955341
188.692,273.596652343
188.707,273.633235048
188.722,273.669703889
188.737,273.70605929
188.752,273.742301666
