# 10410 EDZE Essen Observations at 12Z 21 Dec 2019
Frequency [GHz],TB
175.31,266.553049505
175.322,266.558552791
175.337,266.565246833
175.352,266.571734457
175.367,266.578014823
175.382,266.584087094
175.397,266.589950434
175.412,266.595604012
175.427,266.601047001
175.442,266.60627858
175.457,266.611297926
175.472,266.616104229
175.487,266.620696674
175.502,266.625074458
175.517,266.629236776
175.532,266.633182835
175.547,266.636911838
175.562,266.640423
175.577,266.643715535
175.592,266.646788666
175.607,266.64964162
175.622,266.652273629
175.637,266.654683926
175.652,266.65687176
175.667,266.658836373
175.682,266.660577019
175.697,266.662092957
175.712,266.663383451
175.727,266.664447769
175.742,266.665285189
175.757,266.665894992
175.772,266.666276463
175.787,266.6664289
175.802,266.666351598
175.817,266.666043866
175.832,266.665505017
175.847,266.664734368
175.862,266.663731246
175.877,266.662494982
175.892,266.661024917
175.907,266.659320394
175.922,266.65738077
175.937,266.6552054
175.952,266.652793654
175.967,266.650144904
175.982,266.647258533
175.997,266.644133932
176.012,266.640770493
176.027,266.637167624
176.042,266.633324737
176.057,266.629241248
176.072,266.624916587
176.087,266.620350187
176.102,266.615541494
176.117,266.610489959
176.132,266.60519504
176.147,266.599656209
176.162,266.59387294
176.177,266.587844716
176.192,266.581571033
176.207,266.575051392
176.222,266.568285306
176.237,266.561272292
176.252,266.55401188
176.267,266.546503607
176.282,266.53874702
176.297,266.530741674
176.31,266.523602152
176.312,266.522487134
176.327,266.513982974
176.342,266.505228778
176.357,266.49622414
176.372,266.48696866
176.387,266.477461949
176.402,266.467703633
176.417,266.457693339
176.432,266.447430711
176.447,266.436915397
176.46,266.427597469
176.462,266.426147059
176.477,266.415125368
176.492,266.403850004
176.507,266.392320657
176.522,266.38053703
176.537,266.368498828
176.552,266.356205779
176.567,266.343657613
176.582,266.330854068
176.597,266.317794897
176.612,266.304479868
176.627,266.290908747
176.642,266.277081319
176.657,266.26299738
176.672,266.248656733
176.687,266.234059191
176.702,266.219204584
176.717,266.204092745
176.732,266.188723522
176.747,266.173096773
176.762,266.157212364
176.777,266.141070177
176.792,266.124670102
176.807,266.108012038
176.822,266.091095897
176.837,266.073921602
176.852,266.056489085
176.867,266.038798287
176.882,266.020849171
176.897,266.002641695
176.912,265.984175839
176.927,265.965451586
176.942,265.94646894
176.957,265.927227904
176.972,265.907728502
176.987,265.887970761
177.002,265.867954724
177.017,265.847680441
177.032,265.827147975
177.047,265.8063574
177.062,265.785308798
177.077,265.764002263
177.092,265.742437902
177.107,265.72061583
177.122,265.69853617
177.137,265.676199059
177.152,265.653604643
177.167,265.63075308
177.182,265.607644537
177.197,265.584279191
177.21,265.563821644
177.212,265.560657228
177.227,265.536778846
177.242,265.512644253
177.257,265.488253664
177.272,265.463607307
177.287,265.438705419
177.302,265.413548246
177.31,265.400026792
177.317,265.388136042
177.332,265.362469075
177.347,265.336547618
177.362,265.310371955
177.377,265.283942379
177.392,265.25725919
177.407,265.230322704
177.422,265.203133235
177.437,265.175691115
177.452,265.147996678
177.467,265.120050272
177.482,265.09185225
177.497,265.063402973
177.512,265.034702812
177.527,265.005752144
177.542,264.976551354
177.557,264.947100837
177.572,264.917400992
177.587,264.887452227
177.602,264.857254957
177.617,264.826809606
177.632,264.796116601
177.647,264.765176376
177.66,264.738161885
177.662,264.733989376
177.677,264.702556048
177.692,264.670876847
177.707,264.638952232
177.722,264.60678267
177.737,264.574368632
177.752,264.541710595
177.767,264.508809042
177.782,264.47566446
177.797,264.442277341
177.812,264.408648183
177.827,264.374777483
177.842,264.34066575
177.857,264.306313492
177.872,264.271721221
177.887,264.236889455
177.902,264.201818712
177.917,264.166509517
177.932,264.130962394
177.947,264.09517787
177.96,264.063972997
177.962,264.059156478
177.977,264.022898752
177.992,263.986405224
178.007,263.949676433
178.022,263.912712916
178.037,263.875515211
178.052,263.838083862
178.067,263.800419408
178.082,263.762522388
178.097,263.72439335
178.112,263.68603283
178.127,263.647441374
178.142,263.608619522
178.157,263.569567813
178.172,263.530286789
178.187,263.490776988
178.202,263.451038948
178.217,263.4110732
178.232,263.370880282
178.247,263.330460724
178.262,263.289815054
178.277,263.248943797
178.292,263.207847478
178.307,263.166526617
178.322,263.124981728
178.337,263.083213325
178.352,263.041221916
178.367,262.999008008
178.382,262.956572097
178.397,262.913914682
178.41,262.876766126
178.412,262.87103625
178.427,262.827937287
178.442,262.784618273
178.457,262.741079684
178.472,262.697321984
178.487,262.653345636
178.502,262.609151098
178.517,262.564738813
178.532,262.52010923
178.547,262.475262779
178.562,262.430199888
178.577,262.384920978
178.592,262.33942646
178.607,262.293716737
178.622,262.247792207
178.637,262.201653255
178.652,262.155300261
178.667,262.108733596
178.682,262.061953616
178.697,262.014960677
178.712,261.967755119
178.727,261.920337273
178.742,261.872707465
178.757,261.824866004
178.772,261.776813193
178.787,261.728549324
178.802,261.680074678
178.817,261.631389527
178.832,261.582494126
178.847,261.533388728
178.862,261.484073567
178.877,261.434548873
178.892,261.384814855
178.907,261.334871719
178.922,261.284719655
178.937,261.234358843
178.952,261.183789449
178.967,261.133011627
178.982,261.082025521
178.997,261.03083126
179.012,260.979428963
179.027,260.927818735
179.042,260.876000668
179.057,260.823974842
179.072,260.771741323
179.087,260.719300168
179.102,260.666651415
179.117,260.613795095
179.132,260.56073122
179.147,260.507459796
179.16,260.461123334
179.162,260.453980808
179.177,260.400294236
179.192,260.346400039
179.207,260.292298168
179.222,260.237988561
179.237,260.183471139
179.252,260.128745812
179.267,260.073812477
179.282,260.018671018
179.297,259.963321304
179.312,259.907763193
179.327,259.85199653
179.342,259.796021144
179.357,259.739836854
179.372,259.683443465
179.387,259.62684077
179.402,259.570028548
179.417,259.513006563
179.432,259.455774573
179.447,259.398332316
179.462,259.340679522
179.477,259.282815907
179.492,259.224741175
179.507,259.166455018
179.522,259.107957116
179.537,259.049247137
179.552,258.990324736
179.567,258.931189559
179.582,258.871841236
179.597,258.812279392
179.612,258.752503634
179.627,258.692513565
179.642,258.632308769
179.657,258.571888825
179.672,258.511253301
179.687,258.450401753
179.702,258.389333727
179.717,258.32804876
179.732,258.266546379
179.747,258.204826101
179.762,258.142887433
179.777,258.080729874
179.792,258.018352915
179.807,257.955756036
179.822,257.892938711
179.837,257.829900403
179.852,257.766640569
179.867,257.70315866
179.882,257.639454115
179.897,257.575526369
179.91,257.519941336
179.912,257.51137485
179.927,257.44699898
179.942,257.382398171
179.957,257.317571834
179.972,257.252519372
179.987,257.18724018
180.002,257.121733653
180.017,257.055999176
180.032,256.990036135
180.047,256.923843906
180.062,256.857421866
180.077,256.790769384
180.092,256.723885832
180.107,256.656770572
180.122,256.589422969
180.137,256.521842382
180.152,256.454028173
180.167,256.385979696
180.182,256.317696311
180.197,256.249177372
180.212,256.180422234
180.227,256.111430255
180.242,256.042200791
180.257,255.972733199
180.272,255.903026838
180.287,255.833081068
180.302,255.762895252
180.317,255.692468756
180.332,255.621800948
180.347,255.5508912
180.362,255.479738889
180.377,255.408343395
180.392,255.336704104
180.407,255.264820407
180.422,255.1926917
180.437,255.120317388
180.452,255.04769688
180.467,254.974829596
180.482,254.90171496
180.497,254.828352408
180.512,254.754741382
180.527,254.680881338
180.542,254.606771737
180.557,254.532412056
180.56,254.517510064
180.572,254.457801779
180.587,254.382940405
180.602,254.307827446
180.617,254.232462424
180.632,254.15684488
180.647,254.080974365
180.66,254.01501496
180.662,254.004850448
180.677,253.928472714
180.692,253.851840764
180.707,253.774954217
180.722,253.69781271
180.737,253.6204159
180.752,253.542763462
180.767,253.464855094
180.782,253.386690513
180.797,253.308269463
180.812,253.229591704
180.827,253.150657027
180.842,253.071465244
180.857,252.992016194
180.872,252.912309744
180.887,252.832345788
180.902,252.752124249
180.917,252.671645081
180.932,252.590908268
180.947,252.509913826
180.962,252.428661806
180.977,252.347152292
180.992,252.265385404
181.007,252.183361301
181.022,252.101080177
181.037,252.018542268
181.052,251.93574785
181.067,251.852697241
181.082,251.769390804
181.097,251.685828947
181.112,251.602012123
181.127,251.517940836
181.142,251.433615638
181.157,251.349037135
181.172,251.264205982
181.187,251.179122894
181.202,251.09378864
181.217,251.008204049
181.232,250.92237001
181.247,250.836287475
181.262,250.749957463
181.277,250.663381056
181.292,250.576559409
181.307,250.489493745
181.31,250.472051443
181.322,250.402185363
181.337,250.314635639
181.352,250.226846026
181.367,250.138818058
181.382,250.050553354
181.397,249.962053618
181.412,249.873320647
181.427,249.784356326
181.442,249.695162638
181.457,249.605741662
181.472,249.516095583
181.487,249.426226687
181.502,249.336137367
181.517,249.245830131
181.532,249.155307602
181.547,249.064572519
181.562,248.973627747
181.577,248.882476274
181.592,248.791121221
181.607,248.699565842
181.622,248.607813532
181.637,248.515867825
181.652,248.423732407
181.667,248.331411113
181.682,248.238907936
181.697,248.146227029
181.712,248.053372712
181.727,247.960349476
181.742,247.867161989
181.757,247.7738151
181.772,247.680313843
181.787,247.586663448
181.802,247.492869337
181.817,247.398937141
181.832,247.304872695
181.847,247.210682051
181.862,247.116371482
181.877,247.021947484
181.892,246.927416787
181.907,246.832786361
181.922,246.738063415
181.937,246.643255412
181.952,246.548370071
181.967,246.453415369
181.982,246.358399556
181.997,246.263331152
182.012,246.168218959
182.027,246.073072062
182.042,245.977899839
182.057,245.882711964
182.06,245.863673383
182.072,245.787518411
182.087,245.692329461
182.102,245.597155709
182.117,245.50200806
182.132,245.406897745
182.147,245.311836314
182.162,245.216835645
182.177,245.121907944
182.192,245.02706575
182.207,244.932321933
182.222,244.837689695
182.237,244.743182573
182.252,244.648814433
182.267,244.554599473
182.282,244.460552215
182.297,244.366687501
182.312,244.273020489
182.327,244.179566646
182.342,244.086341733
182.357,243.9933618
182.372,243.900643169
182.387,243.80820242
182.402,243.716056371
182.417,243.624222057
182.432,243.532716708
182.447,243.441557719
182.462,243.35076262
182.477,243.260349039
182.492,243.170334665
182.507,243.0807372
182.522,242.991574311
182.537,242.90286357
182.552,242.814622394
182.567,242.726867974
182.582,242.639617194
182.597,242.552886542
182.612,242.466692014
182.627,242.381049004
182.642,242.295972177
182.657,242.211475332
182.672,242.127571251
182.687,242.044271521
182.702,241.961586343
182.717,241.87952431
182.732,241.798092161
182.747,241.717294499
182.762,241.63713348
182.777,241.557608443
182.792,241.478715502
182.807,241.400447072
182.822,241.322791323
182.837,241.245731545
182.852,241.169245419
182.867,241.093304148
182.882,241.017871454
182.897,240.942902368
182.912,240.868341808
182.927,240.794122854
182.942,240.720164669
182.957,240.646369959
182.972,240.572621848
182.987,240.498779983
183.002,240.42467566
183.017,240.350105617
183.032,240.274824077
183.047,240.198532381
183.062,240.120865311
183.077,240.041372755
183.092,239.959494717
183.107,239.874526593
183.122,239.785569899
183.137,239.691460683
183.152,239.59066268
183.167,239.481102903
183.182,239.359909689
183.197,239.222978491
183.212,239.064219516
183.227,238.874191086
183.242,238.637508807
183.257,238.327882702
183.367,238.402059552
183.382,238.68671822
183.397,238.906548636
183.412,239.084417814
183.427,239.233851875
183.442,239.363259471
183.457,239.478127985
183.472,239.582193099
183.487,239.678090415
183.502,239.767735908
183.517,239.852557863
183.532,239.933643788
183.547,240.01183667
183.562,240.087799924
183.577,240.162062372
183.592,240.235050118
183.607,240.307109609
183.622,240.37852462
183.637,240.449528979
183.652,240.520316244
183.667,240.591047167
183.682,240.661855514
183.697,240.732852672
183.712,240.804131316
183.727,240.875768376
183.742,240.947827447
183.757,241.020360766
183.772,241.093410853
183.787,241.167011879
183.802,241.241190807
183.817,241.315968369
183.832,241.39135989
183.847,241.467375992
183.862,241.544023204
183.877,241.621304487
183.892,241.699219694
183.907,241.777765962
183.922,241.856938068
183.937,241.936728732
183.952,242.01712889
183.967,242.098127931
183.982,242.179713912
183.997,242.261873747
184.012,242.34459337
184.027,242.427857893
184.042,242.511651734
184.057,242.595958739
184.072,242.680762288
184.087,242.766045392
184.102,242.85179078
184.117,242.937980973
184.132,243.024598354
184.147,243.111625229
184.162,243.199043884
184.177,243.286836632
184.192,243.374985857
184.207,243.463474053
184.222,243.552283856
184.237,243.641398081
184.252,243.730799739
184.267,243.820472068
184.282,243.910398552
184.297,244.000562935
184.312,244.09094924
184.327,244.18154178
184.342,244.27232517
184.357,244.363284335
184.372,244.454404518
184.387,244.545671283
184.402,244.637070527
184.417,244.728588472
184.432,244.820211677
184.447,244.911927034
184.462,245.003721769
184.477,245.095583439
184.492,245.187499937
184.507,245.279459482
184.522,245.371450621
184.537,245.463462225
184.552,245.555483484
184.56,245.604561801
184.567,245.647503905
184.582,245.739513304
184.597,245.831501806
184.612,245.923459835
184.627,246.015378113
184.642,246.107247652
184.657,246.199059747
184.672,246.290805976
184.687,246.382478188
184.702,246.474068498
184.717,246.565569287
184.732,246.656973187
184.747,246.748273082
184.762,246.839462099
184.777,246.930533601
184.792,247.021481185
184.807,247.112298671
184.822,247.202980102
184.837,247.293519731
184.852,247.383912022
184.867,247.474151639
184.882,247.564233447
184.897,247.654152498
184.912,247.743904032
184.927,247.83348347
184.942,247.922886408
184.957,248.012108613
184.972,248.101146017
184.987,248.189994714
185.002,248.278650951
185.017,248.367111128
185.032,248.455371793
185.047,248.543429634
185.062,248.631281478
185.077,248.718924286
185.092,248.806355148
185.107,248.893571279
185.122,248.980570018
185.137,249.067348819
185.152,249.153905253
185.167,249.240237001
185.182,249.326341851
185.197,249.412217694
185.212,249.497862522
185.227,249.583274428
185.242,249.668451593
185.257,249.753392295
185.272,249.838094897
185.287,249.92255785
185.302,250.006779685
185.31,250.051598926
185.317,250.090759018
185.332,250.174494537
185.347,250.257985011
185.362,250.341229277
185.377,250.424226246
185.392,250.506974894
185.407,250.589474266
185.422,250.671723469
185.437,250.753721674
185.452,250.835468109
185.467,250.916962061
185.482,250.998202874
185.497,251.079189946
185.512,251.159922726
185.527,251.240400715
185.542,251.320623464
185.557,251.400590569
185.572,251.480301673
185.587,251.559756464
185.602,251.638954674
185.617,251.717896074
185.632,251.796580476
185.647,251.875007732
185.662,251.95317773
185.677,252.031090396
185.692,252.108745689
185.707,252.186143604
185.722,252.263284168
185.737,252.340167438
185.752,252.416793504
185.767,252.493162485
185.782,252.569274528
185.797,252.645129806
185.812,252.720728522
185.827,252.796070901
185.842,252.871157196
185.857,252.945987682
185.872,253.020562656
185.887,253.094882441
185.902,253.168947376
185.917,253.242757825
185.932,253.31631417
185.947,253.389616813
185.96,253.452940875
185.962,253.462666171
185.977,253.535462684
185.992,253.608006804
186.007,253.680299003
186.022,253.752339767
186.037,253.824129595
186.052,253.895669005
186.06,253.933721144
186.067,253.966958523
186.082,254.037998695
186.097,254.108790072
186.112,254.179333225
186.127,254.249628729
186.142,254.319677176
186.157,254.389479164
186.172,254.459035303
186.187,254.528346213
186.202,254.597412523
186.217,254.666234868
186.232,254.734813893
186.247,254.803150252
186.262,254.871244603
186.277,254.939097613
186.292,255.006709955
186.307,255.074082306
186.322,255.141215352
186.337,255.20810978
186.352,255.274766286
186.367,255.341185567
186.382,255.407368324
186.397,255.473315265
186.412,255.539027098
186.427,255.604504536
186.442,255.669748292
186.457,255.734759085
186.472,255.799537631
186.487,255.864084653
186.502,255.928400874
186.517,255.992487013
186.532,256.056343796
186.547,256.119971948
186.562,256.183372191
186.577,256.246545251
186.592,256.309491852
186.607,256.372212715
186.622,256.434708565
186.637,256.496980122
186.652,256.559028105
186.667,256.620853233
186.682,256.682456223
186.697,256.743837787
186.71,256.796856586
186.712,256.804998639
186.727,256.865939487
186.742,256.926661038
186.757,256.987163995
186.772,257.047449061
186.787,257.107516928
186.802,257.167368293
186.817,257.227003844
186.832,257.286424268
186.847,257.345630245
186.862,257.404622454
186.877,257.463401565
186.892,257.521968248
186.907,257.580323165
186.922,257.638466974
186.937,257.696400327
186.952,257.754123874
186.967,257.811638255
186.982,257.868944107
186.997,257.926042061
187.012,257.98293274
187.027,258.039616765
187.042,258.096094746
187.057,258.152367293
187.072,258.208435001
187.087,258.264298466
187.102,258.319958275
187.117,258.375415006
187.132,258.430669233
187.147,258.485721522
187.162,258.540572432
187.177,258.595222513
187.192,258.649672311
187.207,258.703922364
187.222,258.7579732
187.237,258.811825342
187.252,258.865479304
187.267,258.918935594
187.282,258.972194709
187.297,259.025257144
187.312,259.07812338
187.327,259.130793892
187.342,259.183269151
187.357,259.235549614
187.372,259.287635733
187.387,259.339527952
187.402,259.391226708
187.417,259.442732427
187.432,259.494045528
187.447,259.545166423
187.46,259.589316036
187.462,259.596095514
187.477,259.646833196
187.492,259.697379854
187.507,259.747735867
187.522,259.797901606
187.537,259.84787743
187.552,259.897663694
187.567,259.947260742
187.582,259.996668911
187.597,260.045888529
187.612,260.094919918
187.627,260.143763387
187.642,260.192419241
187.657,260.240887777
187.672,260.289169279
187.687,260.337264031
187.702,260.3851723
187.717,260.43289435
187.732,260.480430438
187.747,260.52778081
187.762,260.574945705
187.777,260.621925356
187.792,260.668719982
187.807,260.715329806
187.822,260.761755031
187.837,260.807995858
187.852,260.854052481
187.867,260.899925087
187.882,260.945613852
187.897,260.991118947
187.912,261.036440535
187.927,261.081578775
187.942,261.126533812
187.957,261.171305791
187.972,261.215894847
187.987,261.260301108
188.002,261.304524695
188.017,261.348565722
188.032,261.3924243
188.047,261.43610053
188.062,261.479594506
188.077,261.522906319
188.092,261.566036052
188.107,261.608983781
188.122,261.651749578
188.137,261.694333507
188.152,261.73673563
188.167,261.778955997
188.182,261.820994661
188.197,261.862851662
188.21,261.898980814
188.212,261.904527039
188.227,261.946020824
188.242,261.987333045
188.257,262.028463723
188.272,262.069412881
188.287,262.110180527
188.302,262.150766673
188.317,262.19117132
188.332,262.231394471
188.347,262.271436121
188.362,262.311296263
188.377,262.350974884
188.392,262.390471969
188.407,262.429787498
188.422,262.468921447
188.437,262.507873793
188.452,262.546644505
188.467,262.585233549
188.482,262.623640893
188.497,262.661866495
188.512,262.699910317
188.527,262.737772311
188.542,262.775452438
188.557,262.812950647
188.572,262.850266883
188.587,262.887401101
188.602,262.924353241
188.617,262.961123251
188.632,262.997711069
188.647,263.03411664
188.66,263.065520669
188.662,263.070339901
188.677,263.106380792
188.692,263.142239249
188.707,263.177915207
188.722,263.213408604
188.737,263.248719375
