# 01004 ENAS Ny-Alesund Ii Observations at 12Z 07 Mar 2019
Frequency [GHz],TB
175.31,186.559819097
175.322,186.612661556
175.337,186.678945062
175.352,186.74548565
175.367,186.812284443
175.382,186.879342567
175.397,186.946661158
175.412,187.014241349
175.427,187.082084279
175.442,187.150191093
175.457,187.218562938
175.472,187.287200966
175.487,187.356106331
175.502,187.425280195
175.517,187.494723717
175.532,187.564438068
175.547,187.634424417
175.562,187.704683937
175.577,187.77521781
175.592,187.846027217
175.607,187.917113342
175.622,187.988477378
175.637,188.060120514
175.652,188.132043951
175.667,188.204248888
175.682,188.27673653
175.697,188.349508084
175.712,188.422564763
175.727,188.495907782
175.742,188.569538358
175.757,188.643457715
175.772,188.717667079
175.787,188.792167677
175.802,188.866960743
175.817,188.942047511
175.832,189.017429223
175.847,189.09310712
175.862,189.169082448
175.877,189.245356454
175.892,189.321930395
175.907,189.398805521
175.922,189.475983094
175.937,189.553464373
175.952,189.631250625
175.967,189.709343116
175.982,189.787743116
175.997,189.866451899
176.012,189.945470742
176.027,190.024800922
176.042,190.104443722
176.057,190.184400426
176.072,190.264672321
176.087,190.345260694
176.102,190.426166841
176.117,190.507392055
176.132,190.588937633
176.147,190.670804871
176.162,190.752995074
176.177,190.835509546
176.192,190.91834959
176.207,191.001516517
176.222,191.085011634
176.237,191.168836255
176.252,191.252991691
176.267,191.33747926
176.282,191.422300278
176.297,191.507456064
176.31,191.581529556
176.312,191.592947938
176.327,191.678777222
176.342,191.764945239
176.357,191.851453313
176.372,191.938302772
176.387,192.025494939
176.402,192.113031143
176.417,192.200912715
176.432,192.289140983
176.447,192.377717276
176.46,192.454765941
176.462,192.466642927
176.477,192.555919267
176.492,192.645547628
176.507,192.73552934
176.522,192.825865739
176.537,192.916558155
176.552,193.007607922
176.567,193.099016373
176.582,193.190784837
176.597,193.28291465
176.612,193.375407142
176.627,193.468263642
176.642,193.561485483
176.657,193.655073991
176.672,193.749030496
176.687,193.843356327
176.702,193.938052807
176.717,194.033121261
176.732,194.128563011
176.747,194.22437938
176.762,194.320571688
176.777,194.417141249
176.792,194.514089381
176.807,194.611417395
176.822,194.709126603
176.837,194.807218312
176.852,194.905693825
176.867,195.004554446
176.882,195.103801473
176.897,195.203436203
176.912,195.303459925
176.927,195.403873929
176.942,195.504679499
176.957,195.605877915
176.972,195.707470452
176.987,195.809458382
177.002,195.911842973
177.017,196.014625485
177.032,196.117807175
177.047,196.221389295
177.062,196.325373091
177.077,196.429759801
177.092,196.534550662
177.107,196.639746899
177.122,196.745349736
177.137,196.851360387
177.152,196.957780059
177.167,197.064609953
177.182,197.171851262
177.197,197.279505172
177.21,197.373139885
177.212,197.38757286
177.227,197.496055495
177.242,197.60495424
177.257,197.714270245
177.272,197.824004653
177.287,197.934158598
177.302,198.044733206
177.31,198.103878718
177.317,198.155729588
177.332,198.267148852
177.347,198.378992088
177.362,198.491260381
177.377,198.6039548
177.392,198.71707641
177.407,198.830626255
177.422,198.944605372
177.437,199.059014788
177.452,199.17385551
177.467,199.289128539
177.482,199.404834858
177.497,199.520975439
177.512,199.637551237
177.527,199.754563196
177.542,199.872012241
177.557,199.989899285
177.572,200.108225225
177.587,200.226990941
177.602,200.346197295
177.617,200.465845133
177.632,200.585935288
177.647,200.706468569
177.66,200.811289799
177.662,200.827445771
177.677,200.948867667
177.692,201.070735016
177.707,201.193048551
177.722,201.315808993
177.737,201.439017034
177.752,201.562673352
177.767,201.686778602
177.782,201.811333416
177.797,201.936338403
177.812,202.061794151
177.827,202.187701226
177.842,202.314060167
177.857,202.440871492
177.872,202.568135691
177.887,202.695853232
177.902,202.824024554
177.917,202.952650073
177.932,203.081730174
177.947,203.21126522
177.96,203.323897181
177.962,203.34125554
177.977,203.471701439
177.992,203.602603191
178.007,203.73396104
178.022,203.8657752
178.037,203.998045853
178.052,204.130773153
178.067,204.263957219
178.082,204.397598136
178.097,204.531695956
178.112,204.666250702
178.127,204.801262353
178.142,204.936730864
178.157,205.072656142
178.172,205.209038068
178.187,205.345876477
178.202,205.48317117
178.217,205.620921912
178.232,205.759128422
178.247,205.897790383
178.262,206.036907436
178.277,206.176479179
178.292,206.316505171
178.307,206.456984925
178.322,206.597917911
178.337,206.739303553
178.352,206.881141232
178.367,207.023430279
178.382,207.166169983
178.397,207.309359581
178.41,207.433820522
178.412,207.452998264
178.427,207.597085168
178.442,207.741619387
178.457,207.886599958
178.472,208.032025869
178.487,208.177896053
178.502,208.324209389
178.517,208.470964704
178.532,208.618160765
178.547,208.765796291
178.562,208.913869935
178.577,209.062380294
178.592,209.21132591
178.607,209.360705262
178.622,209.510516767
178.637,209.660758781
178.652,209.811429598
178.667,209.962527451
178.682,210.114050501
178.697,210.265996851
178.712,210.418364533
178.727,210.571151511
178.742,210.724355684
178.757,210.877974876
178.772,211.032006848
178.787,211.186449284
178.802,211.341299795
178.817,211.49655592
178.832,211.652215126
178.847,211.808274799
178.862,211.964732252
178.877,212.121584719
178.892,212.278829357
178.907,212.43646324
178.922,212.594483363
178.937,212.752886641
178.952,212.911669901
178.967,213.07082989
178.982,213.23036327
178.997,213.390266613
179.012,213.550536409
179.027,213.711169054
179.042,213.87216086
179.057,214.033508043
179.072,214.195206734
179.087,214.357252964
179.102,214.519642677
179.117,214.682371715
179.132,214.845435832
179.147,215.008830678
179.16,215.150703635
179.162,215.17255181
179.177,215.33659468
179.192,215.500954647
179.207,215.665626963
179.222,215.830606779
179.237,215.995889144
179.252,216.161469
179.267,216.327341185
179.282,216.493500429
179.297,216.659941357
179.312,216.826658482
179.327,216.993646207
179.342,217.160898827
179.357,217.328410522
179.372,217.496175362
179.387,217.6641873
179.402,217.832440175
179.417,218.000927711
179.432,218.169643516
179.447,218.338581077
179.462,218.507733763
179.477,218.677094826
179.492,218.846657395
179.507,219.016414475
179.522,219.186358953
179.537,219.356483591
179.552,219.526781026
179.567,219.69724377
179.582,219.86786421
179.597,220.038634605
179.612,220.209547089
179.627,220.380593664
179.642,220.551766207
179.657,220.723056463
179.672,220.894456048
179.687,221.065956445
179.702,221.237549007
179.717,221.409224957
179.732,221.580975381
179.747,221.752791234
179.762,221.924663337
179.777,222.096582379
179.792,222.26853891
179.807,222.440523349
179.822,222.612525978
179.837,222.784536944
179.852,222.956546256
179.867,223.12854379
179.882,223.300519284
179.897,223.472462341
179.91,223.62144528
179.912,223.644362426
179.927,223.816208867
179.942,223.987990859
179.957,224.159697455
179.972,224.331317576
179.987,224.502840007
180.002,224.674253395
180.017,224.84554625
180.032,225.016706952
180.047,225.187723739
180.062,225.358584721
180.077,225.52927787
180.092,225.699791026
180.107,225.870111896
180.122,226.040228056
180.137,226.210126949
180.152,226.379795888
180.167,226.549222058
180.182,226.718392513
180.197,226.887294183
180.212,227.055913867
180.227,227.224238243
180.242,227.392253865
180.257,227.559947163
180.272,227.727304446
180.287,227.894311904
180.302,228.06095561
180.317,228.227221521
180.332,228.393095479
180.347,228.558563213
180.362,228.723610345
180.377,228.888222384
180.392,229.052384738
180.407,229.216082705
180.422,229.379301488
180.437,229.542026188
180.452,229.704241809
180.467,229.865933262
180.482,230.027085366
180.497,230.187682855
180.512,230.347710375
180.527,230.50715249
180.542,230.665993686
180.557,230.824218373
180.56,230.855787953
180.572,230.98181089
180.587,231.138755505
180.602,231.295036422
180.617,231.450637783
180.632,231.605543674
180.647,231.759738127
180.66,231.892785465
180.662,231.913205123
180.677,232.065928599
180.692,232.217892448
180.707,232.369080532
180.722,232.519476675
180.737,232.669064676
180.752,232.817828312
180.767,232.965751339
180.782,233.112817503
180.797,233.259010541
180.812,233.404314186
180.827,233.548712176
180.842,233.692188252
180.857,233.834726175
180.872,233.976309722
180.887,234.116922692
180.902,234.256548919
180.917,234.395172272
180.932,234.532776664
180.947,234.669346053
180.962,234.804864457
180.977,234.939315953
180.992,235.072684686
181.007,235.204954877
181.022,235.336110828
181.037,235.466136929
181.052,235.595017664
181.067,235.722737621
181.082,235.849281497
181.097,235.974634103
181.112,236.098780376
181.127,236.221705383
181.142,236.343394329
181.157,236.463832567
181.172,236.5830056
181.187,236.700899094
181.202,236.817498884
181.217,236.932790981
181.232,237.046761581
181.247,237.159397071
181.262,237.27068404
181.277,237.380609283
181.292,237.489159815
181.307,237.596322871
181.31,237.617587878
181.322,237.702085921
181.337,237.806436676
181.352,237.909363096
181.367,238.010853397
181.382,238.110896059
181.397,238.209479841
181.412,238.306593778
181.427,238.4022272
181.442,238.496369732
181.457,238.589011307
181.472,238.680142174
181.487,238.769752904
181.502,238.857834399
181.517,238.944377903
181.532,239.029375007
181.547,239.112817656
181.562,239.194698161
181.577,239.275009203
181.592,239.353743847
181.607,239.430895542
181.622,239.506458134
181.637,239.580425871
181.652,239.652793415
181.667,239.723555844
181.682,239.792708662
181.697,239.860247806
181.712,239.926169656
181.727,239.990471036
181.742,240.053149225
181.757,240.114201966
181.772,240.173627464
181.787,240.231424403
181.802,240.287591944
181.817,240.342129735
181.832,240.395037918
181.847,240.446317128
181.862,240.495968506
181.877,240.543993701
181.892,240.590394872
181.907,240.635174698
181.922,240.678336377
181.937,240.719883634
181.952,240.759820722
181.967,240.798152425
181.982,240.834884064
181.997,240.870021494
182.012,240.903571113
182.027,240.935539856
182.042,240.965935202
182.057,240.994765171
182.06,241.000344063
182.072,241.022038325
182.087,241.047763769
182.102,241.071951146
182.117,241.09461064
182.132,241.115752968
182.147,241.135389382
182.162,241.153531658
182.177,241.170192101
182.192,241.185383527
182.207,241.199119265
182.222,241.211413148
182.237,241.222279497
182.252,241.231733118
182.267,241.239789288
182.282,241.24646374
182.297,241.251772649
182.312,241.255732616
182.327,241.258360652
182.342,241.259674152
182.357,241.259690877
182.372,241.258428929
182.387,241.255906721
182.402,241.25214295
182.417,241.247156564
182.432,241.240966722
182.447,241.233592757
182.462,241.225054133
182.477,241.215370394
182.492,241.204561115
182.507,241.192645838
182.522,241.179644013
182.537,241.165574928
182.552,241.150457626
182.567,241.134310826
182.582,241.117152825
182.597,241.099001394
182.612,241.079873663
182.627,241.059785996
182.642,241.038753845
182.657,241.016791594
182.672,240.993912384
182.687,240.970127916
182.702,240.945448227
182.717,240.919881448
182.732,240.893433523
182.747,240.86610789
182.762,240.837905128
182.777,240.808822543
182.792,240.778853709
182.807,240.747987922
182.822,240.716209591
182.837,240.683497514
182.852,240.649824043
182.867,240.615154107
182.882,240.579444051
182.897,240.542640271
182.912,240.504677572
182.927,240.465477205
182.942,240.424944482
182.957,240.382965867
182.972,240.339405396
182.987,240.294100233
183.002,240.246855093
183.017,240.197435189
183.032,240.145557194
183.047,240.090877544
183.062,240.032977089
183.077,239.971340697
183.092,239.905329756
183.107,239.834144518
183.122,239.756771713
183.137,239.671910424
183.152,239.577865405
183.167,239.472390887
183.182,239.352458203
183.197,239.213905305
183.212,239.050904443
183.227,238.855163578
183.242,238.614821439
183.257,238.313480309
183.367,238.393439947
183.382,238.677290866
183.397,238.904814308
183.412,239.091220417
183.427,239.247340422
183.442,239.380743452
183.457,239.496769025
183.472,239.599249038
183.487,239.690986045
183.502,239.774068416
183.517,239.850079966
183.532,239.920241413
183.547,239.985507419
183.562,240.046634305
183.577,240.104228114
183.592,240.158779305
183.607,240.210688182
183.622,240.260283835
183.637,240.307838427
183.652,240.353578134
183.667,240.397691607
183.682,240.440336611
183.697,240.481645267
183.712,240.521728259
183.727,240.56067822
183.742,240.598572489
183.757,240.635475375
183.772,240.671440035
183.787,240.706510028
183.802,240.740720631
183.817,240.774099937
183.832,240.8066698
183.847,240.838446631
183.862,240.869442093
183.877,240.899663691
183.892,240.929115292
183.907,240.957797568
183.922,240.985708398
183.937,241.012843204
183.952,241.039195265
183.967,241.064755979
183.982,241.089515107
183.997,241.113460984
184.012,241.136580708
184.027,241.158860314
184.042,241.180284924
184.057,241.200838882
184.072,241.220505883
184.087,241.239269082
184.102,241.257111192
184.117,241.274014579
184.132,241.289961345
184.147,241.304933398
184.162,241.318912526
184.177,241.331880455
184.192,241.343818908
184.207,241.354709651
184.222,241.364534547
184.237,241.373275591
184.252,241.380914954
184.267,241.387435014
184.282,241.39281839
184.297,241.397047972
184.312,241.400106942
184.327,241.401978805
184.342,241.402647405
184.357,241.402096946
184.372,241.400312011
184.387,241.397277576
184.402,241.392979023
184.417,241.387402159
184.432,241.380533219
184.447,241.37235888
184.462,241.362866271
184.477,241.352042978
184.492,241.339877054
184.507,241.32635702
184.522,241.311471874
184.537,241.295211094
184.552,241.27756464
184.56,241.267583293
184.567,241.258522957
184.582,241.23807698
184.597,241.216218128
184.612,241.192938313
184.627,241.168229935
184.642,241.142085883
184.657,241.114499534
184.672,241.085464753
184.687,241.054975887
184.702,241.02302777
184.717,240.989615714
184.732,240.95473551
184.747,240.918383422
184.762,240.880556187
184.777,240.841251007
184.792,240.800465551
184.807,240.758197943
184.822,240.714446764
184.837,240.669211045
184.852,240.622490262
184.867,240.574284329
184.882,240.524593597
184.897,240.473418844
184.912,240.420761274
184.927,240.366622505
184.942,240.31100457
184.957,240.253909906
184.972,240.19534135
184.987,240.135302132
185.002,240.073795869
185.017,240.010826558
185.032,239.946398568
185.047,239.880516638
185.062,239.813185866
185.077,239.744411701
185.092,239.674199942
185.107,239.602556724
185.122,239.529488519
185.137,239.455002119
185.152,239.379104638
185.167,239.3018035
185.182,239.223106432
185.197,239.14302146
185.212,239.0615569
185.227,238.978721345
185.242,238.89452367
185.257,238.808973014
185.272,238.722078778
185.287,238.633850617
185.302,238.544298429
185.31,238.495999375
185.317,238.453432357
185.332,238.36126277
185.347,238.267800265
185.362,238.173055656
185.377,238.077039967
185.392,237.979764427
185.407,237.881240458
185.422,237.781479676
185.437,237.680493875
185.452,237.578295027
185.467,237.474895274
185.482,237.370306915
185.497,237.264542409
185.512,237.157614361
185.527,237.049535518
185.542,236.940318763
185.557,236.829977107
185.572,236.718523683
185.587,236.605971741
185.602,236.492334639
185.617,236.377625839
185.632,236.2618589
185.647,236.145047475
185.662,236.027205297
185.677,235.90834618
185.692,235.788484015
185.707,235.667632757
185.722,235.545806423
185.737,235.423019087
185.752,235.299284876
185.767,235.174617959
185.782,235.049032548
185.797,234.922542889
185.812,234.795163257
185.827,234.666907955
185.842,234.537791302
185.857,234.407827635
185.872,234.277031299
185.887,234.145416648
185.902,234.012998035
185.917,233.87978981
185.932,233.745806314
185.947,233.611061879
185.96,233.493678918
185.962,233.475570819
185.977,233.339347428
185.992,233.202405978
186.007,233.064760709
186.022,232.926425832
186.037,232.787415521
186.052,232.647743914
186.06,232.572986861
186.067,232.507425103
186.082,232.366473136
186.097,232.22490201
186.112,232.082725672
186.127,231.93995801
186.142,231.796612855
186.157,231.652703977
186.172,231.508245082
186.187,231.363249806
186.202,231.217731718
186.217,231.071704313
186.232,230.925181009
186.247,230.778175152
186.262,230.630700003
186.277,230.482768741
186.292,230.334394466
186.307,230.185590187
186.322,230.036368825
186.337,229.886743213
186.352,229.736726089
186.367,229.586330101
186.382,229.435567798
186.397,229.284451633
186.412,229.132993961
186.427,228.981207036
186.442,228.82910301
186.457,228.676693934
186.472,228.523991753
186.487,228.371008309
186.502,228.217755333
186.517,228.064244453
186.532,227.910487187
186.547,227.756494944
186.562,227.602279021
186.577,227.447850606
186.592,227.293220773
186.607,227.138400486
186.622,226.983400595
186.637,226.828231833
186.652,226.672904824
186.667,226.517430074
186.682,226.361817973
186.697,226.2060788
186.71,226.071009918
186.712,226.050222713
186.727,225.894259757
186.742,225.73819986
186.757,225.582052831
186.772,225.425828367
186.787,225.269536045
186.802,225.113185326
186.817,224.956785554
186.832,224.800345956
186.847,224.643875643
186.862,224.48738361
186.877,224.330878734
186.892,224.174369776
186.907,224.017865383
186.922,223.861374083
186.937,223.704904291
186.952,223.548464306
186.967,223.392062312
186.982,223.235706378
186.997,223.07940446
187.012,222.9231644
187.027,222.766993927
187.042,222.610900658
187.057,222.454892094
187.072,222.298975629
187.087,222.143158544
187.102,221.987448009
187.117,221.831851086
187.132,221.676374723
187.147,221.521025766
187.162,221.365810947
187.177,221.210736893
187.192,221.055810127
187.207,220.90103706
187.222,220.746424004
187.237,220.59197716
187.252,220.437702631
187.267,220.283606415
187.282,220.129694405
187.297,219.975972397
187.312,219.822446083
187.327,219.669121057
187.342,219.516002811
187.357,219.363096744
187.372,219.210408152
187.387,219.057942238
187.402,218.905704108
187.417,218.753698773
187.432,218.60193115
187.447,218.450406063
187.46,218.319284167
187.462,218.299128245
187.477,218.148102334
187.492,217.997332883
187.507,217.846824348
187.522,217.696581104
187.537,217.546607434
187.552,217.396907533
187.567,217.247485513
187.582,217.098345398
187.597,216.949491132
187.612,216.800926569
187.627,216.652655488
187.642,216.50468158
187.657,216.357008459
187.672,216.209639659
187.687,216.062578634
187.702,215.915828761
187.717,215.76939334
187.732,215.623275593
187.747,215.47747867
187.762,215.332005643
187.777,215.186859515
187.792,215.042043211
187.807,214.897559589
187.822,214.753411434
187.837,214.609601461
187.852,214.466132316
187.867,214.323006581
187.882,214.180226761
187.897,214.037795306
187.912,213.895714591
187.927,213.753986936
187.942,213.612614584
187.957,213.471599728
187.972,213.330944491
187.987,213.190650938
188.002,213.050721072
188.017,212.911156837
188.032,212.771960118
188.047,212.633132742
188.062,212.494676479
188.077,212.356593043
188.092,212.218884091
188.107,212.081551226
188.122,211.944595997
188.137,211.8080199
188.152,211.671824379
188.167,211.536010824
188.182,211.400580576
188.197,211.265534928
188.21,211.148807423
188.212,211.130875117
188.227,210.996602338
188.242,210.862717735
188.257,210.729222404
188.272,210.596117397
188.287,210.463403719
188.302,210.331082329
188.317,210.199154144
188.332,210.067620033
188.347,209.936480827
188.362,209.805737312
188.377,209.675390233
188.392,209.545440293
188.407,209.415888157
188.422,209.286734448
188.437,209.157979751
188.452,209.029624616
188.467,208.901669545
188.482,208.774115017
188.497,208.646961463
188.512,208.520209284
188.527,208.393858844
188.542,208.267910473
188.557,208.142364466
188.572,208.017221086
188.587,207.892480561
188.602,207.768143091
188.617,207.644208837
188.632,207.520677935
188.647,207.397550489
188.66,207.291166445
188.662,207.274826572
188.677,207.152506228
188.692,207.030589471
188.707,206.909076287
188.722,206.787966635
