# 01004 ENAS Ny-Alesund Ii Observations at 12Z 18 Feb 2020
Frequency [GHz],TB
175.31,194.580738988
175.322,194.638567623
175.337,194.711085199
175.352,194.783861185
175.367,194.856896534
175.382,194.930192202
175.397,195.003749135
175.412,195.077568283
175.427,195.15165062
175.442,195.225997084
175.457,195.300608642
175.472,195.375486251
175.487,195.450630865
175.502,195.52604346
175.517,195.601724985
175.532,195.67767641
175.547,195.753898694
175.562,195.830392808
175.577,195.907159711
175.592,195.98420038
175.607,196.061515778
175.622,196.139106867
175.637,196.216974624
175.652,196.295120013
175.667,196.373544011
175.682,196.452247584
175.697,196.531231703
175.712,196.610497339
175.727,196.690045459
175.742,196.76987705
175.757,196.849993068
175.772,196.930394489
175.787,197.011082287
175.802,197.092057435
175.817,197.173320899
175.832,197.254873659
175.847,197.336716678
175.862,197.418850931
175.877,197.501277386
175.892,197.583997015
175.907,197.66701079
175.922,197.750319669
175.937,197.833924632
175.952,197.91782664
175.967,198.002026658
175.982,198.086525655
175.997,198.171324591
176.012,198.25642443
176.027,198.341826137
176.042,198.427530664
176.057,198.51353898
176.072,198.599852031
176.087,198.686470784
176.102,198.773396185
176.117,198.860629183
176.132,198.948170731
176.147,199.036021782
176.162,199.124183274
176.177,199.212656149
176.192,199.301441354
176.207,199.390539825
176.222,199.479952495
176.237,199.5696803
176.252,199.659724169
176.267,199.750085025
176.282,199.840763792
176.297,199.931761399
176.31,200.010884599
176.312,200.023078753
176.327,200.114716772
176.342,200.206676366
176.357,200.298958445
176.372,200.391563901
176.387,200.484493637
176.402,200.577748554
176.417,200.671329529
176.432,200.765237457
176.447,200.859473211
176.46,200.941410057
176.462,200.954037675
176.477,201.048931712
176.492,201.144156192
176.507,201.239711976
176.522,201.33559992
176.537,201.431820867
176.552,201.528375665
176.567,201.625265152
176.582,201.722490158
176.597,201.820051516
176.612,201.917950031
176.627,202.01618653
176.642,202.114761809
176.657,202.213676668
176.672,202.312931901
176.687,202.412528296
176.702,202.512466625
176.717,202.612747658
176.732,202.713372152
176.747,202.814340867
176.762,202.915654541
176.777,203.017313914
176.792,203.119319718
176.807,203.221672661
176.822,203.324373464
176.837,203.427422816
176.852,203.530821413
176.867,203.634569935
176.882,203.738669047
176.897,203.84311942
176.912,203.947921688
176.927,204.053076509
176.942,204.158584499
176.957,204.264446274
176.972,204.370662437
176.987,204.477233585
177.002,204.584160305
177.017,204.691443158
177.032,204.799082698
177.047,204.90707948
177.062,205.015434026
177.077,205.124146847
177.092,205.233218461
177.107,205.342649347
177.122,205.452439984
177.137,205.562590834
177.152,205.67310234
177.167,205.783974933
177.182,205.89520903
177.197,206.006805033
177.21,206.103814605
177.212,206.118763321
177.227,206.231084263
177.242,206.343768215
177.257,206.456815501
177.272,206.570226452
177.287,206.684001351
177.302,206.798140488
177.31,206.859163719
177.317,206.912644126
177.332,207.027512505
177.347,207.142745865
177.362,207.258344386
177.377,207.374308276
177.392,207.49063769
177.407,207.60733278
177.422,207.72439367
177.437,207.841820461
177.452,207.959613238
177.467,208.077772061
177.482,208.196296965
177.497,208.315187977
177.512,208.434445075
177.527,208.55406824
177.542,208.674057408
177.557,208.794412505
177.572,208.915133429
177.587,209.03622005
177.602,209.157672216
177.617,209.279489735
177.632,209.401672418
177.647,209.524220017
177.66,209.630722921
177.662,209.647132284
177.677,209.77040892
177.692,209.894049618
177.707,210.018054021
177.722,210.142421767
177.737,210.267152448
177.752,210.392245631
177.767,210.517700851
177.782,210.643517612
177.797,210.769695391
177.812,210.896233627
177.827,211.023131731
177.842,211.150389081
177.857,211.278005019
177.872,211.405978856
177.887,211.534309864
177.902,211.662997282
177.917,211.79204032
177.932,211.921438144
177.947,212.05118988
177.96,212.163926973
177.962,212.181294639
177.977,212.311751459
177.992,212.442559382
178.007,212.573717365
178.022,212.70522437
178.037,212.837079288
178.052,212.96928098
178.067,213.101828275
178.082,213.234719949
178.097,213.367954738
178.112,213.50153134
178.127,213.635448406
178.142,213.769704544
178.157,213.904298319
178.172,214.039228246
178.187,214.174492804
178.202,214.310090417
178.217,214.44601947
178.232,214.582278294
178.247,214.718865176
178.262,214.855778352
178.277,214.993016018
178.292,215.130576302
178.307,215.268457293
178.322,215.406657035
178.337,215.545173513
178.352,215.684004659
178.367,215.823148349
178.382,215.962602419
178.397,216.102364638
178.41,216.22373939
178.412,216.242432724
178.427,216.382804345
178.442,216.523477102
178.457,216.664448551
178.472,216.805716185
178.487,216.947277437
178.502,217.089129691
178.517,217.231270253
178.532,217.373696393
178.547,217.516405303
178.562,217.659394116
178.577,217.802659919
178.592,217.94619971
178.607,218.090010451
178.622,218.234089016
178.637,218.378432238
178.652,218.523036869
178.667,218.667899598
178.682,218.81301705
178.697,218.958385788
178.712,219.104002296
178.727,219.249862998
178.742,219.395964247
178.757,219.542302336
178.772,219.688873467
178.787,219.835673791
178.802,219.982699376
178.817,220.129946226
178.832,220.277410271
178.847,220.425087363
178.862,220.572973283
178.877,220.721063738
178.892,220.869354365
178.907,221.017840718
178.922,221.166518274
178.937,221.315382448
178.952,221.464428562
178.967,221.613651869
178.982,221.763047533
178.997,221.912610658
179.012,222.062336254
179.027,222.212219259
179.042,222.362254519
179.057,222.512436819
179.072,222.662760847
179.087,222.813221214
179.102,222.963812451
179.117,223.114529004
179.132,223.265365237
179.147,223.416315435
179.16,223.547226636
179.162,223.567373786
179.177,223.718534415
179.192,223.869791339
179.207,224.021138514
179.222,224.172569789
179.237,224.324078948
179.252,224.475659673
179.267,224.627305562
179.282,224.779010135
179.297,224.930766825
179.312,225.082568971
179.327,225.234409828
179.342,225.386282569
179.357,225.538180272
179.372,225.690095935
179.387,225.842022461
179.402,225.993952673
179.417,226.145879302
179.432,226.297794992
179.447,226.449692302
179.462,226.601563696
179.477,226.753401567
179.492,226.905198198
179.507,227.0569458
179.522,227.208636495
179.537,227.360262312
179.552,227.511815203
179.567,227.663287022
179.582,227.81466955
179.597,227.965954464
179.612,228.117133378
179.627,228.268197795
179.642,228.419139153
179.657,228.5699488
179.672,228.720618001
179.687,228.871137931
179.702,229.02149969
179.717,229.171694288
179.732,229.321712663
179.747,229.471545663
179.762,229.621184062
179.777,229.770618547
179.792,229.919839739
179.807,230.068838164
179.822,230.217604284
179.837,230.366128482
179.852,230.514401065
179.867,230.662412264
179.882,230.81015224
179.897,230.957611081
179.91,231.085173619
179.912,231.1047788
179.927,231.251645347
179.942,231.398200606
179.957,231.544434377
179.972,231.690336419
179.987,231.835896404
180.002,231.981103961
180.017,232.125948641
180.032,232.270419946
180.047,232.414507311
180.062,232.558200129
180.077,232.701487718
180.092,232.844359363
180.107,232.986804284
180.122,233.128811661
180.137,233.270370618
180.152,233.411470242
180.167,233.552099572
180.182,233.692247606
180.197,233.831903302
180.212,233.971055584
180.227,234.109693344
180.242,234.247805432
180.257,234.38538068
180.272,234.522407883
180.287,234.658875813
180.302,234.794773225
180.317,234.930088848
180.332,235.064811401
180.347,235.198929574
180.362,235.332432062
180.377,235.465307541
180.392,235.597544689
180.407,235.729132165
180.422,235.860058645
180.437,235.990312799
180.452,236.119883302
180.467,236.248758845
180.482,236.376928122
180.497,236.504379845
180.512,236.63110275
180.527,236.757085584
180.542,236.882317129
180.557,237.006786193
180.56,237.031587525
180.572,237.13048161
180.587,237.25339225
180.602,237.375507034
180.617,237.496814906
180.632,237.617304872
180.647,237.736965977
180.66,237.839993386
180.662,237.855787322
180.677,237.973758071
180.692,238.090867437
180.707,238.2071047
180.722,238.322459209
180.737,238.436920391
180.752,238.550477737
180.767,238.663120819
180.782,238.7748393
180.797,238.885622919
180.812,238.99546151
180.827,239.104345006
180.842,239.212263424
180.857,239.319206898
180.872,239.425165658
180.887,239.530130046
180.902,239.634090516
180.917,239.737037641
180.932,239.838962115
180.947,239.939854759
180.962,240.03970651
180.977,240.138508455
180.992,240.236251801
181.007,240.332927903
181.022,240.42852826
181.037,240.523044519
181.052,240.616468464
181.067,240.708792053
181.082,240.800007387
181.097,240.890106733
181.112,240.979082529
181.127,241.066927367
181.142,241.153634024
181.157,241.23919544
181.172,241.323604748
181.187,241.406855243
181.202,241.488940424
181.217,241.56985396
181.232,241.649589723
181.247,241.72814177
181.262,241.80550436
181.277,241.881671946
181.292,241.956639186
181.307,242.030400938
181.31,242.045008193
181.322,242.102952273
181.337,242.17428846
181.352,242.244404992
181.367,242.313297571
181.382,242.380962108
181.397,242.447394736
181.412,242.512591813
181.427,242.57654991
181.442,242.639265822
181.457,242.700736572
181.472,242.760959408
181.487,242.819931807
181.502,242.877651461
181.517,242.934116313
181.532,242.989324521
181.547,243.043274481
181.562,243.095964814
181.577,243.14739438
181.592,243.19756227
181.607,243.24646781
181.622,243.29411055
181.637,243.340490286
181.652,243.385607041
181.667,243.429461065
181.682,243.47205285
181.697,243.513383114
181.712,243.553452808
181.727,243.59226311
181.742,243.629815427
181.757,243.666111397
181.772,243.701152875
181.787,243.734941949
181.802,243.76748093
181.817,243.798772337
181.832,243.828818915
181.847,243.857623625
181.862,243.88518964
181.877,243.911520334
181.892,243.936619296
181.907,243.96049032
181.922,243.983137388
181.937,244.004564681
181.952,244.024776574
181.967,244.043777625
181.982,244.061572573
181.997,244.078166325
182.012,244.093563969
182.027,244.107770755
182.042,244.120792077
182.057,244.13263349
182.06,244.134860683
182.072,244.143300691
182.087,244.152799503
182.102,244.161135882
182.117,244.168315891
182.132,244.174345707
182.147,244.179231596
182.162,244.182979908
182.177,244.185597067
182.192,244.18708955
182.207,244.187463876
182.222,244.186726594
182.237,244.184884258
182.252,244.181943417
182.267,244.177910592
182.282,244.172792249
182.297,244.166594787
182.312,244.1593245
182.327,244.150987558
182.342,244.141589974
182.357,244.131137571
182.372,244.119635954
182.387,244.107090445
182.402,244.093506083
182.417,244.078887532
182.432,244.063239062
182.447,244.046564482
182.462,244.028867075
182.477,244.010149524
182.492,243.990413859
182.507,243.969661348
182.522,243.947892429
182.537,243.925106582
182.552,243.901302243
182.567,243.876476664
182.582,243.850625772
182.597,243.82374402
182.612,243.795824218
182.627,243.766857325
182.642,243.736832252
182.657,243.705735603
182.672,243.6735514
182.687,243.640260789
182.702,243.605841676
182.717,243.570268336
182.732,243.533510963
182.747,243.495535164
182.762,243.456301355
182.777,243.415764099
182.792,243.37387134
182.807,243.330563489
182.822,243.285772403
182.837,243.239420157
182.852,243.191417661
182.867,243.141662965
182.882,243.090039331
182.897,243.036412867
182.912,242.980629778
182.927,242.922513006
182.942,242.861858185
182.957,242.798428728
182.972,242.731949773
182.987,242.662100704
183.002,242.588505829
183.017,242.510722623
183.032,242.428226797
183.047,242.340393105
183.062,242.246470434
183.077,242.14554905
183.092,242.036517065
183.107,241.918001775
183.122,241.788289596
183.137,241.64521531
183.152,241.486006794
183.167,241.307064634
183.182,241.103646214
183.197,240.869410475
183.212,240.595765783
183.227,240.270965277
183.242,239.878985537
183.257,239.39873404
183.367,239.523497015
183.382,239.978238652
183.397,240.350651008
183.412,240.660517336
183.427,240.922649784
183.442,241.147882943
183.457,241.344155059
183.472,241.517343884
183.487,241.671862025
183.502,241.811071356
183.517,241.937570804
183.532,242.053397561
183.547,242.160169273
183.562,242.259185843
183.577,242.351503211
183.592,242.437987654
183.607,242.519356184
183.622,242.596207048
183.637,242.669042985
183.652,242.738289207
183.667,242.804307419
183.682,242.867406875
183.697,242.92785319
183.712,242.985875401
183.727,243.041671699
183.742,243.09541411
183.757,243.14725233
183.772,243.19731691
183.787,243.245721925
183.802,243.292567182
183.817,243.337940105
183.832,243.381917324
183.847,243.424566035
183.862,243.465945156
183.877,243.506106327
183.892,243.545094768
183.907,243.582950026
183.922,243.619706626
183.937,243.655394638
183.952,243.690040159
183.967,243.723665773
183.982,243.756290914
183.997,243.787932201
184.012,243.818603755
184.027,243.848317454
184.042,243.877083168
184.057,243.904908967
184.072,243.931801314
184.087,243.957765232
184.102,243.982804452
184.117,244.006921545
184.132,244.030118049
184.147,244.05239458
184.162,244.073750917
184.177,244.094186108
184.192,244.113698538
184.207,244.13228601
184.222,244.1499458
184.237,244.166674726
184.252,244.182469209
184.267,244.197325305
184.282,244.211238757
184.297,244.224205046
184.312,244.236219412
184.327,244.247276906
184.342,244.257372403
184.357,244.266500651
184.372,244.27465627
184.387,244.281833809
184.402,244.288027745
184.417,244.293232511
184.432,244.297442508
184.447,244.300652141
184.462,244.302855809
184.477,244.304047947
184.492,244.30422301
184.507,244.303375514
184.522,244.301500032
184.537,244.298591202
184.552,244.294643747
184.56,244.292111959
184.567,244.289652481
184.582,244.283612321
184.597,244.276518278
184.612,244.268365483
184.627,244.2591492
184.642,244.248864803
184.657,244.237507805
184.672,244.225073861
184.687,244.21155877
184.702,244.196958482
184.717,244.181269093
184.732,244.164486859
184.747,244.146608206
184.762,244.127629714
184.777,244.107548137
184.792,244.086360402
184.807,244.064063605
184.822,244.040655028
184.837,244.016132126
184.852,243.990492536
184.867,243.963734081
184.882,243.935854769
184.897,243.906852796
184.912,243.876726546
184.927,243.845474598
184.942,243.813095716
184.957,243.779588858
184.972,243.744953182
184.987,243.709188037
185.002,243.672292959
185.017,243.634267694
185.032,243.595112172
185.047,243.55482653
185.062,243.513411085
185.077,243.470866375
185.092,243.427193108
185.107,243.38239221
185.122,243.33646479
185.137,243.289412153
185.152,243.241235803
185.167,243.191937439
185.182,243.14151895
185.197,243.089982416
185.212,243.037330115
185.227,242.983564507
185.242,242.928688253
185.257,242.872704189
185.272,242.815615346
185.287,242.757424936
185.302,242.698136366
185.31,242.666067993
185.317,242.637753202
185.332,242.576279218
185.347,242.513718343
185.362,242.450074701
185.377,242.385352581
185.392,242.319556446
185.407,242.252690933
185.422,242.184760846
185.437,242.115771156
185.452,242.045726996
185.467,241.974633666
185.482,241.902496623
185.497,241.829321479
185.512,241.755114
185.527,241.679880112
185.542,241.603625882
185.557,241.526357529
185.572,241.44808141
185.587,241.368804028
185.602,241.288532026
185.617,241.207272182
185.632,241.125031401
185.647,241.041816729
185.662,240.957635327
185.677,240.872494487
185.692,240.786401621
185.707,240.699364259
185.722,240.611390046
185.737,240.522486735
185.752,240.4326622
185.767,240.341924408
185.782,240.250281431
185.797,240.157741443
185.812,240.064312723
185.827,239.970003629
185.842,239.874822612
185.857,239.77877822
185.872,239.681879071
185.887,239.584133877
185.902,239.485551426
185.917,239.386140568
185.932,239.285910238
185.947,239.18486943
185.96,239.096652154
185.962,239.083027217
185.977,238.980392718
185.992,238.876975119
186.007,238.772783665
186.022,238.667827648
186.037,238.562116415
186.052,238.455659357
186.06,238.398580556
186.067,238.34846591
186.082,238.240545552
186.097,238.131907796
186.112,238.022562199
186.127,237.912518344
186.142,237.801785838
186.157,237.690374325
186.172,237.578293473
186.187,237.465552963
186.202,237.352162498
186.217,237.238131807
186.232,237.123470617
186.247,237.008188677
186.262,236.892295733
186.277,236.775801552
186.292,236.658715888
186.307,236.541048512
186.322,236.422809183
186.337,236.304007651
186.352,236.184653673
186.367,236.064756992
186.382,235.944327329
186.397,235.823374417
186.412,235.701907946
186.427,235.579937607
186.442,235.457473062
186.457,235.334523958
186.472,235.211099914
186.487,235.087210529
186.502,234.962865362
186.517,234.838073962
186.532,234.712845828
186.547,234.587190436
186.562,234.46111723
186.577,234.33463561
186.592,234.207754942
186.607,234.080484552
186.622,233.952833721
186.637,233.824811699
186.652,233.69642768
186.667,233.567690815
186.682,233.438610213
186.697,233.30919493
186.71,233.196771259
186.712,233.179453971
186.727,233.049396293
186.742,232.919030804
186.757,232.788366352
186.772,232.657411738
186.787,232.5261757
186.802,232.394666925
186.817,232.262894036
186.832,232.130865604
186.847,231.998590137
186.862,231.866076086
186.877,231.733331835
186.892,231.600365709
186.907,231.467185969
186.922,231.333800816
186.937,231.200218378
186.952,231.066446727
186.967,230.932493864
186.982,230.798367729
186.997,230.664076183
187.012,230.529627034
187.027,230.395028007
187.042,230.260286772
187.057,230.125410924
187.072,229.990407982
187.087,229.855285405
187.102,229.720050584
187.117,229.584710821
187.132,229.449273373
187.147,229.313745397
187.162,229.178134004
187.177,229.042446215
187.192,228.906688994
187.207,228.770869218
187.222,228.634993705
187.237,228.499069188
187.252,228.363102331
187.267,228.227099737
187.282,228.09106792
187.297,227.955013333
187.312,227.81894235
187.327,227.68286127
187.342,227.546776322
187.357,227.410693668
187.372,227.274619385
187.387,227.138559489
187.402,227.002519918
187.417,226.866506538
187.432,226.730525142
187.447,226.594581458
187.46,226.476798461
187.462,226.458681124
187.477,226.322829728
187.492,226.187032773
187.507,226.051295691
187.522,225.915623854
187.537,225.780022544
187.552,225.644496992
187.567,225.509052348
187.582,225.373693692
187.597,225.238426036
187.612,225.103254326
187.627,224.96818343
187.642,224.833218157
187.657,224.698363243
187.672,224.563623352
187.687,224.429003087
187.702,224.294506979
187.717,224.160139492
187.732,224.025905037
187.747,223.891807929
187.762,223.75785245
187.777,223.624042793
187.792,223.490383093
187.807,223.356877429
187.822,223.223529808
187.837,223.090344171
187.852,222.957324403
187.867,222.824474313
187.882,222.691797667
187.897,222.559298157
187.912,222.426979415
187.927,222.294845008
187.942,222.162898457
187.957,222.031143208
187.972,221.899582651
187.987,221.768220121
188.002,221.637058896
188.017,221.506102189
188.032,221.375353159
188.047,221.244814912
188.062,221.11449049
188.077,220.984382889
188.092,220.85449503
188.107,220.724829806
188.122,220.595390041
188.137,220.466178501
188.152,220.337197905
188.167,220.208450917
188.182,220.079940154
188.197,219.951668172
188.21,219.840694215
188.212,219.823637482
188.227,219.695850551
188.242,219.568309778
188.257,219.441017519
188.272,219.313976094
188.287,219.187187752
188.302,219.060654718
188.317,218.934379145
188.332,218.808363159
188.347,218.682608829
188.362,218.55711818
188.377,218.431893188
188.392,218.306935789
188.407,218.182247873
188.422,218.057831284
188.437,217.933687827
188.452,217.809819256
188.467,217.686227292
188.482,217.562913602
188.497,217.439879828
188.512,217.317127552
188.527,217.194658331
188.542,217.072473669
188.557,216.950575041
188.572,216.82896388
188.587,216.707641573
188.602,216.586609483
188.617,216.465868918
188.632,216.345421162
188.647,216.22526746
188.66,216.121373038
188.662,216.105409018
188.677,215.985847001
188.692,215.866582553
188.707,215.747616768
188.722,215.628950711
188.737,215.510585414
188.752,215.392521887
