# 48698 WSSS Singapore Observations at 12Z 24 Jun 2019
Frequency [GHz],TB
175.31,271.522486645
175.322,271.498474724
175.337,271.468397464
175.352,271.438250748
175.367,271.408034402
175.382,271.377748243
175.397,271.3473921
175.412,271.316965788
175.427,271.286469132
175.442,271.255901947
175.457,271.225264054
175.472,271.194555271
175.487,271.163775419
175.502,271.132924307
175.517,271.102001761
175.532,271.071007592
175.547,271.039941612
175.562,271.008803639
175.577,270.977593482
175.592,270.946310966
175.607,270.914955887
175.622,270.883528065
175.637,270.852027312
175.652,270.820453437
175.667,270.788806243
175.682,270.757085549
175.697,270.725291158
175.712,270.693422875
175.727,270.661480509
175.742,270.629463869
175.757,270.597372752
175.772,270.565206968
175.787,270.532966319
175.802,270.50065061
175.817,270.468259635
175.832,270.435793209
175.847,270.403251118
175.862,270.370633171
175.877,270.337939161
175.892,270.305168888
175.907,270.272322157
175.922,270.239398756
175.937,270.206398482
175.952,270.173321131
175.967,270.140166499
175.982,270.106934371
175.997,270.073624552
176.012,270.040236827
176.027,270.006770981
176.042,269.973226813
176.057,269.939604112
176.072,269.905902662
176.087,269.872122248
176.102,269.838262666
176.117,269.80432369
176.132,269.770305109
176.147,269.736206709
176.162,269.702028278
176.177,269.667769583
176.192,269.633430428
176.207,269.599010569
176.222,269.564509796
176.237,269.529927885
176.252,269.49526462
176.267,269.460519768
176.282,269.425693114
176.297,269.39078442
176.31,269.360463695
176.312,269.355793468
176.327,269.320720038
176.342,269.285563885
176.357,269.250324784
176.372,269.215002516
176.387,269.179596836
176.402,269.144107515
176.417,269.108534323
176.432,269.072877021
176.447,269.03713537
176.46,269.006090872
176.462,269.001309139
176.477,268.965398096
176.492,268.929401992
176.507,268.893320585
176.522,268.857153642
176.537,268.820900918
176.552,268.784562164
176.567,268.748137141
176.582,268.711625597
176.597,268.675027289
176.612,268.638341972
176.627,268.601569388
176.642,268.564709296
176.657,268.527761433
176.672,268.490725559
176.687,268.453601406
176.702,268.416388729
176.717,268.37908726
176.732,268.341696755
176.747,268.304216939
176.762,268.266647559
176.777,268.228988351
176.792,268.191239054
176.807,268.153399397
176.822,268.115469121
176.837,268.077447953
176.852,268.039335624
176.867,268.001131863
176.882,267.962836399
176.897,267.924448956
176.912,267.885969264
176.927,267.847397039
176.942,267.808732013
176.957,267.769973891
176.972,267.731122406
176.987,267.692177267
177.002,267.653138191
177.017,267.614004897
177.032,267.574777093
177.047,267.535454483
177.062,267.496036787
177.077,267.456523703
177.092,267.416914947
177.107,267.37721021
177.122,267.337409209
177.137,267.297511632
177.152,267.257517177
177.167,267.21742555
177.182,267.177236438
177.197,267.136949537
177.21,267.101954877
177.212,267.096564532
177.227,267.056081126
177.242,267.015498987
177.257,266.974817818
177.272,266.934037296
177.287,266.893157094
177.302,266.852176901
177.31,266.830279799
177.317,266.811096391
177.332,266.769915236
177.347,266.728633115
177.362,266.687249693
177.377,266.645764638
177.392,266.604177623
177.407,266.562488313
177.422,266.520696353
177.437,266.478801423
177.452,266.436803169
177.467,266.394701243
177.482,266.352495311
177.497,266.310185009
177.512,266.26776999
177.527,266.2252499
177.542,266.182624384
177.557,266.139893077
177.572,266.097055618
177.587,266.05411164
177.602,266.011060782
177.617,265.96790267
177.632,265.924636928
177.647,265.881263182
177.66,265.84358495
177.662,265.837781055
177.677,265.794190168
177.692,265.75049013
177.707,265.706680555
177.722,265.662761055
177.737,265.61873124
177.752,265.574590704
177.767,265.530339065
177.782,265.485975903
177.797,265.441500821
177.812,265.396913408
177.827,265.352213259
177.842,265.30739995
177.857,265.262473065
177.872,265.217432189
177.887,265.172276881
177.902,265.127006735
177.917,265.081621302
177.932,265.036120148
177.947,264.990502848
177.96,264.950873549
177.962,264.944768937
177.977,264.898917989
177.992,264.852949542
178.007,264.806863139
178.022,264.76065834
178.037,264.714334671
178.052,264.667891664
178.067,264.621328853
178.082,264.574645763
178.097,264.527841926
178.112,264.480916846
178.127,264.43387005
178.142,264.386701035
178.157,264.339409315
178.172,264.291994395
178.187,264.244455756
178.202,264.196792911
178.217,264.149005329
178.232,264.101092504
178.247,264.053053913
178.262,264.004889027
178.277,263.956597311
178.292,263.90817824
178.307,263.859631264
178.322,263.810955843
178.337,263.762151425
178.352,263.713217445
178.367,263.664153355
178.382,263.614958584
178.397,263.565632558
178.41,263.522776718
178.412,263.516174699
178.427,263.466584425
178.442,263.416861151
178.457,263.367004276
178.472,263.317013209
178.487,263.266887337
178.502,263.21662606
178.517,263.166228742
178.532,263.115694777
178.547,263.065023528
178.562,263.014214366
178.577,262.963266638
178.592,262.912179708
178.607,262.86095291
178.622,262.809585594
178.637,262.75807708
178.652,262.706426706
178.667,262.654633783
178.682,262.60269763
178.697,262.550617547
178.712,262.498392827
178.727,262.446022772
178.742,262.393506661
178.757,262.34084377
178.772,262.288033366
178.787,262.235074712
178.802,262.181967063
178.817,262.128709665
178.832,262.075301751
178.847,262.021742558
178.862,261.968031302
178.877,261.914167207
178.892,261.860149465
178.907,261.805977282
178.922,261.751649843
178.937,261.697166331
178.952,261.642525916
178.967,261.587727771
178.982,261.532771036
178.997,261.477654851
179.012,261.422378369
179.027,261.366940706
179.042,261.311340979
179.057,261.255578302
179.072,261.199651765
179.087,261.143560459
179.102,261.087303455
179.117,261.030879831
179.132,260.974288646
179.147,260.917528932
179.16,260.868200124
179.162,260.860599738
179.177,260.803500086
179.192,260.746228994
179.207,260.688785462
179.222,260.63116849
179.237,260.573377057
179.252,260.51541013
179.267,260.45726667
179.282,260.398945629
179.297,260.340445944
179.312,260.281766523
179.327,260.222906296
179.342,260.163864154
179.357,260.104638989
179.372,260.045229673
179.387,259.985635065
179.402,259.925854009
179.417,259.865885352
179.432,259.805727912
179.447,259.745380498
179.462,259.684841903
179.477,259.624110911
179.492,259.563186285
179.507,259.50206678
179.522,259.440751134
179.537,259.379238079
179.552,259.317526309
179.567,259.255614532
179.582,259.193501418
179.597,259.131185633
179.612,259.068665825
179.627,259.005940629
179.642,258.943008652
179.657,258.879868507
179.672,258.816518772
179.687,258.752958006
179.702,258.689184766
179.717,258.625197581
179.732,258.56099497
179.747,258.496575427
179.762,258.431937431
179.777,258.367079445
179.792,258.301999916
179.807,258.236697251
179.822,258.171169871
179.837,258.10541616
179.852,258.039434478
179.867,257.973223182
179.882,257.906780584
179.897,257.840105005
179.91,257.782129716
179.912,257.77319472
179.927,257.706047998
179.942,257.638663086
179.957,257.571038196
179.972,257.50317154
179.987,257.435061291
180.002,257.366705602
180.017,257.2981026
180.032,257.229250412
180.047,257.16014711
180.062,257.090790758
180.077,257.021179398
180.092,256.951311048
180.107,256.881183683
180.122,256.810795276
180.137,256.740143765
180.152,256.669227056
180.167,256.598043033
180.182,256.52658956
180.197,256.45486447
180.212,256.382865554
180.227,256.310590598
180.242,256.238037341
180.257,256.165203505
180.272,256.09208678
180.287,256.018684818
180.302,255.944995242
180.317,255.871015661
180.332,255.796743623
180.347,255.722176682
180.362,255.647312318
180.377,255.572148008
180.392,255.496681185
180.407,255.420909251
180.422,255.344829559
180.437,255.26843945
180.452,255.191736214
180.467,255.114717108
180.482,255.037379357
180.497,254.959720133
180.512,254.881736589
180.527,254.803425825
180.542,254.724784908
180.557,254.645810865
180.56,254.62997582
180.572,254.566500681
180.587,254.486851299
180.602,254.406859617
180.617,254.326522494
180.632,254.245836738
180.647,254.164799127
180.66,254.094279387
180.662,254.083406378
180.677,254.001655176
180.692,253.919542147
180.707,253.837063872
180.722,253.754216892
180.737,253.670997692
180.752,253.58740271
180.767,253.503428321
180.782,253.419070874
180.797,253.33432664
180.812,253.249191849
180.827,253.163662675
180.842,253.07773524
180.857,252.991405604
180.872,252.904669767
180.887,252.817523697
180.902,252.72996327
180.917,252.641984319
180.932,252.553582616
180.947,252.46475387
180.962,252.375493729
180.977,252.28579778
180.992,252.19566154
181.007,252.105080471
181.022,252.014049957
181.037,251.92256533
181.052,251.830621846
181.067,251.738214695
181.082,251.645338991
181.097,251.551989789
181.112,251.458162079
181.127,251.363850751
181.142,251.269050652
181.157,251.173756553
181.172,251.077963133
181.187,250.981665017
181.202,250.884856739
181.217,250.787532772
181.232,250.689687501
181.247,250.591315238
181.262,250.492410221
181.277,250.392966605
181.292,250.29297847
181.307,250.192439815
181.31,250.172265489
181.322,250.091344562
181.337,249.98968655
181.352,249.887459543
181.367,249.784657218
181.382,249.681273175
181.397,249.577300937
181.412,249.472733945
181.427,249.367565543
181.442,249.261789026
181.457,249.155397577
181.472,249.04838432
181.487,248.940742289
181.502,248.832464431
181.517,248.723543632
181.532,248.613972689
181.547,248.50374431
181.562,248.392851141
181.577,248.281285747
181.592,248.169040604
181.607,248.056108136
181.622,247.942480667
181.637,247.828150468
181.652,247.713109711
181.667,247.59735054
181.682,247.480864995
181.697,247.363645049
181.712,247.245682626
181.727,247.126969578
181.742,247.007497693
181.757,246.887258711
181.772,246.76624429
181.787,246.64444606
181.802,246.521855586
181.817,246.398464395
181.832,246.274263951
181.847,246.149245698
181.862,246.023401035
181.877,245.896721327
181.892,245.76919791
181.907,245.640822099
181.922,245.511585199
181.937,245.381478499
181.952,245.250493284
181.967,245.118620842
181.982,244.985852476
181.997,244.852179513
182.012,244.717593299
182.027,244.582085238
182.042,244.445646769
182.057,244.308269396
182.06,244.280680516
182.072,244.169944716
182.087,244.030664409
182.102,243.890420256
182.117,243.749204179
182.132,243.607008231
182.147,243.463824652
182.162,243.319645856
182.177,243.174464468
182.192,243.028273376
182.207,242.881065708
182.222,242.732834931
182.237,242.583574833
182.252,242.433279583
182.267,242.281943766
182.282,242.129562446
182.297,241.976131195
182.312,241.821646156
182.327,241.666104101
182.342,241.509502488
182.357,241.351839552
182.372,241.193114352
182.387,241.033326857
182.402,240.872478052
182.417,240.710570013
182.432,240.547606015
182.447,240.383590636
182.462,240.218529882
182.477,240.05243131
182.492,239.885304152
182.507,239.717159479
182.522,239.54801033
182.537,239.377871908
182.552,239.206761726
182.567,239.034699795
182.582,238.861708837
182.597,238.687814494
182.612,238.51304552
182.627,238.337434032
182.642,238.161015748
182.657,237.983830239
182.672,237.805921188
182.687,237.627336643
182.702,237.448129319
182.717,237.268356861
182.732,237.088082124
182.747,236.907373462
182.762,236.726304999
182.777,236.544956905
182.792,236.363415598
182.807,236.181774035
182.822,236.000131853
182.837,235.818595505
182.852,235.637278379
182.867,235.456300736
182.882,235.275789664
182.897,235.095878795
182.912,234.916707919
182.927,234.73842239
182.942,234.561172227
182.957,234.385110925
182.972,234.210393833
182.987,234.037176021
183.002,233.865609497
183.017,233.695839545
183.032,233.528000077
183.047,233.36220758
183.062,233.198553395
183.077,233.03709384
183.092,232.877837577
183.107,232.720729772
183.122,232.565632272
183.137,232.412299605
183.152,232.260351505
183.167,232.10924476
183.182,231.958253279
183.197,231.806477839
183.212,231.652935966
183.227,231.496843754
183.242,231.338321498
183.257,231.179936407
183.367,231.20637233
183.382,231.361832489
183.397,231.516449991
183.412,231.668486659
183.427,231.818153569
183.442,231.966328461
183.457,232.113988464
183.472,232.261992657
183.487,232.411019701
183.502,232.561568828
183.517,232.713983124
183.532,232.868478025
183.547,233.02516808
183.562,233.184089858
183.577,233.345220755
183.592,233.508493938
183.607,233.673810266
183.622,233.841047539
183.637,234.010067791
183.652,234.180722924
183.667,234.352859159
183.682,234.526320372
183.697,234.700950767
183.712,234.876596847
183.727,235.05310892
183.742,235.230342222
183.757,235.408157706
183.772,235.586422627
183.787,235.765010866
183.802,235.943803158
183.817,236.122687161
183.832,236.301557444
183.847,236.480315377
183.862,236.658869011
183.877,236.837132848
183.892,237.015027643
183.907,237.192480126
183.922,237.369422756
183.937,237.545793433
183.952,237.721535217
183.967,237.896596068
183.982,238.070928525
183.997,238.244489474
184.012,238.417239867
184.027,238.58914446
184.042,238.760171561
184.057,238.930292806
184.072,239.099482923
184.087,239.267719519
184.102,239.434982864
184.117,239.601255708
184.132,239.766523111
184.147,239.930772237
184.162,240.093992213
184.177,240.256173973
184.192,240.417310125
184.207,240.577394803
184.222,240.736423545
184.237,240.894393189
184.252,241.051301759
184.267,241.207148365
184.282,241.361933095
184.297,241.515656962
184.312,241.66832179
184.327,241.819930168
184.342,241.970485368
184.357,242.119991271
184.372,242.268452339
184.387,242.415873526
184.402,242.562260264
184.417,242.707618388
184.432,242.851954103
184.447,242.995273967
184.462,243.13758482
184.477,243.278893775
184.492,243.419208189
184.507,243.558535613
184.522,243.696883799
184.537,243.83426066
184.552,243.970674236
184.56,244.043037083
184.567,244.106132704
184.582,244.240644342
184.597,244.374217509
184.612,244.506860652
184.627,244.638582272
184.642,244.769390913
184.657,244.899295156
184.672,245.028303625
184.687,245.156424938
184.702,245.283667738
184.717,245.410040664
184.732,245.535552343
184.747,245.660211403
184.762,245.78402644
184.777,245.90700603
184.792,246.02915872
184.807,246.150493021
184.822,246.271017402
184.837,246.390740302
184.852,246.5096701
184.867,246.627815134
184.882,246.745183679
184.897,246.861783978
184.912,246.977624187
184.927,247.092712422
184.942,247.207056727
184.957,247.320665092
184.972,247.433545433
184.987,247.545705587
185.002,247.657153355
185.017,247.767896436
185.032,247.87794247
185.047,247.987299026
185.062,248.095973592
185.077,248.203973589
185.092,248.311306356
185.107,248.417979161
185.122,248.523999193
185.137,248.629373569
185.152,248.734109314
185.167,248.838213393
185.182,248.941692678
185.197,249.04455397
185.212,249.146803991
185.227,249.248449381
185.242,249.349496705
185.257,249.449952444
185.272,249.549823004
185.287,249.649114713
185.302,249.747833812
185.31,249.800252004
185.317,249.845986481
185.332,249.943578808
185.347,250.0406168
185.362,250.137106404
185.377,250.233053476
185.392,250.328463797
185.407,250.423343079
185.422,250.517696943
185.437,250.611530967
185.452,250.704850614
185.467,250.797661297
185.482,250.889968363
185.497,250.981777064
185.512,251.073092587
185.527,251.163920067
185.542,251.254264539
185.557,251.344130995
185.572,251.433524341
185.587,251.522449419
185.602,251.610911005
185.617,251.698913807
185.632,251.786462474
185.647,251.873561576
185.662,251.960215628
185.677,252.04642909
185.692,252.132206334
185.707,252.217551691
185.722,252.30246944
185.737,252.386963764
185.752,252.471038829
185.767,252.55469871
185.782,252.637947433
185.797,252.720788987
185.812,252.803227272
185.827,252.885266158
185.842,252.966909457
185.857,253.048160911
185.872,253.129024231
185.887,253.209503064
185.902,253.289601006
185.917,253.369321612
185.932,253.448668375
185.947,253.527644748
185.96,253.595793966
185.962,253.606254135
185.977,253.684499887
185.992,253.76238532
186.007,253.839913685
186.022,253.917088215
186.037,253.993912076
186.052,254.0703884
186.06,254.111034736
186.067,254.146520277
186.082,254.222310751
186.097,254.297762831
186.112,254.372879478
186.127,254.447663609
186.142,254.522118125
186.157,254.596245862
186.172,254.67004963
186.187,254.743532201
186.202,254.816696305
186.217,254.889544648
186.232,254.962079882
186.247,255.034304641
186.262,255.106221512
186.277,255.177833058
186.292,255.249141814
186.307,255.320150255
186.322,255.390860849
186.337,255.461276025
186.352,255.53139818
186.367,255.601229682
186.382,255.670772864
186.397,255.740030037
186.412,255.809003477
186.427,255.877695433
186.442,255.946108121
186.457,256.014243742
186.472,256.08210445
186.487,256.149692392
186.502,256.217009672
186.517,256.284058383
186.532,256.350840576
186.547,256.417358292
186.562,256.483613537
186.577,256.549608289
186.592,256.615344522
186.607,256.680824156
186.622,256.746049117
186.637,256.811021284
186.652,256.875742534
186.667,256.940214699
186.682,257.004439611
186.697,257.068419061
186.71,257.123670751
186.712,257.132154837
186.727,257.195648689
186.742,257.258902362
186.757,257.321917562
186.772,257.384695989
186.787,257.447239318
186.802,257.509549212
186.817,257.571627298
186.832,257.633475199
186.847,257.695094512
186.862,257.756486821
186.877,257.817653674
186.892,257.878596634
186.907,257.939317216
186.922,257.999816926
186.937,258.060097266
186.952,258.120159698
186.967,258.180005687
186.982,258.239636669
186.997,258.299054076
187.012,258.358259301
187.027,258.417253759
187.042,258.476038809
187.057,258.534615816
187.072,258.592986123
187.087,258.651151068
187.102,258.709111962
187.117,258.766870109
187.132,258.824426796
187.147,258.881783295
187.162,258.938940852
187.177,258.995900734
187.192,259.05266416
187.207,259.109232346
187.222,259.165606498
187.237,259.221787808
187.252,259.277777454
187.267,259.333576598
187.282,259.3891864
187.297,259.444607996
187.312,259.499842514
187.327,259.55489106
187.342,259.609754756
187.357,259.664434679
187.372,259.718931919
187.387,259.773247537
187.402,259.8273826
187.417,259.881338141
187.432,259.935115207
187.447,259.988714818
187.46,260.035025056
187.462,260.04213799
187.477,260.095385716
187.492,260.148459006
187.507,260.201358822
187.522,260.254086151
187.537,260.306641947
187.552,260.359027164
187.567,260.411242746
187.582,260.463289625
187.597,260.515168719
187.612,260.566880947
187.627,260.618427213
187.642,260.669808406
187.657,260.721025416
187.672,260.772079124
187.687,260.822970389
187.702,260.873700073
187.717,260.924269031
187.732,260.974678104
187.747,261.024928115
187.762,261.075019909
187.777,261.124954288
187.792,261.174732063
187.807,261.224354042
187.822,261.273821014
187.837,261.323133765
187.852,261.372293071
187.867,261.421299705
187.882,261.470154435
187.897,261.518858003
187.912,261.567411168
187.927,261.615814671
187.942,261.664069241
187.957,261.712175605
187.972,261.760134488
187.987,261.807946603
188.002,261.855612643
188.017,261.903133327
188.032,261.950509344
188.047,261.997741373
188.062,262.044830099
188.077,262.09177619
188.092,262.138580331
188.107,262.185243169
188.122,262.231765352
188.137,262.278147552
188.152,262.324390398
188.167,262.37049454
188.182,262.416460588
188.197,262.462289191
188.21,262.501896609
188.212,262.507980958
188.227,262.553536508
188.242,262.598956448
188.257,262.644241385
188.272,262.689391915
188.287,262.734408639
188.302,262.779292136
188.317,262.824042996
188.332,262.868661792
188.347,262.913149107
188.362,262.9575055
188.377,263.001731537
188.392,263.045827773
188.407,263.089794772
188.422,263.133633075
188.437,263.177343225
188.452,263.220925774
188.467,263.264381241
188.482,263.30771017
188.497,263.350913083
188.512,263.393990495
188.527,263.436942936
188.542,263.479770912
188.557,263.522474938
188.572,263.565055508
188.587,263.607513136
188.602,263.649848313
188.617,263.692061534
188.632,263.734153289
188.647,263.776124056
188.66,263.812401231
188.662,263.817974327
188.677,263.859704573
188.692,263.901315264
188.707,263.942806884
188.722,263.984179888
188.737,264.025434741
