# 48698 WSSS Singapore Observations at 12Z 07 Dec 2019
Frequency [GHz],TB
175.31,274.040283392
175.322,274.020160434
175.337,273.994946271
175.352,273.969664672
175.367,273.944315371
175.382,273.918898094
175.397,273.89341257
175.412,273.867858523
175.427,273.842235677
175.442,273.816543755
175.457,273.790782476
175.472,273.764951559
175.487,273.73905072
175.502,273.713079674
175.517,273.687038134
175.532,273.660925811
175.547,273.634742414
175.562,273.608487651
175.577,273.582161227
175.592,273.555762846
175.607,273.529292209
175.622,273.502749016
175.637,273.476132965
175.652,273.449443752
175.667,273.42268107
175.682,273.395844612
175.697,273.368934068
175.712,273.341949125
175.727,273.314889469
175.742,273.287754785
175.757,273.260544753
175.772,273.233259054
175.787,273.205897365
175.802,273.178459361
175.817,273.150944716
175.832,273.123353102
175.847,273.095684186
175.862,273.067937636
175.877,273.040113117
175.892,273.012210291
175.907,272.984228818
175.922,272.956168356
175.937,272.92802856
175.952,272.899809085
175.967,272.871509581
175.982,272.843129697
175.997,272.814669079
176.012,272.786127371
176.027,272.757504215
176.042,272.72879925
176.057,272.700012113
176.072,272.671142438
176.087,272.642189858
176.102,272.613154
176.117,272.584034494
176.132,272.554830961
176.147,272.525543026
176.162,272.496170306
176.177,272.466712419
176.192,272.437168978
176.207,272.407539595
176.222,272.377823878
176.237,272.348021434
176.252,272.318131866
176.267,272.288154775
176.282,272.258089757
176.297,272.22793641
176.31,272.201731744
176.312,272.197694324
176.327,272.167363089
176.342,272.136942292
176.357,272.106431516
176.372,272.075830343
176.387,272.04513835
176.402,272.014355112
176.417,271.983480201
176.432,271.952513186
176.447,271.921453634
176.46,271.894460164
176.462,271.890301106
176.477,271.859055163
176.492,271.827715362
176.507,271.796281255
176.522,271.764752394
176.537,271.733128325
176.552,271.701408593
176.567,271.669592738
176.582,271.637680297
176.597,271.605670806
176.612,271.573563794
176.627,271.541358789
176.642,271.509055315
176.657,271.476652892
176.672,271.444151038
176.687,271.411549266
176.702,271.378847087
176.717,271.346044006
176.732,271.313139527
176.747,271.280133149
176.762,271.247024368
176.777,271.213812675
176.792,271.180497559
176.807,271.147078504
176.822,271.113554992
176.837,271.079926498
176.852,271.046192495
176.867,271.012352454
176.882,270.978405838
176.897,270.944352109
176.912,270.910190724
176.927,270.875921136
176.942,270.841542794
176.957,270.807055143
176.972,270.772457624
176.987,270.737749673
177.002,270.702930721
177.017,270.668000198
177.032,270.632957526
177.047,270.597802126
177.062,270.562533411
177.077,270.527150792
177.092,270.491653674
177.107,270.45604146
177.122,270.420313546
177.137,270.384469324
177.152,270.348508181
177.167,270.3124295
177.182,270.276232659
177.197,270.239917031
177.21,270.208346914
177.212,270.203481985
177.227,270.166926884
177.242,270.130251086
177.257,270.093453944
177.272,270.056534808
177.287,270.019493021
177.302,269.98232792
177.31,269.962455881
177.317,269.945038838
177.332,269.907625104
177.347,269.87008604
177.362,269.832420963
177.377,269.794629185
177.392,269.756710011
177.407,269.718662744
177.422,269.680486678
177.437,269.642181102
177.452,269.603745301
177.467,269.565178553
177.482,269.526480131
177.497,269.487649301
177.512,269.448685324
177.527,269.409587456
177.542,269.370354944
177.557,269.330987032
177.572,269.291482957
177.587,269.251841949
177.602,269.212063233
177.617,269.172146027
177.632,269.132089542
177.647,269.091892985
177.66,269.056942045
177.662,269.051555553
177.677,269.011076439
177.692,268.97045483
177.707,268.929689905
177.722,268.888780835
177.737,268.847726787
177.752,268.806526919
177.767,268.765180384
177.782,268.723686326
177.797,268.682043884
177.812,268.640252189
177.827,268.598310364
177.842,268.556217525
177.857,268.513972783
177.872,268.471575239
177.887,268.429023987
177.902,268.386318115
177.917,268.343456701
177.932,268.300438818
177.947,268.25726353
177.96,268.219716894
177.962,268.213929893
177.977,268.170436955
177.992,268.126783758
178.007,268.082969333
178.022,268.038992705
178.037,267.994852891
178.052,267.950548899
178.067,267.906079729
178.082,267.861444372
178.097,267.816641812
178.112,267.771671023
178.127,267.726530971
178.142,267.681220614
178.157,267.6357389
178.172,267.59008477
178.187,267.544257155
178.202,267.498254977
178.217,267.452077148
178.232,267.405722574
178.247,267.359190148
178.262,267.312478757
178.277,267.265587277
178.292,267.218514574
178.307,267.171259507
178.322,267.123820922
178.337,267.076197659
178.352,267.028388545
178.367,266.980392399
178.382,266.932208031
178.397,266.883834239
178.41,266.841756127
178.412,266.835269811
178.427,266.786513527
178.442,266.737564156
178.457,266.688420454
178.472,266.639081171
178.487,266.589545043
178.502,266.539810799
178.517,266.489877153
178.532,266.439742812
178.547,266.38940647
178.562,266.338866813
178.577,266.288122512
178.592,266.237172231
178.607,266.18601462
178.622,266.134648319
178.637,266.083071958
178.652,266.031284152
178.667,265.97928351
178.682,265.927068624
178.697,265.874638079
178.712,265.821990445
178.727,265.769124283
178.742,265.716038139
178.757,265.662730551
178.772,265.609200042
178.787,265.555445124
178.802,265.501464298
178.817,265.447256051
178.832,265.392818858
178.847,265.338151183
178.862,265.283251476
178.877,265.228118177
178.892,265.17274971
178.907,265.117144489
178.922,265.061300914
178.937,265.005217373
178.952,264.94889224
178.967,264.892323877
178.982,264.835510634
178.997,264.778450846
179.012,264.721142835
179.027,264.663584911
179.042,264.60577537
179.057,264.547712495
179.072,264.489394555
179.087,264.430819806
179.102,264.37198649
179.117,264.312892836
179.132,264.253537059
179.147,264.19391736
179.16,264.14203207
179.162,264.134031926
179.177,264.073878932
179.192,264.013456536
179.207,263.952762884
179.222,263.891796108
179.237,263.830554326
179.252,263.76903564
179.267,263.70723814
179.282,263.645159901
179.297,263.582798983
179.312,263.520153432
179.327,263.457221279
179.342,263.394000544
179.357,263.330489227
179.372,263.266685318
179.387,263.202586789
179.402,263.138191601
179.417,263.073497697
179.432,263.008503007
179.447,262.943205446
179.462,262.877602914
179.477,262.811693298
179.492,262.745474466
179.507,262.678944276
179.522,262.612100568
179.537,262.544941169
179.552,262.477463889
179.567,262.409666526
179.582,262.34154686
179.597,262.273102659
179.612,262.204331674
179.627,262.135231642
179.642,262.065800286
179.657,261.996035312
179.672,261.925934412
179.687,261.855495266
179.702,261.784715535
179.717,261.713592867
179.732,261.642124896
179.747,261.570309242
179.762,261.498143507
179.777,261.425625281
179.792,261.35275214
179.807,261.279521645
179.822,261.205931341
179.837,261.131978762
179.852,261.057661424
179.867,260.982976831
179.882,260.907922475
179.897,260.832495829
179.91,260.766822969
179.912,260.756694358
179.927,260.680515509
179.942,260.603956718
179.957,260.527015406
179.972,260.449688983
179.987,260.371974844
180.002,260.293870372
180.017,260.215372938
180.032,260.136479899
180.047,260.0571886
180.062,259.977496376
180.077,259.897400549
180.092,259.816898429
180.107,259.735987316
180.122,259.654664497
180.137,259.572927251
180.152,259.490772844
180.167,259.408198535
180.182,259.325201572
180.197,259.241779192
180.212,259.157928625
180.227,259.073647093
180.242,258.988931809
180.257,258.903779977
180.272,258.818188798
180.287,258.732155461
180.302,258.645677152
180.317,258.558751052
180.332,258.471374334
180.347,258.38354417
180.362,258.295257725
180.377,258.206512162
180.392,258.117304641
180.407,258.027632322
180.422,257.93749236
180.437,257.846881912
180.452,257.755798136
180.467,257.664238188
180.482,257.572199229
180.497,257.47967842
180.512,257.386672928
180.527,257.293179923
180.542,257.199196581
180.557,257.104720083
180.56,257.085765358
180.572,257.00974762
180.587,256.91427639
180.602,256.818303601
180.617,256.721826471
180.632,256.624842231
180.647,256.527348124
180.66,256.442438685
180.662,256.429341408
180.677,256.330819356
180.692,256.231779259
180.707,256.132218425
180.722,256.032134183
180.737,255.931523882
180.752,255.830384894
180.767,255.728714614
180.782,255.626510464
180.797,255.523769893
180.812,255.420490378
180.827,255.316669427
180.842,255.21230458
180.857,255.107393411
180.872,255.001933528
180.887,254.89592258
180.902,254.789358252
180.917,254.68223827
180.932,254.574560406
180.947,254.466322474
180.962,254.357522335
180.977,254.248157902
180.992,254.138227134
181.007,254.027728046
181.022,253.916658707
181.037,253.805017243
181.052,253.692801839
181.067,253.580010739
181.082,253.466642254
181.097,253.352694756
181.112,253.238166687
181.127,253.123056556
181.142,253.007362945
181.157,252.891084508
181.172,252.774219974
181.187,252.65676815
181.202,252.538727922
181.217,252.420098256
181.232,252.300878201
181.247,252.181066892
181.262,252.060663547
181.277,251.939667476
181.292,251.818078074
181.307,251.695894829
181.31,251.671386881
181.322,251.573117322
181.337,251.449745226
181.352,251.325778308
181.367,251.201216431
181.382,251.076059557
181.397,250.950307741
181.412,250.823961137
181.427,250.697019999
181.442,250.569484678
181.457,250.441355622
181.472,250.31263338
181.487,250.183318597
181.502,250.053412014
181.517,249.922914473
181.532,249.791826907
181.547,249.660150345
181.562,249.527885908
181.577,249.39503481
181.592,249.261598351
181.607,249.127577919
181.622,248.992974985
181.637,248.857791102
181.652,248.722027902
181.667,248.585687087
181.682,248.448770434
181.697,248.311279786
181.712,248.173217045
181.727,248.034584175
181.742,247.89538319
181.757,247.755616154
181.772,247.61528517
181.787,247.474392383
181.802,247.332939965
181.817,247.190930115
181.832,247.048365051
181.847,246.905247006
181.862,246.761578217
181.877,246.617360925
181.892,246.472597363
181.907,246.327289755
181.922,246.181440307
181.937,246.035051203
181.952,245.888124597
181.967,245.740662614
181.982,245.592667337
181.997,245.444140813
182.012,245.295085041
182.027,245.145501978
182.042,244.995393529
182.057,244.844761555
182.06,244.814572498
182.072,244.693607871
182.087,244.541934247
182.102,244.389742415
182.117,244.237034073
182.132,244.083810896
182.147,243.930074543
182.162,243.775826672
182.177,243.621068955
182.192,243.465803097
182.207,243.310030856
182.222,243.15375407
182.237,242.996974686
182.252,242.839694791
182.267,242.681916652
182.282,242.523642755
182.297,242.364875859
182.312,242.205619038
182.327,242.04587575
182.342,241.885649896
182.357,241.724945892
182.372,241.563768749
182.387,241.402124158
182.402,241.240018581
182.417,241.077459357
182.432,240.914454811
182.447,240.751014373
182.462,240.587148706
182.477,240.422869849
182.492,240.258191367
182.507,240.093128509
182.522,239.927698381
182.537,239.761920135
182.552,239.595815162
182.567,239.429407304
182.582,239.262723078
182.597,239.095791912
182.612,238.9286464
182.627,238.761322564
182.642,238.593860139
182.657,238.426302872
182.672,238.258698827
182.687,238.091100722
182.702,237.923566271
182.717,237.756158542
182.732,237.588946339
182.747,237.422004595
182.762,237.255414777
182.777,237.089265319
182.792,236.923652058
182.807,236.758678694
182.822,236.59445726
182.837,236.431108609
182.852,236.268762913
182.867,236.107560177
182.882,235.947650759
182.897,235.789195913
182.912,235.632368327
182.927,235.477352679
182.942,235.324346201
182.957,235.173559236
182.972,235.025215807
182.987,234.87955417
183.002,234.73682736
183.017,234.597303702
183.032,234.461267283
183.047,234.329018339
183.062,234.200873545
183.077,234.077166117
183.092,233.958245696
183.107,233.844477878
183.122,233.736243295
183.137,233.633936092
183.152,233.537961623
183.167,233.448733184
183.182,233.366667618
183.197,233.292179613
183.212,233.225674652
183.227,233.16754063
183.242,233.118138343
183.257,233.077791234
183.367,233.075072541
183.382,233.114576747
183.397,233.163069002
183.412,233.220217042
183.427,233.285653617
183.442,233.358986592
183.457,233.439808207
183.472,233.52770315
183.487,233.622255285
183.502,233.723053025
183.517,233.829693459
183.532,233.941785379
183.547,234.058951386
183.562,234.180829272
183.577,234.307072829
183.592,234.437352232
183.607,234.571354113
183.622,234.708781412
183.637,234.849353074
183.652,234.992803644
183.667,235.138882794
183.682,235.287354804
183.697,235.437998027
183.712,235.590604329
183.727,235.744978535
183.742,235.900937871
183.757,236.058311405
183.772,236.216939502
183.787,236.376673288
183.802,236.537374113
183.817,236.698913039
183.832,236.861170332
183.847,237.024034968
183.862,237.187404153
183.877,237.351182862
183.892,237.515283381
183.907,237.679624878
183.922,237.844132984
183.937,238.008739384
183.952,238.173381437
183.967,238.338001797
183.982,238.502548066
183.997,238.66697245
184.012,238.831231438
184.027,238.995285495
184.042,239.15909877
184.057,239.322638822
184.072,239.485876354
184.087,239.648784969
184.102,239.81134094
184.117,239.973522982
184.132,240.135312055
184.147,240.296691164
184.162,240.457645181
184.177,240.618160674
184.192,240.77822575
184.207,240.937829904
184.222,241.096963887
184.237,241.255619572
184.252,241.413789843
184.267,241.57146848
184.282,241.72865006
184.297,241.885329867
184.312,242.041503802
184.327,242.19716831
184.342,242.352320303
184.357,242.506957103
184.372,242.661076376
184.387,242.814676083
184.402,242.967754429
184.417,243.120309824
184.432,243.272340842
184.447,243.423846187
184.462,243.574824664
184.477,243.725275151
184.492,243.875196578
184.507,244.024587907
184.522,244.173448112
184.537,244.32177617
184.552,244.469571043
184.56,244.548176599
184.567,244.616831675
184.582,244.763556978
184.597,244.909745831
184.612,245.055397073
184.627,245.200509502
184.642,245.345081872
184.657,245.489112894
184.672,245.632601237
184.687,245.775545528
184.702,245.917944355
184.717,246.059796273
184.732,246.201099803
184.747,246.341853439
184.762,246.482055651
184.777,246.621704893
184.792,246.760799602
184.807,246.899338211
184.822,247.037319146
184.837,247.174740839
184.852,247.311601727
184.867,247.447900263
184.882,247.583634916
184.897,247.718804181
184.912,247.853406578
184.927,247.987440665
184.942,248.120905034
184.957,248.253798323
184.972,248.386119215
184.987,248.517866444
185.002,248.6490388
185.017,248.77963513
185.032,248.909654344
185.047,249.039095416
185.062,249.167957389
185.077,249.296239374
185.092,249.423940558
185.107,249.5510602
185.122,249.677597636
185.137,249.803552282
185.152,249.928923634
185.167,250.053711266
185.182,250.177914837
185.197,250.301534089
185.212,250.424568844
185.227,250.547019012
185.242,250.668884585
185.257,250.79016564
185.272,250.910862335
185.287,251.030974917
185.302,251.150503713
185.31,251.214013838
185.317,251.269449132
185.332,251.387811669
185.347,251.505591895
185.362,251.622790467
185.377,251.739408117
185.392,251.855445658
185.407,251.970903978
185.422,252.085784044
185.437,252.200086895
185.452,252.313813642
185.467,252.426965471
185.482,252.539543636
185.497,252.651549459
185.512,252.76298433
185.527,252.873849703
185.542,252.984147098
185.557,253.093878093
185.572,253.20304433
185.587,253.311647506
185.602,253.419689377
185.617,253.527171751
185.632,253.634096492
185.647,253.740465514
185.662,253.846280779
185.677,253.951544299
185.692,254.056258131
185.707,254.160424375
185.722,254.264045174
185.737,254.367122714
185.752,254.469659217
185.767,254.571656943
185.782,254.673118188
185.797,254.774045283
185.812,254.87444059
185.827,254.974306503
185.842,255.073645443
185.857,255.172459863
185.872,255.270752237
185.887,255.368525069
185.902,255.465780883
185.917,255.562522225
185.932,255.658751663
185.947,255.754471785
185.96,255.837019255
185.962,255.849685194
185.977,255.944394513
185.992,256.038602377
186.007,256.132311439
186.022,256.225524363
186.037,256.318243824
186.052,256.410472511
186.06,256.459461401
186.067,256.502213118
186.082,256.593468353
186.097,256.684240927
186.112,256.774533561
186.127,256.864348981
186.142,256.953689917
186.157,257.042559103
186.172,257.130959277
186.187,257.218893178
186.202,257.306363548
186.217,257.393373129
186.232,257.479924662
186.247,257.566020889
186.262,257.651664548
186.277,257.736858378
186.292,257.821605113
186.307,257.905907485
186.322,257.98976822
186.337,258.073190041
186.352,258.156175666
186.367,258.238727807
186.382,258.32084917
186.397,258.402542453
186.412,258.483810349
186.427,258.564655543
186.442,258.645080712
186.457,258.725088523
186.472,258.804681636
186.487,258.883862703
186.502,258.962634363
186.517,259.040999249
186.532,259.118959981
186.547,259.196519171
186.562,259.273679419
186.577,259.350443314
186.592,259.426813434
186.607,259.502792347
186.622,259.578382606
186.637,259.653586756
186.652,259.728407327
186.667,259.802846838
186.682,259.876907795
186.697,259.950592693
186.71,260.014150665
186.712,260.023904011
186.727,260.096844219
186.742,260.16941577
186.757,260.241621108
186.772,260.313462659
186.787,260.384942839
186.802,260.45606405
186.817,260.526828678
186.832,260.597239099
186.847,260.667297672
186.862,260.737006744
186.877,260.806368648
186.892,260.8753857
186.907,260.944060207
186.922,261.012394457
186.937,261.080390728
186.952,261.148051281
186.967,261.215378363
186.982,261.282374209
186.997,261.349041037
187.012,261.415381052
187.027,261.481396445
187.042,261.547089392
187.057,261.612462055
187.072,261.677516582
187.087,261.742255106
187.102,261.806679746
187.117,261.870792608
187.132,261.934595781
187.147,261.998091342
187.162,262.061281354
187.177,262.124167863
187.192,262.186752905
187.207,262.249038498
187.222,262.311026648
187.237,262.372719346
187.252,262.434118571
187.267,262.495226285
187.282,262.556044438
187.297,262.616574965
187.312,262.676819788
187.327,262.736780815
187.342,262.79645994
187.357,262.855859044
187.372,262.914979992
187.387,262.973824639
187.402,263.032394824
187.417,263.090692372
187.432,263.148719097
187.447,263.206476798
187.46,263.256317241
187.462,263.26396726
187.477,263.321192256
187.492,263.378153545
187.507,263.434852874
187.522,263.491291976
187.537,263.547472571
187.552,263.603396366
187.567,263.659065056
187.582,263.714480321
187.597,263.769643832
187.612,263.824557243
187.627,263.879222198
187.642,263.933640328
187.657,263.987813253
187.672,264.041742576
187.687,264.095429893
187.702,264.148876784
187.717,264.20208482
187.732,264.255055556
187.747,264.307790539
187.762,264.3602913
187.777,264.412559363
187.792,264.464596234
187.807,264.516403414
187.822,264.567982386
187.837,264.619334626
187.852,264.670461597
187.867,264.721364749
187.882,264.772045523
187.897,264.822505347
187.912,264.872745639
187.927,264.922767805
187.942,264.972573241
187.957,265.02216333
187.972,265.071539445
187.987,265.120702949
188.002,265.169655195
188.017,265.218397521
188.032,265.26693126
188.047,265.315257729
188.062,265.36337824
188.077,265.41129409
188.092,265.459006568
188.107,265.506516952
188.122,265.553826511
188.137,265.600936502
188.152,265.647848172
188.167,265.694562761
188.182,265.741081496
188.197,265.787405595
188.21,265.827396644
188.212,265.833536267
188.227,265.879474711
188.242,265.925222116
188.257,265.970779661
188.272,266.016148517
188.287,266.061329845
188.302,266.106324796
188.317,266.151134513
188.332,266.19576013
188.347,266.240202769
188.362,266.284463547
188.377,266.328543569
188.392,266.372443933
188.407,266.416165728
188.422,266.459710033
188.437,266.503077919
188.452,266.546270449
188.467,266.589288678
188.482,266.632133649
188.497,266.674806402
188.512,266.717307964
188.527,266.759639357
188.542,266.801801592
188.557,266.843795675
188.572,266.885622601
188.587,266.92728336
188.602,266.968778931
188.617,267.010110286
188.632,267.051278392
188.647,267.092284206
188.66,267.127692034
188.662,267.133128675
188.677,267.173812744
188.692,267.214337345
188.707,267.254703407
188.722,267.294911848
