# 78954 TBPB Grantley Adams Observations at 12Z 07 Dec 2019
Frequency [GHz],TB
175.31,284.055327413
175.322,284.043876963
175.337,284.029532121
175.352,284.01515194
175.367,284.000736387
175.382,283.986285431
175.397,283.971799038
175.412,283.957277173
175.427,283.9427198
175.442,283.928126883
175.457,283.913498384
175.472,283.898834263
175.487,283.88413448
175.502,283.869398993
175.517,283.854627759
175.532,283.839820734
175.547,283.824977874
175.562,283.81009913
175.577,283.795184456
175.592,283.780233801
175.607,283.765247116
175.622,283.750224349
175.637,283.735165445
175.652,283.720070351
175.667,283.70493901
175.682,283.689771365
175.697,283.674567356
175.712,283.659326923
175.727,283.644050005
175.742,283.628736537
175.757,283.613386454
175.772,283.59799969
175.787,283.582576177
175.802,283.567115845
175.817,283.551618622
175.832,283.536084437
175.847,283.520513212
175.862,283.504904874
175.877,283.489259342
175.892,283.473576539
175.907,283.457856381
175.922,283.442098787
175.937,283.42630367
175.952,283.410470943
175.967,283.39460052
175.982,283.378692307
175.997,283.362746214
176.012,283.346762146
176.027,283.330740006
176.042,283.314679696
176.057,283.298581117
176.072,283.282444165
176.087,283.266268738
176.102,283.250054728
176.117,283.233802027
176.132,283.217510525
176.147,283.20118011
176.162,283.184810667
176.177,283.168402079
176.192,283.151954227
176.207,283.13546699
176.222,283.118940245
176.237,283.102373866
176.252,283.085767725
176.267,283.069121692
176.282,283.052435634
176.297,283.035709417
176.31,283.021180771
176.312,283.018942903
176.327,283.002135952
176.342,282.985288422
176.357,282.96840017
176.372,282.951471047
176.387,282.934500903
176.402,282.917489588
176.417,282.900436945
176.432,282.883342818
176.447,282.866207047
176.46,282.851322234
176.462,282.849029469
176.477,282.831809918
176.492,282.814548227
176.507,282.797244225
176.522,282.779897738
176.537,282.76250859
176.552,282.745076601
176.567,282.727601591
176.582,282.710083372
176.597,282.692521759
176.612,282.674916559
176.627,282.65726758
176.642,282.639574623
176.657,282.62183749
176.672,282.604055977
176.687,282.586229878
176.702,282.568358983
176.717,282.550443082
176.732,282.532481957
176.747,282.514475389
176.762,282.496423158
176.777,282.478325036
176.792,282.460180795
176.807,282.441990204
176.822,282.423753025
176.837,282.405469021
176.852,282.387137948
176.867,282.36875956
176.882,282.350333608
176.897,282.331859838
176.912,282.313337993
176.927,282.294767813
176.942,282.276149032
176.957,282.257481383
176.972,282.238764594
176.987,282.21999839
177.002,282.201182489
177.017,282.18231661
177.032,282.163400463
177.047,282.144433758
177.062,282.125416199
177.077,282.106347486
177.092,282.087227316
177.107,282.06805538
177.122,282.048831366
177.137,282.029554957
177.152,282.010225834
177.167,281.99084367
177.182,281.971408136
177.197,281.951918898
177.21,281.934984523
177.212,281.932375617
177.227,281.912777951
177.242,281.893125552
177.257,281.873418068
177.272,281.853655141
177.287,281.833836409
177.302,281.813961507
177.31,281.803338464
177.317,281.794030064
177.332,281.774041702
177.347,281.75399604
177.362,281.733892693
177.377,281.71373127
177.392,281.693511373
177.407,281.673232602
177.422,281.65289455
177.437,281.632496805
177.452,281.612038949
177.467,281.59152056
177.482,281.570941211
177.497,281.550300466
177.512,281.529597888
177.527,281.508833031
177.542,281.488005445
177.557,281.467114673
177.572,281.446160255
177.587,281.425141721
177.602,281.404058598
177.617,281.382910407
177.632,281.361696661
177.647,281.340416869
177.66,281.321920573
177.662,281.319070532
177.677,281.297657146
177.692,281.276176199
177.707,281.254627176
177.722,281.233009552
177.737,281.211322798
177.752,281.189566375
177.767,281.167739742
177.782,281.145842347
177.797,281.123873634
177.812,281.101833038
177.827,281.079719989
177.842,281.057533908
177.857,281.035274211
177.872,281.012940305
177.887,280.99053159
177.902,280.968047459
177.917,280.945487298
177.932,280.922850484
177.947,280.900136388
177.96,280.880387832
177.962,280.877344372
177.977,280.854473791
177.992,280.831523991
178.007,280.808494313
178.022,280.785384085
178.037,280.762192632
178.052,280.738919266
178.067,280.715563295
178.082,280.692124015
178.097,280.668600716
178.112,280.644992677
178.127,280.621299171
178.142,280.597519461
178.157,280.573652799
178.172,280.549698432
178.187,280.525655593
178.202,280.50152351
178.217,280.4773014
178.232,280.452988471
178.247,280.42858392
178.262,280.404086935
178.277,280.379496695
178.292,280.354812369
178.307,280.330033115
178.322,280.305158081
178.337,280.280186407
178.352,280.255117219
178.367,280.229949635
178.382,280.204682761
178.397,280.179315695
178.41,280.157249151
178.412,280.153847519
178.427,280.12827731
178.442,280.102604129
178.457,280.076827029
178.472,280.05094505
178.487,280.02495722
178.502,279.998862558
178.517,279.972660068
178.532,279.946348744
178.547,279.919927568
178.562,279.893395508
178.577,279.866751522
178.592,279.839994554
178.607,279.813123536
178.622,279.786137388
178.637,279.759035014
178.652,279.731815309
178.667,279.704477151
178.682,279.677019409
178.697,279.649440933
178.712,279.621740564
178.727,279.593917127
178.742,279.565969433
178.757,279.537896279
178.772,279.509696447
178.787,279.481368707
178.802,279.452911811
178.817,279.424324498
178.832,279.395605491
178.847,279.366753499
178.862,279.337767215
178.877,279.308645315
178.892,279.279386462
178.907,279.2499893
178.922,279.220452459
178.937,279.190774552
178.952,279.160954176
178.967,279.130989909
178.982,279.100880315
178.997,279.07062394
179.012,279.04021931
179.027,279.009664938
179.042,278.978959316
179.057,278.948100918
179.072,278.917088202
179.087,278.885919605
179.102,278.854593548
179.117,278.823108431
179.132,278.791462636
179.147,278.759654525
179.16,278.731954919
179.162,278.727682441
179.177,278.695544707
179.192,278.663239627
179.207,278.630765482
179.222,278.598120537
179.237,278.565303031
179.252,278.532311186
179.267,278.499143202
179.282,278.465797255
179.297,278.432271503
179.312,278.39856408
179.327,278.364673097
179.342,278.330596645
179.357,278.296332789
179.372,278.261879574
179.387,278.22723502
179.402,278.192397123
179.417,278.157363856
179.432,278.122133169
179.447,278.086702985
179.462,278.051071203
179.477,278.015235699
179.492,277.979194321
179.507,277.942944893
179.522,277.906485212
179.537,277.86981305
179.552,277.832926152
179.567,277.795822235
179.582,277.758498991
179.597,277.720954082
179.612,277.683185145
179.627,277.645189786
179.642,277.606965585
179.657,277.568510091
179.672,277.529820826
179.687,277.490895281
179.702,277.451730919
179.717,277.41232517
179.732,277.372675435
179.747,277.332779086
179.762,277.292633461
179.777,277.252235867
179.792,277.21158358
179.807,277.170673844
179.822,277.129503868
179.837,277.088070831
179.852,277.046371877
179.867,277.004404115
179.882,276.962164623
179.897,276.919650441
179.91,276.882580311
179.912,276.876858577
179.927,276.833786001
179.942,276.790429649
179.957,276.746786421
179.972,276.702853178
179.987,276.658626747
180.002,276.614103917
180.017,276.569281437
180.032,276.52415602
180.047,276.47872434
180.062,276.43298303
180.077,276.386928687
180.092,276.340557864
180.107,276.293867078
180.122,276.2468528
180.137,276.199511464
180.152,276.15183946
180.167,276.103833136
180.182,276.055488798
180.197,276.006802709
180.212,275.957771087
180.227,275.908390106
180.242,275.858655897
180.257,275.808564545
180.272,275.758112088
180.287,275.70729452
180.302,275.656107788
180.317,275.60454779
180.332,275.55261038
180.347,275.500291359
180.362,275.447586483
180.377,275.394491458
180.392,275.34100194
180.407,275.287113534
180.422,275.232821795
180.437,275.178122227
180.452,275.12301028
180.467,275.067481354
180.482,275.011530795
180.497,274.955153893
180.512,274.898345888
180.527,274.841101961
180.542,274.783417241
180.557,274.725286797
180.56,274.713606784
180.572,274.666705646
180.587,274.607668743
180.602,274.548170988
180.617,274.488207221
180.632,274.427772223
180.647,274.366860716
180.66,274.313681174
180.662,274.305467359
180.677,274.243586752
180.692,274.181213431
180.707,274.118341871
180.722,274.054966482
180.737,273.991081611
180.752,273.926681539
180.767,273.861760481
180.782,273.796312588
180.797,273.730331941
180.812,273.663812553
180.827,273.596748369
180.842,273.529133265
180.857,273.460961044
180.872,273.39222544
180.887,273.322920113
180.902,273.253038651
180.917,273.182574566
180.932,273.111521297
180.947,273.039872205
180.962,272.967620576
180.977,272.894759617
180.992,272.821282454
181.007,272.747182137
181.022,272.672451631
181.037,272.597083822
181.052,272.521071509
181.067,272.444407411
181.082,272.367084157
181.097,272.289094292
181.112,272.210430272
181.127,272.131084465
181.142,272.051049147
181.157,271.970316503
181.172,271.888878625
181.187,271.80672751
181.202,271.723855061
181.217,271.640253081
181.232,271.555913278
181.247,271.470827257
181.262,271.384986522
181.277,271.298382477
181.292,271.211006418
181.307,271.122849537
181.31,271.105123679
181.322,271.033902917
181.337,270.944157533
181.352,270.85360425
181.367,270.762233817
181.382,270.670036873
181.397,270.577003938
181.412,270.483125416
181.427,270.388391592
181.442,270.292792628
181.457,270.196318565
181.472,270.098959317
181.487,270.000704675
181.502,269.901544298
181.517,269.801467717
181.532,269.70046433
181.547,269.5985234
181.562,269.495634056
181.577,269.391785289
181.592,269.286965949
181.607,269.181164747
181.622,269.074370248
181.637,268.966570874
181.652,268.857754898
181.667,268.747910448
181.682,268.637025497
181.697,268.52508787
181.712,268.412085235
181.727,268.298005107
181.742,268.182834842
181.757,268.06656164
181.772,267.949172539
181.787,267.830654416
181.802,267.710993986
181.817,267.590177801
181.832,267.468192245
181.847,267.34502354
181.862,267.220657739
181.877,267.095080727
181.892,266.968278221
181.907,266.84023577
181.922,266.71093875
181.937,266.580372371
181.952,266.448521671
181.967,266.315371516
181.982,266.180906603
181.997,266.045111457
182.012,265.907970433
182.027,265.769467714
182.042,265.629587312
182.057,265.488313069
182.06,265.459889526
182.072,265.345628655
182.087,265.201517568
182.102,265.055963135
182.117,264.908948508
182.132,264.760456668
182.147,264.610470417
182.162,264.458972382
182.177,264.305945005
182.192,264.151370545
182.207,263.99523107
182.222,263.83750845
182.237,263.678184348
182.252,263.51724021
182.267,263.354657253
182.282,263.190416445
182.297,263.024498488
182.312,262.856883795
182.327,262.687552455
182.342,262.516484203
182.357,262.343658377
182.372,262.169053865
182.387,261.992649047
182.402,261.814421723
182.417,261.634349031
182.432,261.452407343
182.447,261.268572151
182.462,261.082817927
182.477,260.895117962
182.492,260.705444174
182.507,260.513766884
182.522,260.320054555
182.537,260.124273483
182.552,259.926387442
182.567,259.726357259
182.582,259.524140328
182.597,259.319690034
182.612,259.112955086
182.627,258.903878729
182.642,258.692397835
182.657,258.478441831
182.672,258.261931452
182.687,258.042777272
182.702,257.820878003
182.717,257.59611848
182.732,257.368367318
182.747,257.137474153
182.762,256.903266407
182.777,256.665545475
182.792,256.424082254
182.807,256.178611856
182.822,255.92882738
182.837,255.674372547
182.852,255.414832987
182.867,255.149725907
182.882,254.878487835
182.897,254.600460045
182.912,254.314871214
182.927,254.020816755
182.942,253.717234172
182.957,253.402873642
182.972,253.076262925
182.987,252.735665503
183.002,252.379030778
183.017,252.003934978
183.032,251.607511476
183.047,251.186369355
183.062,250.736499611
183.077,250.253169644
183.092,249.730809161
183.107,249.162895426
183.122,248.541854629
183.137,247.859012271
183.152,247.104654445
183.167,246.268313455
183.182,245.339481768
183.197,244.309112659
183.212,243.172514098
183.227,241.934589077
183.242,240.618682615
183.257,239.279932286
183.367,239.590877532
183.382,240.924888177
183.397,242.218453402
183.412,243.426001719
183.427,244.529932172
183.442,245.528417908
183.457,246.427605632
183.472,247.237086513
183.487,247.967433168
183.502,248.628944923
183.517,249.231068776
183.532,249.782185009
183.547,250.289581619
183.562,250.759520177
183.577,251.197340335
183.592,251.607575113
183.607,251.994062962
183.622,252.360050187
183.637,252.708281366
183.652,253.041077544
183.667,253.360402965
183.682,253.667921572
183.697,253.965044595
183.712,254.252970514
183.727,254.532718571
183.742,254.805156858
183.757,255.071025854
183.772,255.330958171
183.787,255.585495128
183.802,255.83510069
183.817,256.080173191
183.832,256.321055223
183.847,256.558041981
183.862,256.791388315
183.877,257.021314708
183.892,257.248012332
183.907,257.471647353
183.922,257.692364581
183.937,257.91029058
183.952,258.125536312
183.967,258.338199402
183.982,258.548366058
183.997,258.756112721
184.012,258.96150747
184.027,259.164611225
184.042,259.365478773
184.057,259.564159654
184.072,259.760698909
184.087,259.955137727
184.102,260.147513998
184.117,260.337862783
184.132,260.526216723
184.147,260.712606378
184.162,260.897060528
184.177,261.079606423
184.192,261.260269999
184.207,261.439076061
184.222,261.616048441
184.237,261.791210129
184.252,261.964583387
184.267,262.136189845
184.282,262.306050581
184.297,262.474186191
184.312,262.640616844
184.327,262.805362333
184.342,262.968442112
184.357,263.129875333
184.372,263.289680872
184.387,263.447877354
184.402,263.604483167
184.417,263.759516484
184.432,263.912995271
184.447,264.064937297
184.462,264.215360146
184.477,264.364281217
184.492,264.511717736
184.507,264.657686752
184.522,264.802205147
184.537,264.94528963
184.552,265.086956748
184.56,265.161938661
184.567,265.227222878
184.582,265.366104232
184.597,265.503616857
184.612,265.639776632
184.627,265.774599273
184.642,265.908100329
184.657,266.04029518
184.672,266.171199044
184.687,266.300826968
184.702,266.429193835
184.717,266.556314359
184.732,266.68220309
184.747,266.806874408
184.762,266.930342527
184.777,267.052621497
184.792,267.1737252
184.807,267.293667353
184.822,267.412461509
184.837,267.530121057
184.852,267.646659224
184.867,267.762089073
184.882,267.876423508
184.897,267.989675272
184.912,268.10185695
184.927,268.212980971
184.942,268.323059605
184.957,268.432104972
184.972,268.540129035
184.987,268.647143608
185.002,268.753160357
185.017,268.858190795
185.032,268.962246294
185.047,269.065338077
185.062,269.167477229
185.077,269.268674689
185.092,269.36894126
185.107,269.468287606
185.122,269.566724256
185.137,269.664261605
185.152,269.760909917
185.167,269.856679324
185.182,269.951579831
185.197,270.045621316
185.212,270.138813532
185.227,270.23116611
185.242,270.322688559
185.257,270.413390269
185.272,270.503280513
185.287,270.592368446
185.302,270.680663112
185.31,270.727432329
185.317,270.768173439
185.332,270.854908248
185.347,270.940876247
185.362,271.026086039
185.377,271.110546122
185.392,271.194264885
185.407,271.27725062
185.422,271.359511514
185.437,271.441055655
185.452,271.521891032
185.467,271.60202554
185.482,271.681466975
185.497,271.760223041
185.512,271.83830135
185.527,271.915709419
185.542,271.992454679
185.557,272.068544471
185.572,272.143986048
185.587,272.218786576
185.602,272.292953138
185.617,272.366492731
185.632,272.439412271
185.647,272.511718593
185.662,272.583418448
185.677,272.654518512
185.692,272.72502538
185.707,272.794945572
185.722,272.864285528
185.737,272.933051617
185.752,273.001250132
185.767,273.068887293
185.782,273.135969247
185.797,273.202502072
185.812,273.268491771
185.827,273.333944283
185.842,273.398865476
185.857,273.463261148
185.872,273.527137033
185.887,273.590498799
185.902,273.653352047
185.917,273.715702314
185.932,273.777555074
185.947,273.838915737
185.96,273.891701063
185.962,273.899789653
185.977,273.960182108
185.992,274.020098329
186.007,274.079543482
186.022,274.138522675
186.037,274.197040956
186.052,274.255103316
186.06,274.285885192
186.067,274.312714688
186.082,274.369879951
186.097,274.426603924
186.112,274.482891375
186.127,274.538747014
186.142,274.5941755
186.157,274.649181435
186.172,274.703769372
186.187,274.75794381
186.202,274.811709197
186.217,274.865069929
186.232,274.918030352
186.247,274.970594764
186.262,275.022767412
186.277,275.074552493
186.292,275.125954159
186.307,275.176976512
186.322,275.227623608
186.337,275.277899456
186.352,275.32780802
186.367,275.377353216
186.382,275.426538917
186.397,275.475368951
186.412,275.523847103
186.427,275.571977113
186.442,275.619762678
186.457,275.667207452
186.472,275.71431505
186.487,275.761089041
186.502,275.807532956
186.517,275.853650284
186.532,275.899444474
186.547,275.944918935
186.562,275.990077037
186.577,276.034922111
186.592,276.07945745
186.607,276.123686307
186.622,276.1676119
186.637,276.211237408
186.652,276.254565974
186.667,276.297600705
186.682,276.340344671
186.697,276.382800906
186.71,276.419365887
186.712,276.42497241
186.727,276.46686215
186.742,276.508473054
186.757,276.54980802
186.772,276.590869911
186.787,276.631661557
186.802,276.672185754
186.817,276.712445267
186.832,276.75244283
186.847,276.792181141
186.862,276.831662872
186.877,276.870890659
186.892,276.909867112
186.907,276.948594807
186.922,276.987076291
186.937,277.025314083
186.952,277.063310671
186.967,277.101068515
186.982,277.138590046
186.997,277.175877667
187.012,277.212933752
187.027,277.249760649
187.042,277.286360677
187.057,277.32273613
187.072,277.358889274
187.087,277.394822349
187.102,277.430537569
187.117,277.466037121
187.132,277.501323169
187.147,277.536397849
187.162,277.571263276
187.177,277.605921536
187.192,277.640374694
187.207,277.674624789
187.222,277.708673837
187.237,277.742523832
187.252,277.776176742
187.267,277.809634514
187.282,277.842899073
187.297,277.87597232
187.312,277.908856134
187.327,277.941552373
187.342,277.974062873
187.357,278.00638945
187.372,278.038533896
187.387,278.070497985
187.402,278.10228347
187.417,278.133892081
187.432,278.165325532
187.447,278.196585514
187.46,278.223538475
187.462,278.2276737
187.477,278.258591743
187.492,278.289341277
187.507,278.319923917
187.522,278.350341259
187.537,278.380594881
187.552,278.410686343
187.567,278.440617186
187.582,278.470388934
187.597,278.500003094
187.612,278.529461153
187.627,278.558764584
187.642,278.58791484
187.657,278.616913361
187.672,278.645761566
187.687,278.67446086
187.702,278.703012633
187.717,278.731418256
187.732,278.759679087
187.747,278.787796466
187.762,278.81577172
187.777,278.843606158
187.792,278.871301075
187.807,278.898857753
187.822,278.926277458
187.837,278.953561439
187.852,278.980710934
187.867,279.007727166
187.882,279.034611343
187.897,279.061364659
187.912,279.087988297
187.927,279.114483423
187.942,279.140851191
187.957,279.167092742
187.972,279.193209205
187.987,279.219201694
188.002,279.24507131
188.017,279.270819145
188.032,279.296446274
188.047,279.321953763
188.062,279.347342665
188.077,279.372614019
188.092,279.397768855
188.107,279.42280819
188.122,279.44773303
188.137,279.472544367
188.152,279.497243186
188.167,279.521830457
188.182,279.546307141
188.197,279.570674188
188.21,279.591704336
188.212,279.594932536
188.227,279.619083113
188.242,279.643126838
188.257,279.667064616
188.272,279.690897346
188.287,279.714625913
188.302,279.738251194
188.317,279.761774057
188.332,279.785195358
188.347,279.808515943
188.362,279.831736652
188.377,279.854858312
188.392,279.877881741
188.407,279.90080775
188.422,279.923637139
188.437,279.946370698
188.452,279.969009212
188.467,279.991553453
188.482,280.014004186
188.497,280.036362167
188.512,280.058628145
188.527,280.080802859
188.542,280.102887039
188.557,280.12488141
188.572,280.146786684
188.587,280.16860357
188.602,280.190332766
188.617,280.211974962
188.632,280.233530843
188.647,280.255001083
188.66,280.273539868
188.662,280.276386351
188.677,280.297687307
188.692,280.318904604
188.707,280.340038887
188.722,280.361090797
188.737,280.382060963
