# 10410 EDZE Essen Observations at 12Z 07 Dec 2019
Frequency [GHz],TB
175.31,267.559550147
175.322,267.570849299
175.337,267.584807116
175.352,267.598579573
175.367,267.612165858
175.382,267.625565146
175.397,267.638776614
175.412,267.651799464
175.427,267.664632877
175.442,267.677276053
175.457,267.689728183
175.472,267.701988474
175.487,267.714056129
175.502,267.725930366
175.517,267.73761039
175.532,267.749095424
175.547,267.760384685
175.562,267.771477413
175.577,267.782372824
175.592,267.793070164
175.607,267.803568667
175.622,267.813867585
175.637,267.823966163
175.652,267.833863658
175.667,267.843559328
175.682,267.853052444
175.697,267.862342279
175.712,267.871428091
175.727,267.880309186
175.742,267.888984829
175.757,267.897454327
175.772,267.905716972
175.787,267.913772073
175.802,267.921618934
175.817,267.929256874
175.832,267.936685214
175.847,267.943903279
175.862,267.950910417
175.877,267.957705953
175.892,267.964289245
175.907,267.97065964
175.922,267.976816505
175.937,267.982759203
175.952,267.988487119
175.967,267.993999619
175.982,267.999296097
175.997,268.004375959
176.012,268.009238596
176.027,268.013883422
176.042,268.018309861
176.057,268.022517324
176.072,268.026505262
176.087,268.030273101
176.102,268.033820305
176.117,268.037146317
176.132,268.040250608
176.147,268.043132648
176.162,268.04579192
176.177,268.048227913
176.192,268.050440132
176.207,268.052428072
176.222,268.054191256
176.237,268.055729203
176.252,268.057041442
176.267,268.058127526
176.282,268.058986993
176.297,268.05961941
176.31,268.059983513
176.312,268.060024345
176.327,268.06020137
176.342,268.060150077
176.357,268.05987006
176.372,268.059360922
176.387,268.058622279
176.402,268.057653758
176.417,268.056454989
176.432,268.055025623
176.447,268.053365311
176.46,268.051739298
176.462,268.051473709
176.477,268.0493505
176.492,268.046995358
176.507,268.044407987
176.522,268.041588082
176.537,268.03853536
176.552,268.035249552
176.567,268.03173038
176.582,268.027977592
176.597,268.023990949
176.612,268.019770213
176.627,268.01531516
176.642,268.010625575
176.657,268.005701258
176.672,268.00054202
176.687,267.995147672
176.702,267.989518047
176.717,267.983652988
176.732,267.977552342
176.747,267.971215975
176.762,267.964643758
176.777,267.957835573
176.792,267.95079132
176.807,267.943510899
176.822,267.93599423
176.837,267.928241241
176.852,267.920251872
176.867,267.912026069
176.882,267.903563794
176.897,267.894865026
176.912,267.885929739
176.927,267.876757933
176.942,267.867349615
176.957,267.857704796
176.972,267.847823509
176.987,267.837705788
177.002,267.827351684
177.017,267.816761267
177.032,267.805934593
177.047,267.794871758
177.062,267.783572853
177.077,267.77203798
177.092,267.76026726
177.107,267.748260812
177.122,267.736018783
177.137,267.723541317
177.152,267.710828575
177.167,267.697880727
177.182,267.684697953
177.197,267.671280444
177.21,267.65946222
177.212,267.657628404
177.227,267.643742048
177.242,267.629621592
177.257,267.615267279
177.272,267.600679346
177.287,267.585858051
177.302,267.570803654
177.31,267.562679428
177.317,267.555516436
177.332,267.539996676
177.347,267.524244672
177.362,267.508260726
177.377,267.492045152
177.392,267.475598274
177.407,267.458920426
177.422,267.442011951
177.437,267.424873198
177.452,267.407504527
177.467,267.389906313
177.482,267.372078933
177.497,267.354022773
177.512,267.335738228
177.527,267.317225708
177.542,267.298485616
177.557,267.279518388
177.572,267.26032444
177.587,267.240904219
177.602,267.221258162
177.617,267.201386726
177.632,267.181290372
177.647,267.160969566
177.66,267.143177009
177.662,267.14042478
177.677,267.119656496
177.692,267.098665206
177.707,267.077451404
177.722,267.056015583
177.737,267.034358258
177.752,267.012479938
177.767,266.990381143
177.782,266.968062396
177.797,266.945524227
177.812,266.92276717
177.827,266.899791762
177.842,266.876598552
177.857,266.853188084
177.872,266.829560915
177.887,266.805717597
177.902,266.781658694
177.917,266.757384766
177.932,266.732896382
177.947,266.708194114
177.96,266.686612913
177.962,266.683278531
177.977,266.658150211
177.992,266.632809727
178.007,266.607257664
178.022,266.581494601
178.037,266.555521124
178.052,266.529337807
178.067,266.502945244
178.082,266.476344018
178.097,266.449534711
178.112,266.422517913
178.127,266.39529421
178.142,266.367864186
178.157,266.340228423
178.172,266.312387507
178.187,266.284342018
178.202,266.256092538
178.217,266.227639644
178.232,266.198983912
178.247,266.170125918
178.262,266.141066233
178.277,266.11180542
178.292,266.082344047
178.307,266.052682675
178.322,266.022821857
178.337,265.992762148
178.352,265.962504095
178.367,265.93204824
178.382,265.901395122
178.397,265.870545272
178.41,265.843650005
178.412,265.839499214
178.427,265.80825747
178.442,265.77682055
178.457,265.745188966
178.472,265.713363212
178.487,265.681343783
178.502,265.64913116
178.517,265.616725824
178.532,265.584128239
178.547,265.551338865
178.562,265.518358154
178.577,265.485186545
178.592,265.45182447
178.607,265.41827235
178.622,265.384530598
178.637,265.350599615
178.652,265.316479789
178.667,265.282171501
178.682,265.247675121
178.697,265.212990999
178.712,265.178119486
178.727,265.143060911
178.742,265.107815596
178.757,265.072383843
178.772,265.03676595
178.787,265.000962198
178.802,264.964972853
178.817,264.928798168
178.832,264.892438385
178.847,264.855893725
178.862,264.819164397
178.877,264.782250601
178.892,264.745152515
178.907,264.707870303
178.922,264.670404116
178.937,264.632754084
178.952,264.594920331
178.967,264.55690295
178.982,264.51870203
178.997,264.480317641
179.012,264.441749827
179.027,264.402998625
179.042,264.364064052
179.057,264.324946108
179.072,264.285644771
179.087,264.246160006
179.102,264.206491754
179.117,264.166639945
179.132,264.126604488
179.147,264.086385269
179.16,264.051379873
179.162,264.045982162
179.177,264.005395017
179.192,263.964623666
179.207,263.923667924
179.222,263.882527581
179.237,263.841202416
179.252,263.799692181
179.267,263.75799661
179.282,263.716115421
179.297,263.67404831
179.312,263.631794949
179.327,263.589354992
179.342,263.54672808
179.357,263.503913821
179.372,263.46091181
179.387,263.417721622
179.402,263.374342811
179.417,263.330774908
179.432,263.287017424
179.447,263.243069852
179.462,263.198931661
179.477,263.154602302
179.492,263.110081204
179.507,263.065367773
179.522,263.020461401
179.537,262.975361452
179.552,262.930067274
179.567,262.884578189
179.582,262.838893505
179.597,262.793012506
179.612,262.746934454
179.627,262.700658594
179.642,262.654184146
179.657,262.607510315
179.672,262.560636283
179.687,262.513561208
179.702,262.466284234
179.717,262.418804482
179.732,262.371121051
179.747,262.323233026
179.762,262.275139464
179.777,262.226839411
179.792,262.178331886
179.807,262.129615893
179.822,262.080690417
179.837,262.031554422
179.852,261.98220685
179.867,261.932646629
179.882,261.882872671
179.897,261.832883861
179.91,261.789385562
179.912,261.782679071
179.927,261.732257155
179.942,261.681616949
179.957,261.63075727
179.972,261.579676917
179.987,261.528374674
180.002,261.476849309
180.017,261.425099568
180.032,261.373124185
180.047,261.320921876
180.062,261.268491343
180.077,261.215831271
180.092,261.162940328
180.107,261.109817167
180.122,261.05646043
180.137,261.002868743
180.152,260.949040715
180.167,260.894974942
180.182,260.840670007
180.197,260.786124485
180.212,260.731336928
180.227,260.676305883
180.242,260.621029881
180.257,260.565507447
180.272,260.509737085
180.287,260.453717297
180.302,260.397446571
180.317,260.340923385
180.332,260.284146205
180.347,260.227113491
180.362,260.169823693
180.377,260.112275253
180.392,260.054466603
180.407,259.99639617
180.422,259.938062373
180.437,259.879463625
180.452,259.820598332
180.467,259.761464895
180.482,259.702061711
180.497,259.64238717
180.512,259.582439661
180.527,259.522217568
180.542,259.46171927
180.557,259.40094315
180.56,259.388754444
180.572,259.339887584
180.587,259.278550948
180.602,259.21693162
180.617,259.155027973
180.632,259.092838386
180.647,259.03036124
180.66,258.975980521
180.662,258.96759491
180.677,258.904537785
180.692,258.841188247
180.707,258.777544688
180.722,258.713605506
180.737,258.649369098
180.752,258.584833874
180.767,258.519998245
180.782,258.454860635
180.797,258.389419473
180.812,258.323673198
180.827,258.257620259
180.842,258.191259116
180.857,258.124588239
180.872,258.057606109
180.887,257.990311227
180.902,257.922702098
180.917,257.85477725
180.932,257.786535223
180.947,257.717974571
180.962,257.649093869
180.977,257.579891708
180.992,257.510366699
181.007,257.440517474
181.022,257.370342682
181.037,257.299840996
181.052,257.229011111
181.067,257.157851747
181.082,257.086361647
181.097,257.014539578
181.112,256.942384336
181.127,256.869894743
181.142,256.79706965
181.157,256.723907937
181.172,256.650408511
181.187,256.576570317
181.202,256.502392326
181.217,256.427873547
181.232,256.35301302
181.247,256.277809821
181.262,256.202263066
181.277,256.126371905
181.292,256.050135527
181.307,255.973553164
181.31,255.958195108
181.322,255.896624085
181.337,255.819347605
181.352,255.741723079
181.367,255.663749911
181.382,255.585427547
181.397,255.506755481
181.412,255.427733257
181.427,255.348360469
181.442,255.268636758
181.457,255.188561823
181.472,255.108135414
181.487,255.027357337
181.502,254.946227454
181.517,254.864745688
181.532,254.782912018
181.547,254.700726488
181.562,254.618189205
181.577,254.535300339
181.592,254.452060129
181.607,254.368468882
181.622,254.284526974
181.637,254.200234858
181.652,254.115593057
181.667,254.030602174
181.682,253.945262889
181.697,253.859575967
181.712,253.773542254
181.727,253.687162684
181.742,253.600438279
181.757,253.513370156
181.772,253.425959524
181.787,253.338207692
181.802,253.250116071
181.817,253.161686176
181.832,253.07291963
181.847,252.983818169
181.862,252.894383645
181.877,252.804618031
181.892,252.714523423
181.907,252.624102048
181.922,252.533356264
181.937,252.442288572
181.952,252.350901613
181.967,252.259198179
181.982,252.167181218
181.997,252.074853837
182.012,251.982219313
182.027,251.889281093
182.042,251.796042808
182.057,251.702508273
182.06,251.683766166
182.072,251.608681501
182.087,251.514566703
182.102,251.420168302
182.117,251.325490939
182.132,251.23053948
182.147,251.135319023
182.162,251.039834911
182.177,250.944092738
182.192,250.848098356
182.207,250.751857886
182.222,250.655377728
182.237,250.558664565
182.252,250.461725376
182.267,250.364567441
182.282,250.267198352
182.297,250.169626016
182.312,250.071858666
182.327,249.973904863
182.342,249.875773506
182.357,249.777473828
182.372,249.679015404
182.387,249.580408151
182.402,249.481662322
182.417,249.382788505
182.432,249.283797616
182.447,249.184700888
182.462,249.085509853
182.477,248.986236328
182.492,248.886892389
182.507,248.787490336
182.522,248.688042663
182.537,248.588562007
182.552,248.489061095
182.567,248.389552679
182.582,248.290049459
182.597,248.190563989
182.612,248.091108574
182.627,247.991695142
182.642,247.8923351
182.657,247.793039163
182.672,247.693817155
182.687,247.594677785
182.702,247.495628377
182.717,247.396674566
182.732,247.297819941
182.747,247.199065632
182.762,247.100409835
182.777,247.001847252
182.792,246.903368449
182.807,246.8049591
182.822,246.706599106
182.837,246.608261566
182.852,246.509911557
182.867,246.411504703
182.882,246.312985463
182.897,246.214285104
182.912,246.115319249
182.927,246.01598493
182.942,245.916156984
182.957,245.815683644
182.972,245.714381069
182.987,245.612026519
183.002,245.508349722
183.017,245.403021859
183.032,245.295641322
183.047,245.185715053
183.062,245.07263375
183.077,244.955638382
183.092,244.833774197
183.107,244.705826311
183.122,244.570227581
183.137,244.424923609
183.152,244.267169563
183.167,244.093214775
183.182,243.897795568
183.197,243.673285863
183.212,243.408206521
183.227,243.084467548
183.242,242.671976907
183.257,242.117666702
183.367,242.260051489
183.382,242.767996568
183.397,243.150729046
183.412,243.453967776
183.427,243.704016225
183.442,243.916915672
183.457,244.102971838
183.472,244.269102236
183.487,244.420122622
183.502,244.55948919
183.517,244.689746549
183.532,244.812808944
183.547,244.930142909
183.562,245.042889474
183.577,245.151948112
183.592,245.258035748
183.607,245.361729113
183.622,245.463495708
183.637,245.563716842
183.652,245.662705025
183.667,245.760717289
183.682,245.857965532
183.697,245.954624634
183.712,246.050838905
183.727,246.146727259
183.742,246.242387393
183.757,246.337899212
183.772,246.43332764
183.787,246.528724951
183.802,246.624132712
183.817,246.719583419
183.832,246.815101871
183.847,246.910706333
183.862,247.006409534
183.877,247.10221951
183.892,247.19814033
183.907,247.294172715
183.922,247.390314582
183.937,247.486561496
183.952,247.582907073
183.967,247.679343322
183.982,247.775860944
183.997,247.872449583
184.012,247.969098052
184.027,248.065794522
184.042,248.162526685
184.057,248.259281895
184.072,248.356047293
184.087,248.452809905
184.102,248.549556731
184.117,248.646274823
184.132,248.742951344
184.147,248.839573624
184.162,248.936129201
184.177,249.032605856
184.192,249.128991646
184.207,249.225274925
184.222,249.321444362
184.237,249.417488953
184.252,249.513398035
184.267,249.609161289
184.282,249.704768743
184.297,249.800210777
184.312,249.895478119
184.327,249.990561843
184.342,250.085453368
184.357,250.180144446
184.372,250.274627163
184.387,250.368893927
184.402,250.462937463
184.417,250.556750805
184.432,250.650327286
184.447,250.743660529
184.462,250.83674444
184.477,250.929573196
184.492,251.022141241
184.507,251.114443272
184.522,251.206474233
184.537,251.298229303
184.552,251.389703892
184.56,251.438374137
184.567,251.480893631
184.582,251.571794361
184.597,251.662402127
184.612,251.752713173
184.627,251.842723931
184.642,251.932431013
184.657,252.021831209
184.672,252.110921475
184.687,252.199698929
184.702,252.288160847
184.717,252.376304652
184.732,252.464127913
184.747,252.551628336
184.762,252.638803763
184.777,252.725652162
184.792,252.812171629
184.807,252.898360374
184.822,252.984216728
184.837,253.069739128
184.852,253.154926122
184.867,253.23977636
184.882,253.324288591
184.897,253.408461663
184.912,253.492294514
184.927,253.575786177
184.942,253.658935767
184.957,253.741742487
184.972,253.824205621
184.987,253.906324532
185.002,253.988098659
185.017,254.069527518
185.032,254.150610694
185.047,254.231347845
185.062,254.311738695
185.077,254.391783033
185.092,254.471480717
185.107,254.55083166
185.122,254.629835841
185.137,254.708493295
185.152,254.786804117
185.167,254.864768454
185.182,254.942386509
185.197,255.019658537
185.212,255.096584844
185.227,255.173165784
185.242,255.249401761
185.257,255.325293228
185.272,255.400840679
185.287,255.476044655
185.302,255.550905741
185.31,255.590691664
185.317,255.625424561
185.332,255.699601782
185.347,255.77343811
185.362,255.84693429
185.377,255.920091103
185.392,255.992909368
185.407,256.065389937
185.422,256.137533699
185.437,256.209341574
185.452,256.280814516
185.467,256.351953509
185.482,256.422759567
185.497,256.493233733
185.512,256.563377082
185.527,256.63319071
185.542,256.702675746
185.557,256.77183334
185.572,256.840664669
185.587,256.909170933
185.602,256.977353356
185.617,257.045213184
185.632,257.112751682
185.647,257.17997014
185.662,257.246869863
185.677,257.313452178
185.692,257.379718428
185.707,257.445669976
185.722,257.511308201
185.737,257.576634494
185.752,257.641650266
185.767,257.706356939
185.782,257.770755951
185.797,257.83484875
185.812,257.898636801
185.827,257.962121576
185.842,258.025304558
185.857,258.088187244
185.872,258.150771137
185.887,258.213057749
185.902,258.275048602
185.917,258.336745225
185.932,258.398149152
185.947,258.459261926
185.96,258.511992016
185.962,258.520085094
185.977,258.580620211
185.992,258.640868832
186.007,258.700832518
186.022,258.760512836
186.037,258.819911353
186.052,258.879029637
186.06,258.910445348
186.067,258.937869263
186.082,258.996431803
186.097,259.05471883
186.112,259.11273192
186.127,259.170472645
186.142,259.227942581
186.157,259.285143299
186.172,259.342076371
186.187,259.398743365
186.202,259.455145844
186.217,259.511285375
186.232,259.567163518
186.247,259.622781829
186.262,259.678141858
186.277,259.733245154
186.292,259.788093261
186.307,259.842687714
186.322,259.897030045
186.337,259.951121779
186.352,260.004964437
186.367,260.058559531
186.382,260.111908565
186.397,260.165013041
186.412,260.217874444
186.427,260.270494258
186.442,260.322873959
186.457,260.375015011
186.472,260.426918871
186.487,260.478586987
186.502,260.530020795
186.517,260.581221726
186.532,260.632191196
186.547,260.682930616
186.562,260.73344138
186.577,260.783724878
186.592,260.833782489
186.607,260.883615572
186.622,260.933225485
186.637,260.982613571
186.652,261.031781159
186.667,261.080729568
186.682,261.129460107
186.697,261.177974069
186.71,261.219845311
186.712,261.226272739
186.727,261.274357382
186.742,261.322229261
186.757,261.369889616
186.772,261.417339678
186.787,261.464580669
186.802,261.511613791
186.817,261.558440237
186.832,261.605061184
186.847,261.651477799
186.862,261.697691228
186.877,261.743702611
186.892,261.789513069
186.907,261.835123717
186.922,261.880535643
186.937,261.925749929
186.952,261.970767644
186.967,262.015589839
186.982,262.06021755
186.997,262.104651803
187.012,262.148893604
187.027,262.192943951
187.042,262.236803821
187.057,262.280474179
187.072,262.323955975
187.087,262.367250147
187.102,262.410357615
187.117,262.453279283
187.132,262.496016045
187.147,262.538568776
187.162,262.58093834
187.177,262.623125581
187.192,262.665131334
187.207,262.706956416
187.222,262.748601628
187.237,262.790067758
187.252,262.831355584
187.267,262.872465858
187.282,262.913399329
187.297,262.954156723
187.312,262.994738757
187.327,263.035146127
187.342,263.075379524
187.357,263.115439616
187.372,263.155327058
187.387,263.195042494
187.402,263.234586551
187.417,263.273959845
187.432,263.313162973
187.447,263.352196521
187.46,263.385888865
187.462,263.39106106
187.477,263.429757145
187.492,263.468285325
187.507,263.506646121
187.522,263.544840056
187.537,263.58286763
187.552,263.620729329
187.567,263.658425632
187.582,263.695956999
187.597,263.733323878
187.612,263.770526703
187.627,263.807565898
187.642,263.844441871
187.657,263.881155021
187.672,263.91770573
187.687,263.954094367
187.702,263.990321296
187.717,264.026386858
187.732,264.06229139
187.747,264.098035216
187.762,264.133618642
187.777,264.169041968
187.792,264.204305482
187.807,264.23940946
187.822,264.274354161
187.837,264.309139839
187.852,264.34376674
187.867,264.37823509
187.882,264.412545109
187.897,264.446697011
187.912,264.480690987
187.927,264.514527231
187.942,264.548205917
187.957,264.581727216
187.972,264.615091288
187.987,264.648298278
188.002,264.681348324
188.017,264.714241556
188.032,264.7469781
188.047,264.779558061
188.062,264.811981543
188.077,264.844248642
188.092,264.876359441
188.107,264.90831402
188.122,264.940112445
188.137,264.971754776
188.152,265.003241069
188.167,265.034571369
188.182,265.065745711
188.197,265.096764129
188.21,265.123520651
188.212,265.127626646
188.227,265.158333277
188.242,265.188884033
188.257,265.219278918
188.272,265.249517925
188.287,265.27960105
188.302,265.309528274
188.317,265.339299578
188.332,265.368914934
188.347,265.398374309
188.362,265.427677666
188.377,265.456824964
188.392,265.485816151
188.407,265.514651178
188.422,265.543329985
188.437,265.571852514
188.452,265.600218699
188.467,265.628428463
188.482,265.656481743
188.497,265.684378452
188.512,265.712118513
188.527,265.739701844
188.542,265.767128352
188.557,265.794397949
188.572,265.821510545
188.587,265.848466038
188.602,265.87526433
188.617,265.901905323
188.632,265.928388914
188.647,265.954714995
188.66,265.977403439
188.662,265.980883457
188.677,266.006894196
188.692,266.032747104
188.707,266.05844206
188.722,266.083978958
