# 78954 TBPB Grantley Adams Observations at 12Z 22 Mar 2019
Frequency [GHz],TB
175.31,280.170541097
175.322,280.153980127
175.337,280.133222657
175.352,280.112402482
175.367,280.091519389
175.382,280.070573162
175.397,280.049563585
175.412,280.028490441
175.427,280.007353508
175.442,279.986152567
175.457,279.964887393
175.472,279.943557763
175.487,279.922163449
175.502,279.900704223
175.517,279.879179856
175.532,279.857590117
175.547,279.835934771
175.562,279.814213584
175.577,279.792426319
175.592,279.770572738
175.607,279.748652599
175.622,279.726665662
175.637,279.704611682
175.652,279.682490414
175.667,279.660301609
175.682,279.638045019
175.697,279.615720393
175.712,279.593327476
175.727,279.570866015
175.742,279.548335752
175.757,279.525736429
175.772,279.503067785
175.787,279.480329557
175.802,279.457521482
175.817,279.434643292
175.832,279.411694718
175.847,279.388675492
175.862,279.365585341
175.877,279.342423989
175.892,279.319191161
175.907,279.295886579
175.922,279.272509962
175.937,279.249061027
175.952,279.225539491
175.967,279.201945067
175.982,279.178277466
175.997,279.154536397
176.012,279.130721568
176.027,279.106832684
176.042,279.082869447
176.057,279.05883156
176.072,279.034718719
176.087,279.010530623
176.102,278.986266965
176.117,278.961927438
176.132,278.937511731
176.147,278.913019532
176.162,278.888450528
176.177,278.863804401
176.192,278.839080832
176.207,278.8142795
176.222,278.789400083
176.237,278.764442253
176.252,278.739405683
176.267,278.714290044
176.282,278.689095001
176.297,278.663820221
176.31,278.641850651
176.312,278.638465365
176.327,278.613030094
176.342,278.587514067
176.357,278.561916939
176.372,278.536238362
176.387,278.510477988
176.402,278.484635465
176.417,278.458710439
176.432,278.432702553
176.447,278.406611449
176.46,278.383931565
176.462,278.380436765
176.477,278.354178136
176.492,278.327835197
176.507,278.301407579
176.522,278.27489491
176.537,278.248296815
176.552,278.22161292
176.567,278.194842843
176.582,278.167986204
176.597,278.141042618
176.612,278.114011699
176.627,278.086893056
176.642,278.059686298
176.657,278.032391029
176.672,278.005006853
176.687,277.977533369
176.702,277.949970174
176.717,277.922316863
176.732,277.894573027
176.747,277.866738256
176.762,277.838812135
176.777,277.810794249
176.792,277.782684177
176.807,277.754481499
176.822,277.726185788
176.837,277.697796619
176.852,277.669313559
176.867,277.640736176
176.882,277.612064033
176.897,277.583296692
176.912,277.55443371
176.927,277.525474644
176.942,277.496419044
176.957,277.467266461
176.972,277.43801644
176.987,277.408668526
177.002,277.379222258
177.017,277.349677175
177.032,277.320032811
177.047,277.290288697
177.062,277.260444362
177.077,277.23049933
177.092,277.200453126
177.107,277.170305267
177.122,277.140055271
177.137,277.109702649
177.152,277.079246913
177.167,277.048687569
177.182,277.01802412
177.197,276.987256068
177.21,276.960505422
177.212,276.95638291
177.227,276.925404139
177.242,276.894319247
177.257,276.863127722
177.272,276.831829048
177.287,276.800422706
177.302,276.768908175
177.31,276.752056006
177.317,276.737284928
177.332,276.705552438
177.347,276.673710173
177.362,276.641757597
177.377,276.609694172
177.392,276.577519355
177.407,276.545232602
177.422,276.512833364
177.437,276.480321088
177.452,276.44769522
177.467,276.414955199
177.482,276.382100464
177.497,276.349130448
177.512,276.316044583
177.527,276.282842296
177.542,276.249523009
177.557,276.216086143
177.572,276.182531114
177.587,276.148857336
177.602,276.115064217
177.617,276.081151164
177.632,276.047117578
177.647,276.012962858
177.66,275.98326365
177.662,275.9786864
177.677,275.944287593
177.692,275.909765826
177.707,275.875120482
177.722,275.840350941
177.737,275.805456581
177.752,275.770436773
177.767,275.735290886
177.782,275.700018286
177.797,275.664618334
177.812,275.629090388
177.827,275.5934338
177.842,275.557647922
177.857,275.521732099
177.872,275.485685673
177.887,275.449507983
177.902,275.413198364
177.917,275.376756145
177.932,275.340180653
177.947,275.303471212
177.96,275.271547485
177.962,275.266627139
177.977,275.22964775
177.992,275.192532355
178.007,275.155280262
178.022,275.117890773
178.037,275.080363186
178.052,275.042696798
178.067,275.004890898
178.082,274.966944773
178.097,274.928857706
178.112,274.890628975
178.127,274.852257855
178.142,274.813743617
178.157,274.775085525
178.172,274.736282844
178.187,274.69733483
178.202,274.658240738
178.217,274.618999817
178.232,274.579611312
178.247,274.540074466
178.262,274.500388514
178.277,274.460552691
178.292,274.420566225
178.307,274.38042834
178.322,274.340138256
178.337,274.299695191
178.352,274.259098355
178.367,274.218346956
178.382,274.177440198
178.397,274.13637728
178.41,274.100662478
178.412,274.095157395
178.427,274.053779736
178.442,274.012243488
178.457,273.970547833
178.472,273.928691949
178.487,273.886675009
178.502,273.844496182
178.517,273.802154634
178.532,273.759649524
178.547,273.716980008
178.562,273.674145239
178.577,273.631144365
178.592,273.587976528
178.607,273.544640867
178.622,273.501136518
178.637,273.45746261
178.652,273.413618269
178.667,273.369602618
178.682,273.325414774
178.697,273.28105385
178.712,273.236518954
178.727,273.191809192
178.742,273.146923665
178.757,273.101861467
178.772,273.056621691
178.787,273.011203425
178.802,272.965605752
178.817,272.919827751
178.832,272.873868497
178.847,272.827727061
178.862,272.781402509
178.877,272.734893904
178.892,272.688200304
178.907,272.641320763
178.922,272.594254332
178.937,272.547000055
178.952,272.499556975
178.967,272.451924129
178.982,272.404100551
178.997,272.356085271
179.012,272.307877315
179.027,272.259475703
179.042,272.210879454
179.057,272.16208758
179.072,272.113099094
179.087,272.063912999
179.102,272.014528298
179.117,271.964943989
179.132,271.915159068
179.147,271.865172523
179.16,271.821686979
179.162,271.814983344
179.177,271.764590511
179.192,271.713993006
179.207,271.663189804
179.222,271.612179878
179.237,271.560962195
179.252,271.509535723
179.267,271.457899421
179.282,271.406052248
179.297,271.35399316
179.312,271.301721107
179.327,271.249235038
179.342,271.196533897
179.357,271.143616626
179.372,271.090482164
179.387,271.037129445
179.402,270.983557401
179.417,270.929764961
179.432,270.875751052
179.447,270.821514595
179.462,270.767054511
179.477,270.712369717
179.492,270.657459126
179.507,270.602321649
179.522,270.546956195
179.537,270.49136167
179.552,270.435536975
179.567,270.379481012
179.582,270.323192677
179.597,270.266670866
179.612,270.20991447
179.627,270.152922378
179.642,270.095693479
179.657,270.038226656
179.672,269.980520792
179.687,269.922574766
179.702,269.864387454
179.717,269.805957733
179.732,269.747284473
179.747,269.688366546
179.762,269.629202818
179.777,269.569792153
179.792,269.510133416
179.807,269.450225466
179.822,269.39006716
179.837,269.329657354
179.852,269.268994901
179.867,269.208078651
179.882,269.146907451
179.897,269.085480147
179.91,269.032035096
179.912,269.023795581
179.927,268.961852593
179.942,268.899650019
179.957,268.837186694
179.972,268.774461448
179.987,268.71147311
180.002,268.648220503
180.017,268.584702449
180.032,268.520917766
180.047,268.456865267
180.062,268.392543764
180.077,268.327952061
180.092,268.263088962
180.107,268.197953263
180.122,268.132543757
180.137,268.066859231
180.152,268.000898469
180.167,267.934660246
180.182,267.868143335
180.197,267.801346499
180.212,267.734268496
180.227,267.666908077
180.242,267.599263986
180.257,267.531334958
180.272,267.46311972
180.287,267.39461699
180.302,267.325825477
180.317,267.256743877
180.332,267.18737088
180.347,267.11770516
180.362,267.047745382
180.377,266.977490197
180.392,266.90693824
180.407,266.836088136
180.422,266.764938491
180.437,266.693487895
180.452,266.621734921
180.467,266.549678125
180.482,266.477316041
180.497,266.404647184
180.512,266.331670046
180.527,266.258383096
180.542,266.184784778
180.557,266.110873511
180.56,266.096053563
180.572,266.036647686
180.587,265.962105665
180.602,265.887245778
180.617,265.812066325
180.632,265.736565569
180.647,265.660741739
180.66,265.594765024
180.662,265.584593025
180.677,265.508117577
180.692,265.431313502
180.707,265.354178864
180.722,265.276711679
180.737,265.198909913
180.752,265.120771482
180.767,265.042294245
180.782,264.963476006
180.797,264.884314507
180.812,264.804807429
180.827,264.724952384
180.842,264.644746916
180.857,264.564188496
180.872,264.483274519
180.887,264.402002299
180.902,264.320369066
180.917,264.238371963
180.932,264.156008043
180.947,264.073274259
180.962,263.990167468
180.977,263.906684421
180.992,263.822821757
181.007,263.738576006
181.022,263.653943575
181.037,263.568920748
181.052,263.483503681
181.067,263.397688393
181.082,263.311470767
181.097,263.224846534
181.112,263.137811279
181.127,263.050360425
181.142,262.962489233
181.157,262.874192793
181.172,262.785466018
181.187,262.696303637
181.202,262.606700189
181.217,262.516650014
181.232,262.426147248
181.247,262.335185816
181.262,262.24375942
181.277,262.151861538
181.292,262.059485409
181.307,261.966624032
181.31,261.947992893
181.322,261.873270153
181.337,261.779416256
181.352,261.68505456
181.367,261.590177005
181.382,261.494775247
181.397,261.398840645
181.412,261.302364256
181.427,261.205336824
181.442,261.107748771
181.457,261.009590187
181.472,260.910850824
181.487,260.81152008
181.502,260.711586996
181.517,260.611040242
181.532,260.509868109
181.547,260.408058499
181.562,260.305598916
181.577,260.202476453
181.592,260.098677786
181.607,259.994189162
181.622,259.888996388
181.637,259.783084822
181.652,259.676439367
181.667,259.569044452
181.682,259.46088403
181.697,259.351941564
181.712,259.242200021
181.727,259.131641856
181.742,259.020249007
181.757,258.908002884
181.772,258.794884356
181.787,258.680873746
181.802,258.56595082
181.817,258.450094773
181.832,258.333284224
181.847,258.215497204
181.862,258.096711145
181.877,257.976902873
181.892,257.856048595
181.907,257.734123888
181.922,257.611103692
181.937,257.486962295
181.952,257.361673325
181.967,257.235209737
181.982,257.107543799
181.997,256.978647082
182.012,256.848490445
182.027,256.717044021
182.042,256.5842772
182.057,256.450158616
182.06,256.423169872
182.072,256.314656122
182.087,256.17773678
182.102,256.039366828
182.117,255.899511666
182.132,255.758135825
182.147,255.615202936
182.162,255.470675702
182.177,255.324515859
182.192,255.176684135
182.207,255.027140207
182.222,254.875842648
182.237,254.722748871
182.252,254.567815063
182.267,254.410996118
182.282,254.252245547
182.297,254.091515395
182.312,253.928756135
182.327,253.763916547
182.342,253.596943594
182.357,253.42778227
182.372,253.256375435
182.387,253.082663623
182.402,252.906584833
182.417,252.728074286
182.432,252.547064153
182.447,252.36348325
182.462,252.177256685
182.477,251.988305469
182.492,251.796546068
182.507,251.601889895
182.522,251.40424274
182.537,251.203504117
182.552,250.999566524
182.567,250.792314606
182.582,250.581624193
182.597,250.367361214
182.612,250.149380457
182.627,249.927524149
182.642,249.701620338
182.657,249.471481046
182.672,249.236900147
182.687,248.997650947
182.702,248.753483393
182.717,248.504120889
182.732,248.249256618
182.747,247.988549324
182.762,247.721618454
182.777,247.448038568
182.792,247.167332885
182.807,246.878965866
182.822,246.582334644
182.837,246.276759174
182.852,245.961470882
182.867,245.635599625
182.882,245.298158746
182.897,244.948027993
182.912,244.583934093
182.927,244.204428825
182.942,243.807864478
182.957,243.392366782
182.972,242.955805625
182.987,242.495764318
183.002,242.009508842
183.017,241.493959608
183.032,240.945669858
183.047,240.360817347
183.062,239.735219593
183.077,239.064388308
183.092,238.343646155
183.107,237.568339249
183.122,236.73419204
183.137,235.837866559
183.152,234.877802337
183.167,233.855418543
183.182,232.776739264
183.197,231.654426965
183.212,230.510036356
183.227,229.375996357
183.242,228.296422265
183.257,227.325555816
183.367,227.537096404
183.382,228.535022331
183.397,229.627101882
183.412,230.761457053
183.427,231.896996954
183.442,233.004252426
183.457,234.064163261
183.472,235.065966586
183.487,236.00497475
183.502,236.880643121
183.517,237.695059709
183.532,238.451845151
183.547,239.15539351
183.562,239.810372476
183.577,240.421410174
183.592,240.992910819
183.607,241.528956322
183.622,242.033263423
183.637,242.509175402
183.652,242.959674323
183.667,243.387404603
183.682,243.794702006
183.697,244.183624406
183.712,244.555982114
183.727,244.913366527
183.742,245.257176471
183.757,245.588641996
183.772,245.908845588
183.787,246.218740925
183.802,246.519169344
183.817,246.810874251
183.832,247.094513676
183.847,247.3706712
183.862,247.639865444
183.877,247.902558312
183.892,248.15916214
183.907,248.410045901
183.922,248.655540597
183.937,248.895943934
183.952,249.131524393
183.967,249.362524766
183.982,249.589165237
183.997,249.811646063
184.012,250.030149923
184.027,250.244843952
184.042,250.455881539
184.057,250.66340388
184.072,250.867541358
184.087,251.068414736
184.102,251.266136216
184.117,251.460810362
184.132,251.652534917
184.147,251.841401518
184.162,252.027496329
184.177,252.210900595
184.192,252.391691138
184.207,252.569940784
184.222,252.745718754
184.237,252.919090996
184.252,253.090120489
184.267,253.258867505
184.282,253.425389846
184.297,253.589743053
184.312,253.751980587
184.327,253.912153995
184.342,254.070313055
184.357,254.226505902
184.372,254.380779147
184.387,254.533177974
184.402,254.68374623
184.417,254.832526509
184.432,254.97956022
184.447,255.124887651
184.462,255.268548026
184.477,255.410579554
184.492,255.551019477
184.507,255.689904105
184.522,255.827268857
184.537,255.96314829
184.552,256.097576131
184.56,256.168688838
184.567,256.230585299
184.582,256.362207933
184.597,256.492475409
184.612,256.621418366
184.627,256.749066715
184.642,256.875449664
184.657,257.000595729
184.672,257.124532747
184.687,257.247287895
184.702,257.368887694
184.717,257.489358029
184.732,257.608724155
184.747,257.72701071
184.762,257.844241724
184.777,257.960440633
184.792,258.075630282
184.807,258.189832942
184.822,258.303070313
184.837,258.415363539
184.852,258.526733213
184.867,258.637199388
184.882,258.746781587
184.897,258.85549881
184.912,258.963369546
184.927,259.070411777
184.942,259.176642994
184.957,259.282080201
184.972,259.386739924
184.987,259.490638226
185.002,259.593790707
185.017,259.696212522
185.032,259.797918384
185.047,259.898922577
185.062,259.999238962
185.077,260.098880989
185.092,260.197861704
185.107,260.296193761
185.122,260.393889426
185.137,260.490960591
185.152,260.587418781
185.167,260.683275164
185.182,260.778540558
185.197,260.873225441
185.212,260.967339959
185.227,261.060893937
185.242,261.153896886
185.257,261.246358011
185.272,261.338286219
185.287,261.42969013
185.302,261.520578082
185.31,261.568843483
185.317,261.610958143
185.332,261.700838114
185.347,261.790225542
185.362,261.879127725
185.377,261.967551717
185.392,262.055504343
185.407,262.142992198
185.422,262.230021661
185.437,262.316598897
185.452,262.402729868
185.467,262.488420336
185.482,262.573675873
185.497,262.658501865
185.512,262.742903521
185.527,262.826885875
185.542,262.910453799
185.557,262.993611999
185.572,263.076365031
185.587,263.158717301
185.602,263.24067307
185.617,263.322236462
185.632,263.403411468
185.647,263.48420195
185.662,263.564611649
185.677,263.644644185
185.692,263.724303068
185.707,263.803591694
185.722,263.882513358
185.737,263.961071254
185.752,264.039268476
185.767,264.11710803
185.782,264.19459283
185.797,264.271725705
185.812,264.348509404
185.827,264.424946597
185.842,264.501039879
185.857,264.576791774
185.872,264.652204737
185.887,264.727281156
185.902,264.80202336
185.917,264.876433614
185.932,264.95051413
185.947,265.024267061
185.96,265.087922915
185.962,265.097694511
185.977,265.170798533
185.992,265.243581132
186.007,265.316044269
186.022,265.388189861
186.037,265.460019784
186.052,265.531535873
186.06,265.569550088
186.067,265.60273993
186.082,265.673633716
186.097,265.744218962
186.112,265.814497365
186.127,265.884470592
186.142,265.95414028
186.157,266.023508039
186.172,266.092575451
186.187,266.161344076
186.202,266.229815447
186.217,266.297991076
186.232,266.365872452
186.247,266.433461046
186.262,266.500758307
186.277,266.567765666
186.292,266.634484539
186.307,266.700916321
186.322,266.767062395
186.337,266.832924128
186.352,266.89850287
186.367,266.963799962
186.382,267.028816729
186.397,267.093554485
186.412,267.158014532
186.427,267.222198161
186.442,267.286106653
186.457,267.349741278
186.472,267.413103297
186.487,267.476193964
186.502,267.539014521
186.517,267.601566204
186.532,267.663850241
186.547,267.725867853
186.562,267.787620252
186.577,267.849108645
186.592,267.910334233
186.607,267.971298209
186.622,268.032001762
186.637,268.092446074
186.652,268.152632322
186.667,268.212561677
186.682,268.272235307
186.697,268.331654373
186.71,268.382945879
186.712,268.390820034
186.727,268.44973344
186.742,268.508395742
186.757,268.566808083
186.772,268.624971603
186.787,268.682887439
186.802,268.740556722
186.817,268.797980581
186.832,268.855160141
186.847,268.912096522
186.862,268.968790843
186.877,269.025244217
186.892,269.081457754
186.907,269.137432563
186.922,269.193169746
186.937,269.248670405
186.952,269.303935636
186.967,269.358966533
186.982,269.413764188
186.997,269.468329687
187.012,269.522664114
187.027,269.576768552
187.042,269.630644077
187.057,269.684291765
187.072,269.737712688
187.087,269.790907912
187.102,269.843878504
187.117,269.896625526
187.132,269.949150036
187.147,270.00145309
187.162,270.053535741
187.177,270.105399037
187.192,270.157044024
187.207,270.208471744
187.222,270.259683238
187.237,270.310679541
187.252,270.361461686
187.267,270.412030702
187.282,270.462387615
187.297,270.512533448
187.312,270.562469219
187.327,270.612195945
187.342,270.661714637
187.357,270.711026305
187.372,270.760131953
187.387,270.809032585
187.402,270.857729196
187.417,270.906222784
187.432,270.954514337
187.447,271.002604844
187.46,271.044121421
187.462,271.050495289
187.477,271.098186652
187.492,271.145679909
187.507,271.192976033
187.522,271.240075993
187.537,271.286980754
187.552,271.333691277
187.567,271.380208522
187.582,271.42653344
187.597,271.472666983
187.612,271.518610097
187.627,271.564363724
187.642,271.609928802
187.657,271.655306267
187.672,271.700497049
187.687,271.745502075
187.702,271.790322267
187.717,271.834958546
187.732,271.879411824
187.747,271.923683015
187.762,271.967773024
187.777,272.011682754
187.792,272.055413105
187.807,272.098964972
187.822,272.142339245
187.837,272.185536812
187.852,272.228558555
187.867,272.271405353
187.882,272.31407808
187.897,272.356577609
187.912,272.398904804
187.927,272.44106053
187.942,272.483045643
187.957,272.524860999
187.972,272.566507448
187.987,272.607985836
188.002,272.649297005
188.017,272.690441793
188.032,272.731421034
188.047,272.772235559
188.062,272.812886192
188.077,272.853373755
188.092,272.893699066
188.107,272.933862939
188.122,272.973866182
188.137,273.013709602
188.152,273.053393998
188.167,273.092920169
188.182,273.132288908
188.197,273.171501003
188.21,273.205358719
188.212,273.21055724
188.227,273.249458399
188.242,273.288205257
188.257,273.326798587
188.272,273.365239158
188.287,273.403527735
188.302,273.441665077
188.317,273.479651943
188.332,273.517489084
188.347,273.55517725
188.362,273.592717184
188.377,273.630109628
188.392,273.667355319
188.407,273.704454989
188.422,273.741409367
188.437,273.778219178
188.452,273.814885143
188.467,273.851407979
188.482,273.8877884
188.497,273.924027114
188.512,273.960124827
188.527,273.996082241
188.542,274.031900052
188.557,274.067578956
188.572,274.103119642
188.587,274.138522796
188.602,274.173789101
188.617,274.208919235
188.632,274.243913873
188.647,274.278773685
188.66,274.308876981
188.662,274.313499341
188.677,274.348091502
188.692,274.382550829
188.707,274.416877978
