# 78954 TBPB Grantley Adams Observations at 12Z 02 Aug 2020
Frequency [GHz],TB
175.31,280.419255841
175.322,280.400981627
175.337,280.37808607
175.352,280.355131748
175.367,280.332118546
175.382,280.309046348
175.397,280.285915035
175.412,280.26272449
175.427,280.239474595
175.442,280.216165231
175.457,280.192796277
175.472,280.169367615
175.487,280.145879122
175.502,280.122330678
175.517,280.09872216
175.532,280.075053446
175.547,280.051324413
175.562,280.027534935
175.577,280.00368489
175.592,279.979774152
175.607,279.955802594
175.622,279.931770091
175.637,279.907676516
175.652,279.88352174
175.667,279.859305636
175.682,279.835028074
175.697,279.810688926
175.712,279.78628806
175.727,279.761825346
175.742,279.737300652
175.757,279.712713847
175.772,279.688064798
175.787,279.663353371
175.802,279.638579431
175.817,279.613742846
175.832,279.588843478
175.847,279.563881193
175.862,279.538855853
175.877,279.513767322
175.892,279.488615461
175.907,279.463400132
175.922,279.438121196
175.937,279.412778513
175.952,279.387371942
175.967,279.361901342
175.982,279.336366572
175.997,279.310767489
176.012,279.28510395
176.027,279.259375811
176.042,279.233582928
176.057,279.207725156
176.072,279.181802349
176.087,279.15581436
176.102,279.129761044
176.117,279.103642251
176.132,279.077457835
176.147,279.051207645
176.162,279.024891532
176.177,278.998509347
176.192,278.972060937
176.207,278.945546152
176.222,278.91896484
176.237,278.892316846
176.252,278.865602018
176.267,278.838820202
176.282,278.811971243
176.297,278.785054984
176.31,278.761673003
176.312,278.758071271
176.327,278.731019946
176.342,278.703900851
176.357,278.676713829
176.372,278.64945872
176.387,278.622135365
176.402,278.594743604
176.417,278.567283276
176.432,278.53975422
176.447,278.512156273
176.46,278.488182201
176.462,278.484489272
176.477,278.456753055
176.492,278.428947456
176.507,278.401072311
176.522,278.373127455
176.537,278.345112721
176.552,278.317027943
176.567,278.288872952
176.582,278.260647581
176.597,278.23235166
176.612,278.203985021
176.627,278.175547492
176.642,278.147038903
176.657,278.118459083
176.672,278.089807857
176.687,278.061085055
176.702,278.032290502
176.717,278.003424023
176.732,277.974485443
176.747,277.945474587
176.762,277.916391277
176.777,277.887235337
176.792,277.858006588
176.807,277.828704852
176.822,277.79932995
176.837,277.7698817
176.852,277.740359922
176.867,277.710764435
176.882,277.681095055
176.897,277.6513516
176.912,277.621533886
176.927,277.591641728
176.942,277.56167494
176.957,277.531633336
176.972,277.501516729
176.987,277.471324931
177.002,277.441057753
177.017,277.410715006
177.032,277.3802965
177.047,277.349802043
177.062,277.319231444
177.077,277.288584509
177.092,277.257861045
177.107,277.227060858
177.122,277.196183751
177.137,277.165229528
177.152,277.134197993
177.167,277.103088947
177.182,277.071902191
177.197,277.040637524
177.21,277.013478304
177.212,277.009294747
177.227,276.977873656
177.242,276.94637405
177.257,276.914795724
177.272,276.883138473
177.287,276.85140209
177.302,276.81958637
177.31,276.802585474
177.317,276.787691104
177.332,276.755716083
177.347,276.723661096
177.362,276.691525933
177.377,276.65931038
177.392,276.627014223
177.407,276.594637249
177.422,276.56217924
177.437,276.52963998
177.452,276.497019249
177.467,276.464316829
177.482,276.431532497
177.497,276.398666031
177.512,276.365717208
177.527,276.332685801
177.542,276.299571585
177.557,276.266374332
177.572,276.23309381
177.587,276.199729791
177.602,276.16628204
177.617,276.132750323
177.632,276.099134406
177.647,276.065434049
177.66,276.036158587
177.662,276.031649015
177.677,275.997779062
177.692,275.963823947
177.707,275.929783426
177.722,275.895657253
177.737,275.86144518
177.752,275.827146956
177.767,275.792762329
177.782,275.758291045
177.797,275.723732849
177.812,275.689087481
177.827,275.654354681
177.842,275.619534187
177.857,275.584625734
177.872,275.549629054
177.887,275.514543877
177.902,275.479369932
177.917,275.444106944
177.932,275.408754635
177.947,275.373312726
177.96,275.34252371
177.962,275.337780935
177.977,275.302158975
177.992,275.26644656
178.007,275.230643397
178.022,275.194749193
178.037,275.158763652
178.052,275.122686472
178.067,275.08651735
178.082,275.050255981
178.097,275.013902053
178.112,274.977455253
178.127,274.940915266
178.142,274.904281769
178.157,274.867554439
178.172,274.830732948
178.187,274.793816963
178.202,274.756806149
178.217,274.719700166
178.232,274.68249867
178.247,274.645201312
178.262,274.607807738
178.277,274.570317593
178.292,274.532730513
178.307,274.495046132
178.322,274.457264079
178.337,274.419383976
178.352,274.381405442
178.367,274.34332809
178.382,274.305151527
178.397,274.266875357
178.41,274.233621792
178.412,274.228499174
178.427,274.190022572
178.442,274.151445133
178.457,274.112766438
178.472,274.073986058
178.487,274.03510356
178.502,273.996118505
178.517,273.957030444
178.532,273.917838925
178.547,273.878543487
178.562,273.839143662
178.577,273.799638975
178.592,273.760028943
178.607,273.720313076
178.622,273.680490876
178.637,273.640561837
178.652,273.600525445
178.667,273.560381175
178.682,273.520128497
178.697,273.479766871
178.712,273.439295747
178.727,273.398714565
178.742,273.358022759
178.757,273.31721975
178.772,273.27630495
178.787,273.235277761
178.802,273.194137575
178.817,273.152883772
178.832,273.111515723
178.847,273.070032787
178.862,273.028434311
178.877,272.986719631
178.892,272.944888071
178.907,272.902938942
178.922,272.860871544
178.937,272.818685164
178.952,272.776379074
178.967,272.733952535
178.982,272.691404794
178.997,272.648735083
179.012,272.605942621
179.027,272.56302661
179.042,272.519986241
179.057,272.476820687
179.072,272.433529106
179.087,272.39011064
179.102,272.346564415
179.117,272.302889542
179.132,272.259085112
179.147,272.215150201
179.16,272.176967006
179.162,272.171083867
179.177,272.126885149
179.192,272.082553068
179.207,272.038086627
179.222,271.993484809
179.237,271.948746577
179.252,271.903870875
179.267,271.858856626
179.282,271.813702733
179.297,271.768408076
179.312,271.722971514
179.327,271.677391885
179.342,271.631668003
179.357,271.58579866
179.372,271.539782622
179.387,271.493618635
179.402,271.447305416
179.417,271.400841661
179.432,271.354226039
179.447,271.307457191
179.462,271.260533735
179.477,271.213454259
179.492,271.166217325
179.507,271.118821468
179.522,271.071265191
179.537,271.023546971
179.552,270.975665255
179.567,270.927618456
179.582,270.879404962
179.597,270.831023125
179.612,270.782471267
179.627,270.733747676
179.642,270.684850609
179.657,270.635778287
179.672,270.586528898
179.687,270.537100593
179.702,270.48749149
179.717,270.437699668
179.732,270.387723172
179.747,270.337560006
179.762,270.287208138
179.777,270.236665496
179.792,270.185929968
179.807,270.134999404
179.822,270.08387161
179.837,270.032544352
179.852,269.981015353
179.867,269.929282294
179.882,269.877342809
179.897,269.825194491
179.91,269.779828463
179.912,269.772834885
179.927,269.720261493
179.942,269.667471767
179.957,269.614463113
179.972,269.561232889
179.987,269.507778403
180.002,269.454096913
180.017,269.400185628
180.032,269.346041705
180.047,269.291662248
180.062,269.237044308
180.077,269.182184884
180.092,269.127080918
180.107,269.0717293
180.122,269.01612686
180.137,268.960270375
180.152,268.904156561
180.167,268.847782077
180.182,268.791143523
180.197,268.734237439
180.212,268.677060303
180.227,268.619608531
180.242,268.561878479
180.257,268.503866437
180.272,268.445568632
180.287,268.386981226
180.302,268.328100315
180.317,268.268921929
180.332,268.209442031
180.347,268.149656513
180.362,268.089561202
180.377,268.029151853
180.392,267.968424152
180.407,267.907373711
180.422,267.845996073
180.437,267.784286708
180.452,267.72224101
180.467,267.659854302
180.482,267.597121829
180.497,267.534038763
180.512,267.470600198
180.527,267.406801152
180.542,267.342636564
180.557,267.278101295
180.56,267.265149302
180.572,267.213190129
180.587,267.147897768
180.602,267.082218835
180.617,267.01614787
180.632,266.949679336
180.647,266.88280761
180.66,266.824521569
180.662,266.815526988
180.677,266.747831683
180.692,266.679715825
180.707,266.61117346
180.722,266.54219855
180.737,266.472784971
180.752,266.402926516
180.767,266.332616891
180.782,266.261849716
180.797,266.190618527
180.812,266.118916773
180.827,266.046737816
180.842,265.974074933
180.857,265.900921312
180.872,265.827270057
180.887,265.753114183
180.902,265.67844662
180.917,265.603260211
180.932,265.527547712
180.947,265.451301793
180.962,265.374515036
180.977,265.297179941
180.992,265.219288918
181.007,265.140834294
181.022,265.061808311
181.037,264.982203126
181.052,264.902010812
181.067,264.821223359
181.082,264.739832673
181.097,264.657830581
181.112,264.575208825
181.127,264.491959068
181.142,264.408072893
181.157,264.323541806
181.172,264.238357232
181.187,264.152510521
181.202,264.065992949
181.217,263.978795713
181.232,263.890909941
181.247,263.802326688
181.262,263.713036936
181.277,263.623031601
181.292,263.53230153
181.307,263.440837503
181.31,263.422455807
181.322,263.348630236
181.337,263.255670381
181.352,263.161948531
181.367,263.067455217
181.382,262.972180914
181.397,262.876116038
181.412,262.779250955
181.427,262.681575974
181.442,262.583081358
181.457,262.483757319
181.472,262.383594022
181.487,262.28258159
181.502,262.1807101
181.517,262.07796959
181.532,261.97435006
181.547,261.869841472
181.562,261.764433753
181.577,261.658116796
181.592,261.550880463
181.607,261.442714587
181.622,261.333608971
181.637,261.223553393
181.652,261.112537602
181.667,261.000551325
181.682,260.887584266
181.697,260.773626102
181.712,260.658666492
181.727,260.54269507
181.742,260.425701447
181.757,260.307675215
181.772,260.188605937
181.787,260.068483156
181.802,259.947296384
181.817,259.825035108
181.832,259.701688782
181.847,259.577246824
181.862,259.451698614
181.877,259.325033487
181.892,259.197240732
181.907,259.068309576
181.922,258.938229188
181.937,258.80698866
181.952,258.674577005
181.967,258.54098314
181.982,258.406195876
181.997,258.270203907
182.012,258.132995784
182.027,257.99455991
182.042,257.854884509
182.057,257.713957612
182.06,257.685620984
182.072,257.571767024
182.087,257.428300306
182.102,257.283544737
182.117,257.137487283
182.132,256.990114559
182.147,256.84141279
182.162,256.691367761
182.177,256.539964771
182.192,256.387188573
182.207,256.233023315
182.222,256.077452474
182.237,255.920458773
182.252,255.762024107
182.267,255.602129448
182.282,255.44075474
182.297,255.277878792
182.312,255.113479154
182.327,254.947531975
182.342,254.780011857
182.357,254.610891683
182.372,254.440142434
182.387,254.267732977
182.402,254.093629839
182.417,253.917796951
182.432,253.74019536
182.447,253.560782915
182.462,253.379513911
182.477,253.196338693
182.492,253.011203214
182.507,252.824048537
182.522,252.63481028
182.537,252.443417992
182.552,252.249794444
182.567,252.053854845
182.582,251.855505941
182.597,251.654645007
182.612,251.451158704
182.627,251.244921784
182.642,251.035795617
182.657,250.823626521
182.672,250.608243854
182.687,250.389457843
182.702,250.167057103
182.717,249.940805795
182.732,249.710440373
182.747,249.475665844
182.762,249.236151476
182.777,248.991525852
182.792,248.741371163
182.807,248.485216624
182.822,248.222530856
182.837,247.95271307
182.852,247.67508284
182.867,247.388868246
182.882,247.093192096
182.897,246.787055932
182.912,246.469321437
182.927,246.138688852
182.942,245.793671944
182.957,245.432569033
182.972,245.053429586
182.987,244.65401591
183.002,244.231759576
183.017,243.78371251
183.032,243.306493116
183.047,242.796228788
183.062,242.248497719
183.077,241.658275707
183.092,241.019898332
183.107,240.327056737
183.122,239.572858336
183.137,238.750005544
183.152,237.851181372
183.167,236.869788951
183.182,235.80128455
183.197,234.645483786
183.212,233.410411019
183.227,232.118443375
183.242,230.815371735
183.257,229.581397507
183.367,229.864351892
183.382,231.119386041
183.397,232.419392499
183.412,233.694058395
183.427,234.904631196
183.442,236.033135783
183.457,237.074097941
183.472,238.029074673
183.487,238.903271565
183.502,239.703534464
183.517,240.437199094
183.532,241.111460692
183.547,241.733052298
183.562,242.308102524
183.577,242.842094964
183.592,243.3398829
183.607,243.805731989
183.622,244.243375133
183.637,244.656070591
183.652,245.046658493
183.667,245.417613308
183.682,245.771091238
183.697,246.10897228
183.712,246.432897121
183.727,246.744299276
183.742,247.044432925
183.757,247.334396956
183.772,247.615155692
183.787,247.887556741
183.802,248.152346353
183.817,248.410182656
183.832,248.661647044
183.847,248.907254005
183.862,249.147459594
183.877,249.38266876
183.892,249.613241683
183.907,249.83949926
183.922,250.061727869
183.937,250.280183506
183.952,250.495095383
183.967,250.706669068
183.982,250.915089222
183.997,251.120521994
184.012,251.323117117
184.027,251.523009746
184.042,251.720322072
184.057,251.915164746
184.072,252.107638128
184.087,252.297833392
184.102,252.485833505
184.117,252.671714086
184.132,252.85554418
184.147,253.037386931
184.162,253.217300192
184.177,253.395337059
184.192,253.571546356
184.207,253.74597306
184.222,253.918658686
184.237,254.089641631
184.252,254.258957478
184.267,254.426639276
184.282,254.592717784
184.297,254.757221696
184.312,254.920177844
184.327,255.081611371
184.342,255.241545904
184.357,255.400003693
184.372,255.557005748
184.387,255.712571959
184.402,255.866721201
184.417,256.019471439
184.432,256.170839811
184.447,256.320842709
184.462,256.469495858
184.477,256.616814373
184.492,256.762812829
184.507,256.907505306
184.522,257.050905444
184.537,257.193026487
184.552,257.33388132
184.56,257.40849051
184.567,257.47348251
184.582,257.611842337
184.597,257.748972823
184.612,257.884885759
184.627,258.019592733
184.642,258.153105146
184.657,258.285434236
184.672,258.416591096
184.687,258.546586687
184.702,258.675431853
184.717,258.803137336
184.732,258.929713785
184.747,259.055171765
184.762,259.179521771
184.777,259.302774229
184.792,259.424939507
184.807,259.546027921
184.822,259.666049738
184.837,259.785015181
184.852,259.902934433
184.867,260.019817643
184.882,260.135674921
184.897,260.25051635
184.912,260.364351978
184.927,260.477191826
184.942,260.589045885
184.957,260.69992412
184.972,260.809836465
184.987,260.918792828
185.002,261.026803088
185.017,261.133877095
185.032,261.24002467
185.047,261.345255602
185.062,261.44957965
185.077,261.55300654
185.092,261.655545962
185.107,261.757207575
185.122,261.858000996
185.137,261.957935809
185.152,262.057021553
185.167,262.15526773
185.182,262.252683798
185.197,262.349279169
185.212,262.445063209
185.227,262.540045239
185.242,262.634234527
185.257,262.727640293
185.272,262.820271703
185.287,262.912137868
185.302,263.003247844
185.31,263.051533745
185.317,263.093610632
185.332,263.183235171
185.347,263.272130341
185.362,263.360304961
185.377,263.447767788
185.392,263.534527513
185.407,263.620592761
185.422,263.705972094
185.437,263.790674002
185.452,263.874706909
185.467,263.958079168
185.482,264.04079906
185.497,264.122874796
185.512,264.204314513
185.527,264.285126274
185.542,264.365318069
185.557,264.444897811
185.572,264.523873338
185.587,264.602252412
185.602,264.680042716
185.617,264.757251858
185.632,264.833887366
185.647,264.909956689
185.662,264.985467198
185.677,265.060426185
185.692,265.134840861
185.707,265.208718359
185.722,265.282065731
185.737,265.354889947
185.752,265.4271979
185.767,265.4989964
185.782,265.570292177
185.797,265.641091882
185.812,265.711402084
185.827,265.781229271
185.842,265.850579853
185.857,265.919460158
185.872,265.987876436
185.887,266.055834855
185.902,266.123341505
185.917,266.190402395
185.932,266.257023459
185.947,266.323210548
185.96,266.38022612
185.962,266.388969437
185.977,266.454305823
185.992,266.519225326
186.007,266.583733487
186.022,266.647835773
186.037,266.711537573
186.052,266.774844201
186.06,266.808447967
186.067,266.837760897
186.082,266.900292824
186.097,266.962445072
186.112,267.02422266
186.127,267.08563053
186.142,267.146673554
186.157,267.207356533
186.172,267.267684194
186.187,267.327661197
186.202,267.387292129
186.217,267.446581511
186.232,267.505533793
186.247,267.564153359
186.262,267.622444522
186.277,267.680411534
186.292,267.738058578
186.307,267.795389772
186.322,267.852409169
186.337,267.909120761
186.352,267.965528474
186.367,268.021636174
186.382,268.077447664
186.397,268.132966686
186.412,268.188196923
186.427,268.243141999
186.442,268.297805477
186.457,268.352190864
186.472,268.406301609
186.487,268.460141106
186.502,268.51371269
186.517,268.567019645
186.532,268.620065198
186.547,268.672852522
186.562,268.72538474
186.577,268.77766492
186.592,268.82969608
186.607,268.881481187
186.622,268.933023158
186.637,268.98432486
186.652,269.035389112
186.667,269.086218687
186.682,269.136816306
186.697,269.187184649
186.71,269.230653789
186.712,269.237326347
186.727,269.287243985
186.742,269.336940107
186.757,269.38641721
186.772,269.435677749
186.787,269.484724138
186.802,269.533558746
186.817,269.582183904
186.832,269.630601901
186.847,269.678814985
186.862,269.726825368
186.877,269.774635221
186.892,269.822246676
186.907,269.86966183
186.922,269.916882743
186.937,269.963911437
186.952,270.010749901
186.967,270.057400086
186.982,270.103863911
186.997,270.15014326
187.012,270.196239985
187.027,270.242155904
187.042,270.287892804
187.057,270.333452438
187.072,270.378836531
187.087,270.424046776
187.102,270.469084837
187.117,270.513952346
187.132,270.55865091
187.147,270.603182103
187.162,270.647547476
187.177,270.691748549
187.192,270.735786816
187.207,270.779663744
187.222,270.823380777
187.237,270.866939329
187.252,270.910340792
187.267,270.953586533
187.282,270.996677894
187.297,271.039616193
187.312,271.082402727
187.327,271.125038769
187.342,271.167525567
187.357,271.209864351
187.372,271.252056328
187.387,271.294102683
187.402,271.33600458
187.417,271.377763164
187.432,271.41937956
187.447,271.460854872
187.46,271.496686861
187.462,271.502190186
187.477,271.543386569
187.492,271.584445068
187.507,271.625366714
187.522,271.666152519
187.537,271.706803478
187.552,271.747320568
187.567,271.787704751
187.582,271.827956971
187.597,271.868078155
187.612,271.908069218
187.627,271.947931055
187.642,271.987664548
187.657,272.027270565
187.672,272.066749958
187.687,272.106103564
187.702,272.145332208
187.717,272.184436701
187.732,272.223417838
187.747,272.262276404
187.762,272.301013169
187.777,272.339628891
187.792,272.378124316
187.807,272.416500178
187.822,272.454757198
187.837,272.492896086
187.852,272.53091754
187.867,272.568822249
187.882,272.606610887
187.897,272.644284122
187.912,272.681842608
187.927,272.71928699
187.942,272.756617903
187.957,272.793835972
187.972,272.830941812
187.987,272.867936029
188.002,272.904819219
188.017,272.94159197
188.032,272.978254861
188.047,273.014808461
188.062,273.051253333
188.077,273.087590028
188.092,273.123819093
188.107,273.159941063
188.122,273.195956469
188.137,273.231865832
188.152,273.267669665
188.167,273.303368476
188.182,273.338962764
188.197,273.374453022
188.21,273.405127472
188.212,273.409839735
188.227,273.445123383
188.242,273.480304437
188.257,273.515383364
188.272,273.550360624
188.287,273.58523667
188.302,273.620011949
188.317,273.654686904
188.332,273.68926197
188.347,273.723737577
188.362,273.75811415
188.377,273.792392108
188.392,273.826571866
188.407,273.860653832
188.422,273.89463841
188.437,273.928525999
188.452,273.962316993
188.467,273.996011781
188.482,274.029610748
188.497,274.063114274
188.512,274.096522734
188.527,274.129836501
188.542,274.163055941
188.557,274.196181417
188.572,274.229213287
188.587,274.262151908
188.602,274.29499763
188.617,274.3277508
188.632,274.360411762
188.647,274.392980855
188.66,274.421133351
188.662,274.425458416
188.677,274.457844779
188.692,274.490140271
188.707,274.52234522
188.722,274.554459948
188.737,274.586484775
