# 10410 EDZE Essen Observations at 12Z 02 Aug 2020
Frequency [GHz],TB
175.31,277.652468214
175.322,277.64105052
175.337,277.626675266
175.352,277.612185382
175.367,277.597580825
175.382,277.582861564
175.397,277.568027558
175.412,277.553078777
175.427,277.538015186
175.442,277.522836759
175.457,277.507543462
175.472,277.492135276
175.487,277.476612171
175.502,277.460974125
175.517,277.445221116
175.532,277.429353128
175.547,277.413370138
175.562,277.397272132
175.577,277.381059098
175.592,277.364731016
175.607,277.34828788
175.622,277.331729676
175.637,277.315056398
175.652,277.298268036
175.667,277.281364584
175.682,277.264346037
175.697,277.247212394
175.712,277.229963649
175.727,277.212599804
175.742,277.195120854
175.757,277.177526804
175.772,277.159817655
175.787,277.141993412
175.802,277.124054076
175.817,277.105999652
175.832,277.08783015
175.847,277.069545571
175.862,277.051145926
175.877,277.032631222
175.892,277.014001469
175.907,276.995256675
175.922,276.97639685
175.937,276.957422007
175.952,276.938332155
175.967,276.919127305
175.982,276.89980747
175.997,276.880372661
176.012,276.860822894
176.027,276.841158176
176.042,276.821378522
176.057,276.801483945
176.072,276.781474457
176.087,276.761350071
176.102,276.741110798
176.117,276.720756652
176.132,276.700287644
176.147,276.679703787
176.162,276.659005087
176.177,276.63819156
176.192,276.617263213
176.207,276.596220056
176.222,276.575062099
176.237,276.553789347
176.252,276.532401808
176.267,276.510899489
176.282,276.489282393
176.297,276.467550526
176.31,276.448623405
176.312,276.44570389
176.327,276.423742483
176.342,276.401666309
176.357,276.379475365
176.372,276.357169647
176.387,276.334749152
176.402,276.312213873
176.417,276.289563799
176.432,276.266798924
176.447,276.243919235
176.46,276.223997287
176.462,276.220924716
176.477,276.197815352
176.492,276.174591123
176.507,276.151252008
176.522,276.127797986
176.537,276.10422903
176.552,276.08054511
176.567,276.056746196
176.582,276.032832253
176.597,276.008803245
176.612,275.98465913
176.627,275.960399864
176.642,275.936025403
176.657,275.911535695
176.672,275.886930688
176.687,275.862210323
176.702,275.83737454
176.717,275.812423276
176.732,275.787356459
176.747,275.762174018
176.762,275.736875878
176.777,275.711461957
176.792,275.685932169
176.807,275.660286425
176.822,275.63452463
176.837,275.608646685
176.852,275.582652486
176.867,275.556541924
176.882,275.530314886
176.897,275.503971254
176.912,275.477510901
176.927,275.450933696
176.942,275.424239508
176.957,275.397428193
176.972,275.370499604
176.987,275.34345359
177.002,275.31628999
177.017,275.289008639
177.032,275.261609369
177.047,275.234091999
177.062,275.206456344
177.077,275.178702216
177.092,275.150829415
177.107,275.122837736
177.122,275.094726968
177.137,275.066496892
177.152,275.038147281
177.167,275.009677901
177.182,274.98108851
177.197,274.95237886
177.21,274.927399689
177.212,274.923548693
177.227,274.894597744
177.242,274.865525738
177.257,274.836332396
177.272,274.807017426
177.287,274.777580529
177.302,274.748021399
177.31,274.732206441
177.317,274.718339719
177.332,274.688535164
177.347,274.658607397
177.362,274.62855608
177.377,274.598380854
177.392,274.568081358
177.407,274.537657221
177.422,274.507108059
177.437,274.476433483
177.452,274.445633086
177.467,274.414706459
177.482,274.383653177
177.497,274.352472808
177.512,274.321164905
177.527,274.289729016
177.542,274.258164673
177.557,274.226471397
177.572,274.194648702
177.587,274.162696088
177.602,274.130613043
177.617,274.098399041
177.632,274.066053548
177.647,274.033576019
177.66,274.005321591
177.662,274.000965894
177.677,273.968222596
177.692,273.935345546
177.707,273.902334145
177.722,273.869187784
177.737,273.835905838
177.752,273.802487674
177.767,273.768932641
177.782,273.735240078
177.797,273.701409307
177.812,273.667439638
177.827,273.633330372
177.842,273.599080786
177.857,273.564690151
177.872,273.530157718
177.887,273.495482731
177.902,273.460664411
177.917,273.425701971
177.932,273.390594605
177.947,273.35534149
177.96,273.324670255
177.962,273.319941794
177.977,273.284394667
177.992,273.248699242
178.007,273.212854636
178.022,273.176859952
178.037,273.140714277
178.052,273.104416679
178.067,273.067966214
178.082,273.031361917
178.097,272.994602811
178.112,272.957687898
178.127,272.920616165
178.142,272.883386582
178.157,272.845998102
178.172,272.808449659
178.187,272.77074017
178.202,272.732868534
178.217,272.694833634
178.232,272.656634332
178.247,272.618269477
178.262,272.57973789
178.277,272.541038382
178.292,272.502169744
178.307,272.463130741
178.322,272.423920133
178.337,272.384536644
178.352,272.344978991
178.367,272.305245866
178.382,272.265335943
178.397,272.225247875
178.41,272.190359727
178.412,272.184980294
178.427,272.144531815
178.442,272.10390103
178.457,272.063086511
178.472,272.02208681
178.487,271.980900455
178.502,271.939525959
178.517,271.897961807
178.532,271.856206467
178.547,271.814258381
178.562,271.772115976
178.577,271.729777652
178.592,271.687241787
178.607,271.644506738
178.622,271.601570839
178.637,271.558432401
178.652,271.515089712
178.667,271.471541039
178.682,271.427784623
178.697,271.383818683
178.712,271.339641414
178.727,271.295250988
178.742,271.250645552
178.757,271.205823229
178.772,271.160782119
178.787,271.115520295
178.802,271.070035809
178.817,271.024326682
178.832,270.978390918
178.847,270.932226487
178.862,270.885831341
178.877,270.839203402
178.892,270.79234057
178.907,270.745240715
178.922,270.69790168
178.937,270.650321285
178.952,270.602497326
178.967,270.554427562
178.982,270.506109737
178.997,270.457541558
179.012,270.408720711
179.027,270.359644851
179.042,270.310311608
179.057,270.260718582
179.072,270.210863344
179.087,270.160743438
179.102,270.110356381
179.117,270.059699657
179.132,270.008770725
179.147,269.957567013
179.16,269.912966185
179.162,269.906085919
179.177,269.854324813
179.192,269.802281035
179.207,269.749951895
179.222,269.697334669
179.237,269.644426611
179.252,269.591224935
179.267,269.537726831
179.282,269.483929454
179.297,269.429829927
179.312,269.375425352
179.327,269.320712783
179.342,269.265689255
179.357,269.210351766
179.372,269.154697281
179.387,269.098722734
179.402,269.042425026
179.417,268.98580103
179.432,268.928847577
179.447,268.87156147
179.462,268.81393948
179.477,268.75597834
179.492,268.697674753
179.507,268.639025387
179.522,268.580026876
179.537,268.52067582
179.552,268.460968782
179.567,268.400902294
179.582,268.340472849
179.597,268.27967691
179.612,268.218510902
179.627,268.156971213
179.642,268.095054199
179.657,268.032756179
179.672,267.970073433
179.687,267.907002212
179.702,267.843538722
179.717,267.779679141
179.732,267.715419604
179.747,267.650756215
179.762,267.585685037
179.777,267.520202096
179.792,267.454303386
179.807,267.387984858
179.822,267.321242427
179.837,267.254071975
179.852,267.186469341
179.867,267.118430333
179.882,267.049950712
179.897,266.981026209
179.91,266.920928447
179.912,266.911652512
179.927,266.841825278
179.942,266.771540119
179.957,266.700792611
179.972,266.629578295
179.987,266.557892671
180.002,266.4857312
180.017,266.413089308
180.032,266.339962379
180.047,266.266345764
180.062,266.192234771
180.077,266.117624671
180.092,266.042510699
180.107,265.96688805
180.122,265.890751882
180.137,265.814097315
180.152,265.736919429
180.167,265.65921327
180.182,265.580973843
180.197,265.502196118
180.212,265.422875026
180.227,265.343005462
180.242,265.262582281
180.257,265.181600311
180.272,265.100054327
180.287,265.017939079
180.302,264.935249283
180.317,264.851979609
180.332,264.768124701
180.347,264.683679162
180.362,264.598637562
180.377,264.512994437
180.392,264.42674429
180.407,264.339881587
180.422,264.252400761
180.437,264.164296215
180.452,264.075562319
180.467,263.986193409
180.482,263.896183792
180.497,263.805527744
180.512,263.714219511
180.527,263.622253308
180.542,263.529623322
180.557,263.436323714
180.56,263.417582921
180.572,263.342348615
180.587,263.247692135
180.602,263.152348352
180.617,263.056311322
180.632,262.959575078
180.647,262.86213363
180.66,262.777109298
180.662,262.763980966
180.677,262.665111054
180.692,262.565517842
180.707,262.465195261
180.722,262.364137223
180.737,262.262337626
180.752,262.159790356
180.767,262.05648928
180.782,261.95242826
180.797,261.847601144
180.812,261.742001773
180.827,261.635623983
180.842,261.528461606
180.857,261.420508469
180.872,261.311758397
180.887,261.202205221
180.902,261.091842771
180.917,260.980664887
180.932,260.868665413
180.947,260.755838204
180.962,260.642177132
180.977,260.527676079
180.992,260.41232895
181.007,260.296129668
181.022,260.179072181
181.037,260.061150469
181.052,259.942358533
181.067,259.822690416
181.082,259.702140197
181.097,259.580701996
181.112,259.458369976
181.127,259.335138351
181.142,259.211001392
181.157,259.085953419
181.172,258.959988821
181.187,258.833102053
181.202,258.705287643
181.217,258.576540189
181.232,258.446854382
181.247,258.316224993
181.262,258.18464689
181.277,258.05211504
181.292,257.918624517
181.307,257.784170503
181.31,257.757163666
181.322,257.648748308
181.337,257.512353359
181.352,257.374981224
181.367,257.236627611
181.382,257.097288371
181.397,256.95695952
181.412,256.815637238
181.427,256.673317879
181.442,256.529997981
181.457,256.385674277
181.472,256.240343703
181.487,256.09400341
181.502,255.946650773
181.517,255.798283406
181.532,255.648899164
181.547,255.49849617
181.562,255.34707281
181.577,255.194627763
181.592,255.041159998
181.607,254.886668805
181.622,254.731153793
181.637,254.574614916
181.652,254.417052478
181.667,254.258467165
181.682,254.098860041
181.697,253.93823258
181.712,253.776586677
181.727,253.613924669
181.742,253.450249349
181.757,253.285563988
181.772,253.119872352
181.787,252.953178728
181.802,252.785487943
181.817,252.616805371
181.832,252.44713698
181.847,252.276489334
181.862,252.104869623
181.877,251.93228569
181.892,251.758746048
181.907,251.584259909
181.922,251.40883721
181.937,251.232488634
181.952,251.055225638
181.967,250.877060482
181.982,250.698006255
181.997,250.518076901
182.012,250.337287245
182.027,250.15565303
182.042,249.97319093
182.057,249.789918594
182.06,249.753168521
182.072,249.605854669
182.087,249.421018829
182.102,249.235431802
182.117,249.049115406
182.132,248.862092569
182.147,248.674387369
182.162,248.486025057
182.177,248.297032087
182.192,248.107436139
182.207,247.917266166
182.222,247.726552396
182.237,247.535326377
182.252,247.343621002
182.267,247.151470521
182.282,246.958910582
182.297,246.765978245
182.312,246.572712003
182.327,246.379151806
182.342,246.185339075
182.357,245.991316722
182.372,245.797129153
182.387,245.602822297
182.402,245.408443593
182.417,245.214042006
182.432,245.019668023
182.447,244.825373647
182.462,244.631212391
182.477,244.437239258
182.492,244.243510718
182.507,244.050084682
182.522,243.857020462
182.537,243.664378722
182.552,243.472221418
182.567,243.280611734
182.582,243.089613985
182.597,242.899293528
182.612,242.709716632
182.627,242.52095034
182.642,242.33306231
182.657,242.146120609
182.672,241.960193499
182.687,241.775349165
182.702,241.59165541
182.717,241.409179305
182.732,241.227986759
182.747,241.048142049
182.762,240.869707247
182.777,240.692741563
182.792,240.517300585
182.807,240.343435365
182.822,240.171191378
182.837,240.00060728
182.852,239.831713454
182.867,239.66453029
182.882,239.499066152
182.897,239.335314962
182.912,239.173253308
182.927,239.012837003
182.942,238.853996923
182.957,238.696633996
182.972,238.540613096
182.987,238.385755606
183.002,238.231830274
183.017,238.078541906
183.032,237.925517363
183.047,237.772288026
183.062,237.618267806
183.077,237.462725452
183.092,237.304749516
183.107,237.14320416
183.122,236.97667361
183.137,236.803393387
183.152,236.621167761
183.167,236.427277354
183.182,236.218392505
183.197,235.990537434
183.212,235.739220862
183.227,235.460014617
183.242,235.150230577
183.257,234.813058289
183.367,234.885716663
183.382,235.212470745
183.397,235.510043361
183.412,235.777372166
183.427,236.017862042
183.442,236.236060918
183.457,236.436359831
183.472,236.622572247
183.487,236.797864446
183.502,236.964811904
183.517,237.12549028
183.532,237.281566277
183.547,237.434376844
183.562,237.584994482
183.577,237.734279697
183.592,237.88292267
183.607,238.031476244
183.622,238.180382021
183.637,238.329991112
183.652,238.48058067
183.667,238.632367143
183.682,238.78551698
183.697,238.940155279
183.712,239.096372862
183.727,239.254232081
183.742,239.413771569
183.757,239.575010218
183.772,239.737950461
183.787,239.902581025
183.802,240.068879237
183.817,240.236812972
183.832,240.406342298
183.847,240.577420859
183.862,240.74999707
183.877,240.924015108
183.892,241.099415789
183.907,241.276137289
183.922,241.45411578
183.937,241.63328597
183.952,241.813581549
183.967,241.994935608
183.982,242.177280959
183.997,242.360550442
184.012,242.54467716
184.027,242.729594704
184.042,242.915237328
184.057,243.101540111
184.072,243.288439083
184.087,243.47587134
184.102,243.663775138
184.117,243.852089971
184.132,244.040756635
184.147,244.229717283
184.162,244.41891547
184.177,244.608296181
184.192,244.797805864
184.207,244.987392439
184.222,245.177005323
184.237,245.366595427
184.252,245.556115163
184.267,245.745518441
184.282,245.934760666
184.297,246.12379872
184.312,246.312590964
184.327,246.501097212
184.342,246.689278719
184.357,246.877098162
184.372,247.064519615
184.387,247.251508538
184.402,247.438031742
184.417,247.624057368
184.432,247.809554864
184.447,247.994494958
184.462,248.178849627
184.477,248.362592078
184.492,248.545696706
184.507,248.728139084
184.522,248.909895913
184.537,249.090945017
184.552,249.271265288
184.56,249.367131126
184.567,249.450836684
184.582,249.629640176
184.597,249.80765774
184.612,249.984872308
184.627,250.161267756
184.642,250.336828872
184.657,250.51154132
184.672,250.685391623
184.687,250.858367131
184.702,251.030455992
184.717,251.201647134
184.732,251.371930228
184.747,251.541295672
184.762,251.70973456
184.777,251.877238663
184.792,252.043800401
184.807,252.209412822
184.822,252.374069577
184.837,252.537764898
184.852,252.700493579
184.867,252.862250956
184.882,253.023032881
184.897,253.182835702
184.912,253.341656251
184.927,253.499491818
184.942,253.656340136
184.957,253.812199361
184.972,253.967068056
184.987,254.120945175
185.002,254.273830044
185.017,254.425722349
185.032,254.576622118
185.047,254.726529705
185.062,254.875445781
185.077,255.023371316
185.092,255.170307565
185.107,255.31625606
185.122,255.461218587
185.137,255.605197189
185.152,255.748194143
185.167,255.890211957
185.182,256.031253346
185.197,256.171321239
185.212,256.310418753
185.227,256.448549199
185.242,256.585716055
185.257,256.721922974
185.272,256.857173765
185.287,256.991472386
185.302,257.124822939
185.31,257.195557038
185.317,257.257229662
185.332,257.38869692
185.347,257.519229195
185.362,257.64883109
185.377,257.777507307
185.392,257.905262654
185.407,258.032102032
185.422,258.158030433
185.437,258.283052928
185.452,258.407174668
185.467,258.530400878
185.482,258.652736853
185.497,258.774187946
185.512,258.894759572
185.527,259.0144572
185.542,259.133286348
185.557,259.25125258
185.572,259.368361506
185.587,259.484618767
185.602,259.600030048
185.617,259.714601058
185.632,259.828337539
185.647,259.941245259
185.662,260.053330003
185.677,260.16459758
185.692,260.275053813
185.707,260.38470454
185.722,260.493555616
185.737,260.601612894
185.752,260.708882242
185.767,260.815369532
185.782,260.921080634
185.797,261.026021423
185.812,261.130197773
185.827,261.233615548
185.842,261.336280614
185.857,261.438198832
185.872,261.539376044
185.887,261.639818091
185.902,261.739530802
185.917,261.83851999
185.932,261.936791456
185.947,262.034350984
185.96,262.118331157
185.962,262.131204342
185.977,262.227357284
185.992,262.322815537
186.007,262.417584816
186.022,262.511670809
186.037,262.605079187
186.052,262.697815592
186.06,262.747002191
186.067,262.78988565
186.082,262.881294958
186.097,262.972049088
186.112,263.062153587
186.127,263.15161397
186.142,263.240435733
186.157,263.32862434
186.172,263.416185225
186.187,263.503123794
186.202,263.589445422
186.217,263.675155456
186.232,263.760259212
186.247,263.844761971
186.262,263.928668986
186.277,264.011985481
186.292,264.094716639
186.307,264.176867617
186.322,264.258443538
186.337,264.339449489
186.352,264.419890525
186.367,264.499771668
186.382,264.579097907
186.397,264.657874189
186.412,264.736105439
186.427,264.813796534
186.442,264.890952329
186.457,264.967577632
186.472,265.043677223
186.487,265.119255849
186.502,265.194318213
186.517,265.268868989
186.532,265.342912813
186.547,265.416454288
186.562,265.489497978
186.577,265.562048415
186.592,265.63411009
186.607,265.705687466
186.622,265.776784963
186.637,265.847406967
186.652,265.917557832
186.667,265.987241874
186.682,266.056463371
186.697,266.125226572
186.71,266.184453885
186.712,266.193535681
186.727,266.261394877
186.742,266.328808293
186.757,266.395780036
186.772,266.462314173
186.787,266.528414736
186.802,266.594085726
186.817,266.659331105
186.832,266.724154796
186.847,266.7885607
186.862,266.852552672
186.877,266.916134536
186.892,266.979310083
186.907,267.042083071
186.922,267.104457221
186.937,267.166436221
186.952,267.228023725
186.967,267.289223355
186.982,267.350038696
186.997,267.410473307
187.012,267.470530705
187.027,267.53021438
187.042,267.589527788
187.057,267.648474352
187.072,267.707057463
187.087,267.765280479
187.102,267.823146726
187.117,267.880659499
187.132,267.93782206
187.147,267.994637641
187.162,268.051109443
187.177,268.107240635
187.192,268.163034353
187.207,268.218493709
187.222,268.273621775
187.237,268.328421601
187.252,268.382896202
187.267,268.437048564
187.282,268.490881645
187.297,268.544398374
187.312,268.597601644
187.327,268.650494331
187.342,268.703079269
187.357,268.755359272
187.372,268.807337123
187.387,268.859015577
187.402,268.910397357
187.417,268.961485165
187.432,269.012281672
187.447,269.062789518
187.46,269.106331515
187.462,269.113011322
187.477,269.162949672
187.492,269.21260713
187.507,269.261986233
187.522,269.311089489
187.537,269.359919379
187.552,269.408478362
187.567,269.456768868
187.582,269.504793301
187.597,269.552554043
187.612,269.600053445
187.627,269.647293843
187.642,269.694277534
187.657,269.741006802
187.672,269.787483902
187.687,269.833711063
187.702,269.879690496
187.717,269.925424381
187.732,269.97091488
187.747,270.016164128
187.762,270.061174238
187.777,270.1059473
187.792,270.150485381
187.807,270.194790525
187.822,270.238864754
187.837,270.282710067
187.852,270.326328442
187.867,270.369721836
187.882,270.41289218
187.897,270.455841387
187.912,270.498571348
187.927,270.541083933
187.942,270.583380989
187.957,270.625464345
187.972,270.66733581
187.987,270.708997168
188.002,270.750450189
188.017,270.791696613
188.032,270.832738172
188.047,270.87357657
188.062,270.914213499
188.077,270.954650619
188.092,270.994889586
188.107,271.034932024
188.122,271.074779545
188.137,271.114433744
188.152,271.153896192
188.167,271.193168444
188.182,271.232252037
188.197,271.271148493
188.21,271.304708539
188.212,271.30985931
188.227,271.348385969
188.242,271.38672994
188.257,271.424892672
188.272,271.462875594
188.287,271.50068012
188.302,271.538307649
188.317,271.57575956
188.332,271.613037219
188.347,271.650141972
188.362,271.687075151
188.377,271.723838072
188.392,271.760432035
188.407,271.796858319
188.422,271.833118199
188.437,271.869212923
188.452,271.905143729
188.467,271.94091184
188.482,271.97651846
188.497,272.011964784
188.512,272.047251989
188.527,272.082381236
188.542,272.117353675
188.557,272.152170438
188.572,272.186832645
188.587,272.221341404
188.602,272.255697804
188.617,272.289902926
188.632,272.323957831
188.647,272.357863572
188.66,272.387128693
188.662,272.391621188
188.677,272.425231699
188.692,272.45869612
188.707,272.492015447
188.722,272.525190667
188.737,272.558222753
