# 01004 ENAS Ny-Alesund Ii Observations at 12Z 19 Oct 2019
Frequency [GHz],TB
175.31,227.404828021
175.322,227.473876438
175.337,227.560300661
175.352,227.646850524
175.367,227.733525271
175.382,227.820324133
175.397,227.907246328
175.412,227.994291058
175.427,228.081457514
175.442,228.168744872
175.457,228.256152293
175.472,228.343678925
175.487,228.4313239
175.502,228.519086337
175.517,228.606965341
175.532,228.69496
175.547,228.783069388
175.562,228.871292565
175.577,228.959628573
175.592,229.048076443
175.607,229.136635187
175.622,229.225303803
175.637,229.314081272
175.652,229.402966559
175.667,229.491958615
175.682,229.581056373
175.697,229.67025875
175.712,229.759564648
175.727,229.848972949
175.742,229.938482523
175.757,230.028092216
175.772,230.117800866
175.787,230.207607285
175.802,230.297510275
175.817,230.387508615
175.832,230.47760107
175.847,230.567786385
175.862,230.658063287
175.877,230.748430487
175.892,230.838886676
175.907,230.929430526
175.922,231.020060692
175.937,231.11077581
175.952,231.201574497
175.967,231.29245535
175.982,231.383416949
175.997,231.474457852
176.012,231.565576598
176.027,231.65677171
176.042,231.748041687
176.057,231.839385009
176.072,231.930800137
176.087,232.022285512
176.102,232.113839552
176.117,232.205460658
176.132,232.297147208
176.147,232.38889756
176.162,232.480710051
176.177,232.572582996
176.192,232.66451469
176.207,232.756503406
176.222,232.848547395
176.237,232.940644886
176.252,233.032794089
176.267,233.124993187
176.282,233.217240345
176.297,233.309533704
176.31,233.389557199
176.312,233.401871382
176.327,233.494251476
176.342,233.586672058
176.357,233.679131179
176.372,233.771626868
176.387,233.864157126
176.402,233.956719935
176.417,234.049313252
176.432,234.14193501
176.447,234.23458312
176.46,234.31489783
176.462,234.327255467
176.477,234.419949913
176.492,234.512664295
176.507,234.605396427
176.522,234.698144097
176.537,234.790905068
176.552,234.883677081
176.567,234.976457849
176.582,235.069245063
176.597,235.162036387
176.612,235.254829458
176.627,235.347621891
176.642,235.440411275
176.657,235.53319517
176.672,235.625971114
176.687,235.718736618
176.702,235.811489166
176.717,235.904226218
176.732,235.996945205
176.747,236.089643533
176.762,236.182318583
176.777,236.274967706
176.792,236.36758823
176.807,236.460177454
176.822,236.552732651
176.837,236.645251066
176.852,236.737729918
176.867,236.830166399
176.882,236.922557674
176.897,237.01490088
176.912,237.107193125
176.927,237.199431492
176.942,237.291613037
176.957,237.383734785
176.972,237.475793736
176.987,237.567786863
177.002,237.659711107
177.017,237.751563386
177.032,237.843340588
177.047,237.935039572
177.062,238.02665717
177.077,238.118190186
177.092,238.209635396
177.107,238.300989547
177.122,238.39224936
177.137,238.483411525
177.152,238.574472705
177.167,238.665429536
177.182,238.756278623
177.197,238.847016546
177.21,238.925563493
177.212,238.937639853
177.227,239.028145068
177.242,239.118528684
177.257,239.208787166
177.272,239.298916951
177.287,239.388914449
177.302,239.478776041
177.31,239.526645393
177.317,239.568498078
177.332,239.658076887
177.347,239.747508764
177.362,239.836789977
177.377,239.925916769
177.392,240.014885352
177.407,240.103691911
177.422,240.192332605
177.437,240.280803563
177.452,240.369100889
177.467,240.457220657
177.482,240.545158917
177.497,240.632911688
177.512,240.720474967
177.527,240.807844718
177.542,240.895016884
177.557,240.981987378
177.572,241.068752088
177.587,241.155306875
177.602,241.241647574
177.617,241.327769994
177.632,241.41366992
177.647,241.49934311
177.66,241.573406506
177.662,241.584785297
177.677,241.669992188
177.692,241.754959467
177.707,241.839682791
177.722,241.924157796
177.737,242.008380092
177.752,242.092345265
177.767,242.176048877
177.782,242.259486468
177.797,242.342653556
177.812,242.425545632
177.827,242.508158171
177.842,242.59048662
177.857,242.672526409
177.872,242.754272942
177.887,242.835721608
177.902,242.916867771
177.917,242.997706776
177.932,243.078233948
177.947,243.158444593
177.96,243.227700809
177.962,243.238333999
177.977,243.317897434
177.992,243.397130148
178.007,243.476027374
178.022,243.554584328
178.037,243.632796208
178.052,243.710658199
178.067,243.788165466
178.082,243.865313162
178.097,243.942096425
178.112,244.018510377
178.127,244.094550128
178.142,244.170210777
178.157,244.245487406
178.172,244.320375089
178.187,244.394868888
178.202,244.468963853
178.217,244.542655025
178.232,244.615937438
178.247,244.688806113
178.262,244.761256067
178.277,244.833282308
178.292,244.904879837
178.307,244.976043651
178.322,245.046768739
178.337,245.11705009
178.352,245.186882687
178.367,245.256261508
178.382,245.325181532
178.397,245.393637737
178.41,245.452587387
178.412,245.461625099
178.427,245.529138596
178.442,245.596173206
178.457,245.662723909
178.472,245.728785689
178.487,245.794353534
178.502,245.859422436
178.517,245.923987394
178.532,245.98804341
178.547,246.0515855
178.562,246.114608683
178.577,246.17710799
178.592,246.239078461
178.607,246.300515149
178.622,246.36141312
178.637,246.42176745
178.652,246.481573235
178.667,246.540825581
178.682,246.599519614
178.697,246.657650478
178.712,246.715213334
178.727,246.772203364
178.742,246.82861577
178.757,246.884445777
178.772,246.939688634
178.787,246.994339613
178.802,247.048394011
178.817,247.101847154
178.832,247.154694394
178.847,247.206931112
178.862,247.258552722
178.877,247.309554665
178.892,247.359932419
178.907,247.409681492
178.922,247.45879743
178.937,247.507275813
178.952,247.555112262
178.967,247.602302434
178.982,247.648842026
178.997,247.694726777
179.012,247.739952469
179.027,247.784514928
179.042,247.828410024
179.057,247.871633674
179.072,247.914181843
179.087,247.956050545
179.102,247.997235844
179.117,248.037733854
179.132,248.077540747
179.147,248.116652741
179.16,248.149984832
179.162,248.155066118
179.177,248.192777211
179.192,248.229782412
179.207,248.266078173
179.222,248.301661009
179.237,248.336527491
179.252,248.370674259
179.267,248.404098015
179.282,248.436795524
179.297,248.468763624
179.312,248.499999215
179.327,248.530499271
179.342,248.560260834
179.357,248.589281019
179.372,248.617557014
179.387,248.64508608
179.402,248.671865557
179.417,248.697892856
179.432,248.723165472
179.447,248.747680975
179.462,248.771437017
179.477,248.79443133
179.492,248.816661729
179.507,248.838126112
179.522,248.858822462
179.537,248.878748848
179.552,248.897903425
179.567,248.916284434
179.582,248.933890207
179.597,248.950719166
179.612,248.966769819
179.627,248.982040771
179.642,248.996530716
179.657,249.01023844
179.672,249.023162826
179.687,249.035302849
179.702,249.046657581
179.717,249.057226191
179.732,249.06700794
179.747,249.076002193
179.762,249.084208409
179.777,249.091626147
179.792,249.098255064
179.807,249.104094919
179.822,249.109145569
179.837,249.113406974
179.852,249.116879193
179.867,249.119562386
179.882,249.121456818
179.897,249.122562853
179.91,249.122884049
179.912,249.122880957
179.927,249.122411702
179.942,249.121155759
179.957,249.119113903
179.972,249.11628701
179.987,249.112676063
180.002,249.108282144
180.017,249.103106437
180.032,249.097150232
180.047,249.090414918
180.062,249.082901987
180.077,249.074613034
180.092,249.065549752
180.107,249.05571394
180.122,249.045107493
180.137,249.033732407
180.152,249.021590779
180.167,249.008684804
180.182,248.995016774
180.197,248.980589081
180.212,248.965404211
180.227,248.949464749
180.242,248.93277337
180.257,248.91533285
180.272,248.897146051
180.287,248.878215932
180.302,248.858545542
180.317,248.838138019
180.332,248.81699659
180.347,248.795124569
180.362,248.772525358
180.377,248.749202441
180.392,248.725159389
180.407,248.700399852
180.422,248.674927561
180.437,248.648746329
180.452,248.621860042
180.467,248.594272665
180.482,248.565988237
180.497,248.537010867
180.512,248.507344738
180.527,248.476994099
180.542,248.445963269
180.557,248.414256631
180.56,248.407834596
180.572,248.381878629
180.587,248.348833773
180.602,248.315126629
180.617,248.280761821
180.632,248.24574403
180.647,248.210077988
180.66,248.178646754
180.662,248.173768481
180.677,248.136820342
180.692,248.099238453
180.707,248.061027737
180.722,248.022193165
180.737,247.982739745
180.752,247.942672524
180.767,247.901996586
180.782,247.860717048
180.797,247.818839059
180.812,247.776367797
180.827,247.733308468
180.842,247.689666303
180.857,247.645446555
180.872,247.600654498
180.887,247.555295424
180.902,247.509374642
180.917,247.462897474
180.932,247.415869254
180.947,247.368295327
180.962,247.320181042
180.977,247.271531758
180.992,247.222352834
181.007,247.172649632
181.022,247.122427512
181.037,247.071691833
181.052,247.020447948
181.067,246.968701206
181.082,246.916456944
181.097,246.863720493
181.112,246.810497171
181.127,246.75679228
181.142,246.702611112
181.157,246.647958939
181.172,246.592841017
181.187,246.537262582
181.202,246.48122885
181.217,246.424745016
181.232,246.36781625
181.247,246.310447701
181.262,246.252644492
181.277,246.194411719
181.292,246.135754456
181.307,246.076677745
181.31,246.064812511
181.322,246.017186604
181.337,245.957286021
181.352,245.896980959
181.367,245.836276349
181.382,245.775177095
181.397,245.713688074
181.412,245.651814134
181.427,245.589560093
181.442,245.526930746
181.457,245.463930857
181.472,245.400565168
181.487,245.336838394
181.502,245.272755224
181.517,245.208320329
181.532,245.143538355
181.547,245.078413929
181.562,245.01295166
181.577,244.947156142
181.592,244.881031954
181.607,244.814583662
181.622,244.747815824
181.637,244.680732991
181.652,244.61333971
181.667,244.545640526
181.682,244.477639987
181.697,244.409342646
181.712,244.340753066
181.727,244.271875823
181.742,244.202715508
181.757,244.133276736
181.772,244.063564145
181.787,243.993582405
181.802,243.92333622
181.817,243.852830336
181.832,243.782069541
181.847,243.711058677
181.862,243.639802641
181.877,243.568306393
181.892,243.496574963
181.907,243.424613453
181.922,243.352427049
181.937,243.280021025
181.952,243.207400749
181.967,243.134571691
181.982,243.061539434
181.997,242.988309674
182.012,242.914888233
182.027,242.841281067
182.042,242.767494269
182.057,242.693534084
182.06,242.678721801
182.072,242.61940691
182.087,242.545119311
182.102,242.470678024
182.117,242.396089964
182.132,242.321362238
182.147,242.246502148
182.162,242.1715172
182.177,242.096415114
182.192,242.021203828
182.207,241.94589151
182.222,241.870486558
182.237,241.794997613
182.252,241.719433562
182.267,241.643803541
182.282,241.568116946
182.297,241.49238343
182.312,241.416612907
182.327,241.340815557
182.342,241.265001823
182.357,241.18918241
182.372,241.113368282
182.387,241.03757066
182.402,240.961801007
182.417,240.886071028
182.432,240.810392648
182.447,240.734778002
182.462,240.659239414
182.477,240.583789369
182.492,240.50844049
182.507,240.4332055
182.522,240.358097184
182.537,240.283128338
182.552,240.208311718
182.567,240.133659975
182.582,240.059185578
182.597,239.984900731
182.612,239.910817277
182.627,239.836946577
182.642,239.763299385
182.657,239.689885696
182.672,239.616714572
182.687,239.543793943
182.702,239.471130381
182.717,239.39872883
182.732,239.326592305
182.747,239.254721541
182.762,239.183114583
182.777,239.111766312
182.792,239.040667898
182.807,238.969806151
182.822,238.899162776
182.837,238.828713483
182.852,238.758426949
182.867,238.688263575
182.882,238.618174023
182.897,238.548097451
182.912,238.477959398
182.927,238.407669221
182.942,238.337116977
182.957,238.266169595
182.972,238.194666148
182.987,238.122411962
183.002,238.049171213
183.017,237.974657514
183.032,237.898521845
183.047,237.820336852
183.062,237.739576163
183.077,237.655586695
183.092,237.567550929
183.107,237.474434485
183.122,237.374911574
183.137,237.267256204
183.152,237.149178655
183.167,237.017571216
183.182,236.868097366
183.197,236.694498355
183.212,236.487363293
183.227,236.231823888
183.242,235.902976455
183.257,235.456366488
183.367,235.570687923
183.382,235.978555473
183.397,236.282627838
183.412,236.521065817
183.427,236.715591281
183.442,236.879375845
183.457,237.020868478
183.472,237.145750921
183.487,237.25799608
183.502,237.360472605
183.517,237.455307233
183.532,237.544111338
183.547,237.628127942
183.562,237.708330286
183.577,237.785489834
183.592,237.8602244
183.607,237.933032944
183.622,238.004321251
183.637,238.074421174
183.652,238.143605306
183.667,238.212098297
183.682,238.280085688
183.697,238.3477209
183.712,238.415130791
183.727,238.482420137
183.742,238.549675261
183.757,238.616966996
183.772,238.684353125
183.787,238.751880401
183.802,238.819586226
183.817,238.887500057
183.832,238.955644592
183.847,239.024036768
183.862,239.092688611
183.877,239.161607959
183.892,239.230799077
183.907,239.300263194
183.922,239.369998953
183.937,239.440002806
183.952,239.510269357
183.967,239.580791651
183.982,239.651561435
183.997,239.722569376
184.012,239.793805255
184.027,239.865258133
184.042,239.936916503
184.057,240.008768407
184.072,240.080801556
184.087,240.153003419
184.102,240.225361312
184.117,240.297862463
184.132,240.370494082
184.147,240.443243408
184.162,240.516097761
184.177,240.589044575
184.192,240.662071438
184.207,240.735166113
184.222,240.80831657
184.237,240.881510997
184.252,240.95473782
184.267,241.027985717
184.282,241.101243625
184.297,241.174500747
184.312,241.247746559
184.327,241.320970814
184.342,241.39416354
184.357,241.467315041
184.372,241.540415899
184.387,241.613456968
184.402,241.686429371
184.417,241.759324495
184.432,241.832133992
184.447,241.904849763
184.462,241.977463961
184.477,242.04996898
184.492,242.122357449
184.507,242.194622224
184.522,242.266756384
184.537,242.338753216
184.552,242.410606216
184.56,242.448866819
184.567,242.482309076
184.582,242.553855676
184.597,242.625240078
184.612,242.696456519
184.627,242.767499398
184.642,242.838363275
184.657,242.90904286
184.672,242.979533005
184.687,243.049828696
184.702,243.119925049
184.717,243.1898173
184.732,243.2595008
184.747,243.328971006
184.762,243.398223475
184.777,243.46725386
184.792,243.5360579
184.807,243.604631417
184.822,243.672970309
184.837,243.741070543
184.852,243.808928152
184.867,243.876539229
184.882,243.94389992
184.897,244.011006422
184.912,244.077854976
184.927,244.144441864
184.942,244.210763404
184.957,244.276815946
184.972,244.342595869
184.987,244.408099574
185.002,244.473323485
185.017,244.538264044
185.032,244.602917707
185.047,244.667280938
185.062,244.731350215
185.077,244.795122018
185.092,244.858592832
185.107,244.921759141
185.122,244.984617431
185.137,245.047164182
185.152,245.10939587
185.167,245.171308965
185.182,245.232899926
185.197,245.294165204
185.212,245.355101239
185.227,245.415704459
185.242,245.475971276
185.257,245.53589809
185.272,245.595481286
185.287,245.654717232
185.302,245.713602279
185.31,245.744862895
185.317,245.772132763
185.332,245.830305002
185.347,245.888115296
185.362,245.945559927
185.377,246.002635162
185.392,246.059337248
185.407,246.115662415
185.422,246.171606875
185.437,246.227166826
185.452,246.282338446
185.467,246.337117899
185.482,246.391501334
185.497,246.445484883
185.512,246.499064667
185.527,246.55223679
185.542,246.604997347
185.557,246.657342419
185.572,246.709268077
185.587,246.760770383
185.602,246.81184539
185.617,246.862489143
185.632,246.912697681
185.647,246.962467038
185.662,247.011793245
185.677,247.060672328
185.692,247.109100315
185.707,247.157073232
185.722,247.204587106
185.737,247.251637968
185.752,247.298221854
185.767,247.344334805
185.782,247.389972868
185.797,247.4351321
185.812,247.47980857
185.827,247.523998357
185.842,247.567697553
185.857,247.610902266
185.872,247.65360862
185.887,247.695812759
185.902,247.737510844
185.917,247.778699059
185.932,247.819373612
185.947,247.859530732
185.96,247.893912131
185.962,247.899166677
185.977,247.938277733
185.992,247.976860213
186.007,248.014910464
186.022,248.052424861
186.037,248.089399818
186.052,248.125831781
186.06,248.145038921
186.067,248.161717234
186.082,248.1970527
186.097,248.231834741
186.112,248.266059961
186.127,248.299725009
186.142,248.332826574
186.157,248.365361395
186.172,248.397326255
186.187,248.428717988
186.202,248.459533476
186.217,248.489769653
186.232,248.519423505
186.247,248.548492073
186.262,248.576972451
186.277,248.60486179
186.292,248.632157298
186.307,248.658856243
186.322,248.684955949
186.337,248.710453803
186.352,248.735347255
186.367,248.759633815
186.382,248.783311055
186.397,248.806376616
186.412,248.828828202
186.427,248.850663583
186.442,248.871880595
186.457,248.892477145
186.472,248.912451205
186.487,248.931800819
186.502,248.950524099
186.517,248.968619229
186.532,248.986084462
186.547,249.002918127
186.562,249.01911862
186.577,249.034684413
186.592,249.049614051
186.607,249.063906151
186.622,249.077559406
186.637,249.090572582
186.652,249.102944519
186.667,249.114674135
186.682,249.125760419
186.697,249.136202439
186.71,249.144730385
186.712,249.145999335
186.727,249.155150326
186.742,249.163654705
186.757,249.171511841
186.772,249.178721179
186.787,249.185282239
186.802,249.191194617
186.817,249.196457987
186.832,249.201072094
186.847,249.205036764
186.862,249.208351894
186.877,249.211017458
186.892,249.213033504
186.907,249.214400155
186.922,249.215117609
186.937,249.215186138
186.952,249.214606086
186.967,249.213377871
186.982,249.211501986
186.997,249.208978994
187.012,249.205809531
187.027,249.201994305
187.042,249.197534095
187.057,249.19242975
187.072,249.186682189
187.087,249.180292402
187.102,249.173261446
187.117,249.165590448
187.132,249.157280602
187.147,249.148333169
187.162,249.138749476
187.177,249.128530918
187.192,249.117678952
187.207,249.1061951
187.222,249.094080951
187.237,249.081338153
187.252,249.067968418
187.267,249.053973518
187.282,249.039355287
187.297,249.02411562
187.312,249.008256468
187.327,248.991779842
187.342,248.97468781
187.357,248.956982496
187.372,248.938666082
187.387,248.919740803
187.402,248.900208947
187.417,248.880072858
187.432,248.859334929
187.447,248.837997607
187.46,248.819022348
187.462,248.816063389
187.477,248.79353482
187.492,248.770414496
187.507,248.746705059
187.522,248.722409198
187.537,248.69752965
187.552,248.672069193
187.567,248.646030655
187.582,248.619416901
187.597,248.592230842
187.612,248.56447543
187.627,248.536153656
187.642,248.507268553
187.657,248.47782319
187.672,248.447820676
187.687,248.417264154
187.702,248.386156806
187.717,248.354501846
187.732,248.322302524
187.747,248.289562122
187.762,248.256283956
187.777,248.222471371
187.792,248.188127743
187.807,248.153256478
187.822,248.117861011
187.837,248.081944804
187.852,248.045511345
187.867,248.00856415
187.882,247.971106758
187.897,247.933142733
187.912,247.894675664
187.927,247.855709159
187.942,247.81624685
187.957,247.77629239
187.972,247.735849451
187.987,247.694921723
188.002,247.653512917
188.017,247.61162676
188.032,247.569266994
188.047,247.52643738
188.062,247.483141693
188.077,247.43938372
188.092,247.395167265
188.107,247.350496142
188.122,247.305374178
188.137,247.259805212
188.152,247.213793092
188.167,247.167341677
188.182,247.120454834
188.197,247.073136439
188.21,247.031781086
188.212,247.025390375
188.227,246.977220532
188.242,246.928630807
188.257,246.879625101
188.272,246.830207322
188.287,246.780381379
188.302,246.730151188
188.317,246.679520667
188.332,246.628493734
188.347,246.577074311
188.362,246.525266319
188.377,246.473073683
188.392,246.420500323
188.407,246.367550163
188.422,246.314227122
188.437,246.260535118
188.452,246.206478069
188.467,246.152059886
188.482,246.097284479
188.497,246.042155754
188.512,245.986677611
188.527,245.930853947
188.542,245.874688652
188.557,245.818185608
188.572,245.761348695
188.587,245.704181781
188.602,245.646688731
188.617,245.588873399
188.632,245.530739632
188.647,245.472291267
188.66,245.421384503
188.662,245.413532134
188.677,245.35446605
188.692,245.295096826
188.707,245.235428259
188.722,245.175464136
188.737,245.115208235
