# 48698 WSSS Singapore Observations at 12Z 16 Dec 2019
Frequency [GHz],TB
175.31,271.825278043
175.322,271.803013204
175.337,271.775119246
175.352,271.747155196
175.367,271.719120822
175.382,271.691015919
175.397,271.662840253
175.412,271.634593607
175.427,271.606275756
175.442,271.577886482
175.457,271.54942555
175.472,271.520892742
175.487,271.49228783
175.502,271.463610583
175.517,271.434860774
175.532,271.406038179
175.547,271.377142559
175.562,271.348173685
175.577,271.319131328
175.592,271.290015252
175.607,271.260825223
175.622,271.231561003
175.637,271.202222361
175.652,271.172809054
175.667,271.143320852
175.682,271.113757505
175.697,271.084118782
175.712,271.054404437
175.727,271.024614233
175.742,270.994747917
175.757,270.964805253
175.772,270.934785992
175.787,270.904689892
175.802,270.8745167
175.817,270.84426617
175.832,270.813938053
175.847,270.783532104
175.862,270.75304806
175.877,270.722485679
175.892,270.691844704
175.907,270.661124877
175.922,270.630325944
175.937,270.599447647
175.952,270.568489736
175.967,270.537451945
175.982,270.506334016
175.997,270.475135688
176.012,270.443856693
176.027,270.412496777
176.042,270.381055671
176.057,270.349533108
176.072,270.317928824
176.087,270.286242552
176.102,270.254474016
176.117,270.222622958
176.132,270.190689092
176.147,270.158672158
176.162,270.126571878
176.177,270.094387973
176.192,270.062120168
176.207,270.029768198
176.222,269.99733177
176.237,269.964810609
176.252,269.932204433
176.267,269.899512964
176.282,269.866735912
176.297,269.833872997
176.31,269.805322129
176.312,269.800923935
176.327,269.767888438
176.342,269.734766206
176.357,269.701556967
176.372,269.668260415
176.387,269.634876271
176.402,269.601404234
176.417,269.56784401
176.432,269.534195302
176.447,269.500457812
176.46,269.47114661
176.462,269.466631244
176.477,269.432715295
176.492,269.398709665
176.507,269.364614046
176.522,269.33042814
176.537,269.296151636
176.552,269.261784237
176.567,269.22732562
176.582,269.192775481
176.597,269.15813351
176.612,269.123399389
176.627,269.088572812
176.642,269.053653456
176.657,269.018641001
176.672,268.983535128
176.687,268.948335532
176.702,268.913041868
176.717,268.877653828
176.732,268.84217108
176.747,268.806593295
176.762,268.770920146
176.777,268.735151307
176.792,268.699286445
176.807,268.663325224
176.822,268.627267311
176.837,268.591112359
176.852,268.554860046
176.867,268.51851002
176.882,268.482061945
176.897,268.445515476
176.912,268.408870259
176.927,268.372125957
176.942,268.335282219
176.957,268.298338691
176.972,268.261295019
176.987,268.224150851
177.002,268.186905832
177.017,268.149559598
177.032,268.112111792
177.047,268.074562052
177.062,268.036910013
177.077,267.999155306
177.092,267.961297568
177.107,267.923336425
177.122,267.885271502
177.137,267.847102426
177.152,267.808828819
177.167,267.770450309
177.182,267.731966509
177.197,267.693377035
177.21,267.65984705
177.212,267.654681504
177.227,267.615879527
177.242,267.576970718
177.257,267.537954681
177.272,267.498831016
177.287,267.459599335
177.302,267.420259239
177.31,267.399233386
177.317,267.38081032
177.332,267.34125218
177.347,267.301584405
177.362,267.26180659
177.377,267.221918325
177.392,267.181919197
177.407,267.141808784
177.422,267.101586674
177.437,267.061252437
177.452,267.020805654
177.467,266.980245894
177.482,266.939572731
177.497,266.89878573
177.512,266.857884454
177.527,266.816868465
177.542,266.775737324
177.557,266.734490585
177.572,266.693127805
177.587,266.651648521
177.602,266.610052294
177.617,266.568338663
177.632,266.526507166
177.647,266.48455734
177.66,266.448104754
177.662,266.442488724
177.677,266.400300844
177.692,266.357993232
177.707,266.315565411
177.722,266.273016898
177.737,266.230347215
177.752,266.187555877
177.767,266.144642388
177.782,266.101606265
177.797,266.058447006
177.812,266.015164105
177.827,265.97175707
177.842,265.928225384
177.857,265.884568539
177.872,265.840786026
177.887,265.796877317
177.902,265.752841891
177.917,265.708679225
177.932,265.664388785
177.947,265.619970035
177.96,265.581369582
177.962,265.575422438
177.977,265.53074545
177.992,265.485938523
178.007,265.441001109
178.022,265.395932643
178.037,265.350732575
178.052,265.30540033
178.067,265.259935346
178.082,265.214337043
178.097,265.168604844
178.112,265.122738167
178.127,265.07673642
178.142,265.030599013
178.157,264.984325345
178.172,264.93791482
178.187,264.891366819
178.202,264.844680738
178.217,264.797855952
178.232,264.750891841
178.247,264.703787776
178.262,264.656543118
178.277,264.609157235
178.292,264.561629479
178.307,264.513959195
178.322,264.466145725
178.337,264.418188417
178.352,264.370086598
178.367,264.321839588
178.382,264.273446718
178.397,264.224907295
178.41,264.182720718
178.412,264.176220624
178.427,264.127386018
178.442,264.078402768
178.457,264.029270159
178.472,263.979987478
178.487,263.930554
178.502,263.880968996
178.517,263.831231733
178.532,263.781341457
178.547,263.73129743
178.562,263.681098891
178.577,263.630745069
178.592,263.580235207
178.607,263.529568514
178.622,263.478744209
178.637,263.427761504
178.652,263.376619594
178.667,263.325317669
178.682,263.273854922
178.697,263.222230519
178.712,263.170443642
178.727,263.118493446
178.742,263.066379088
178.757,263.014099712
178.772,262.961654454
178.787,262.909042446
178.802,262.85626281
178.817,262.803314656
178.832,262.75019709
178.847,262.696909206
178.862,262.643450095
178.877,262.589818834
178.892,262.536014485
178.907,262.482036124
178.922,262.427882791
178.937,262.373553532
178.952,262.319047378
178.967,262.264363358
178.982,262.20950048
178.997,262.15445775
179.012,262.099234163
179.027,262.043828712
179.042,261.988240363
179.057,261.932468089
179.072,261.876510831
179.087,261.820367556
179.102,261.764037182
179.117,261.70751864
179.132,261.650810843
179.147,261.593912698
179.16,261.544446142
179.162,261.536823094
179.177,261.47954091
179.192,261.422065022
179.207,261.364394293
179.222,261.306527565
179.237,261.248463678
179.252,261.190201462
179.267,261.131739728
179.282,261.073077274
179.297,261.0142129
179.312,260.955145384
179.327,260.895873492
179.342,260.836395982
179.357,260.776711594
179.372,260.716819065
179.387,260.656717104
179.402,260.596404425
179.417,260.535879722
179.432,260.475141671
179.447,260.414188945
179.462,260.353020195
179.477,260.291634067
179.492,260.230029184
179.507,260.168204168
179.522,260.106157618
179.537,260.043888118
179.552,259.98139425
179.567,259.918674566
179.582,259.855727622
179.597,259.792551943
179.612,259.72914605
179.627,259.66550844
179.642,259.60163762
179.657,259.537532046
179.672,259.473190186
179.687,259.408610485
179.702,259.343791367
179.717,259.278731251
179.732,259.213428537
179.747,259.147881606
179.762,259.082088827
179.777,259.016048554
179.792,258.949759119
179.807,258.883218844
179.822,258.816426034
179.837,258.749378976
179.852,258.682075936
179.867,258.614515174
179.882,258.546694929
179.897,258.478613414
179.91,258.419396711
179.912,258.410268839
179.927,258.341659379
179.942,258.272783208
179.957,258.203638485
179.972,258.134223329
179.987,258.06453586
180.002,257.994574174
180.017,257.924336349
180.032,257.853820444
180.047,257.783024499
180.062,257.711946531
180.077,257.640584545
180.092,257.56893653
180.107,257.497000437
180.122,257.424774218
180.137,257.352255787
180.152,257.279443057
180.167,257.206333908
180.182,257.132926196
180.197,257.059217765
180.212,256.98520644
180.227,256.910890011
180.242,256.836266261
180.257,256.761332941
180.272,256.686087783
180.287,256.6105285
180.302,256.534652782
180.317,256.458458289
180.332,256.381942664
180.347,256.305103526
180.362,256.227938469
180.377,256.150445067
180.392,256.072620862
180.407,255.994463379
180.422,255.915970111
180.437,255.837138534
180.452,255.757966093
180.467,255.678450209
180.482,255.598588272
180.497,255.518377657
180.512,255.437815695
180.527,255.356899712
180.542,255.275626986
180.557,255.193994782
180.56,255.177624961
180.572,255.112000326
180.587,255.029640818
180.602,254.946913433
180.617,254.863815315
180.632,254.780343578
180.647,254.696495303
180.66,254.623519948
180.662,254.612267546
180.677,254.527657329
180.692,254.442661636
180.707,254.357277433
180.722,254.271501645
180.737,254.185331168
180.752,254.098762851
180.767,254.011793535
180.782,253.924420003
180.797,253.836639024
180.812,253.748447312
180.827,253.659841557
180.842,253.570818414
180.857,253.481374491
180.872,253.391506376
180.887,253.301210607
180.902,253.210483687
180.917,253.11932208
180.932,253.027722214
180.947,252.935680468
180.962,252.843193195
180.977,252.7502567
180.992,252.656867249
181.007,252.563021059
181.022,252.46871432
181.037,252.373943162
181.052,252.278703686
181.067,252.182991941
181.082,252.086803933
181.097,251.990135625
181.112,251.89298294
181.127,251.795341742
181.142,251.697207865
181.157,251.598577077
181.172,251.499445114
181.187,251.399807665
181.202,251.299660356
181.217,251.198998782
181.232,251.097818482
181.247,250.996114937
181.262,250.893883588
181.277,250.791119825
181.292,250.687818984
181.307,250.583976355
181.31,250.563142394
181.322,250.47958717
181.337,250.374646618
181.352,250.269149826
181.367,250.16309188
181.382,250.056467802
181.397,249.949272572
181.412,249.84150112
181.427,249.733148307
181.442,249.62420896
181.457,249.514677849
181.472,249.404549688
181.487,249.293819139
181.502,249.182480822
181.517,249.070529295
181.532,248.957959077
181.547,248.844764623
181.562,248.730940356
181.577,248.616480641
181.592,248.5013798
181.607,248.385632108
181.622,248.269231796
181.637,248.152173058
181.652,248.034450033
181.667,247.916056825
181.682,247.796987527
181.697,247.677236161
181.712,247.556796741
181.727,247.435663237
181.742,247.3138296
181.757,247.191289764
181.772,247.068037639
181.787,246.944067119
181.802,246.819372097
181.817,246.693946446
181.832,246.567784057
181.847,246.440878819
181.862,246.313224633
181.877,246.18481543
181.892,246.055645165
181.907,245.925707827
181.922,245.794997451
181.937,245.66350814
181.952,245.531234044
181.967,245.398169416
181.982,245.264308587
181.997,245.129645994
182.012,244.994176198
182.027,244.857893888
182.042,244.720793928
182.057,244.582871336
182.06,244.555187675
182.072,244.444121331
182.087,244.304539344
182.102,244.164121052
182.117,244.022862394
182.132,243.8807596
182.147,243.737809215
182.162,243.594008155
182.177,243.449353714
182.192,243.303843602
182.207,243.157476009
182.222,243.010249624
182.237,242.862163681
182.252,242.713218024
182.267,242.563413144
182.282,242.412750239
182.297,242.261231274
182.312,242.108859041
182.327,241.955637229
182.342,241.801570498
182.357,241.64666455
182.372,241.490926206
182.387,241.334363515
182.402,241.176985807
182.417,241.018803825
182.432,240.85982982
182.447,240.700077625
182.462,240.539562826
182.477,240.378302834
182.492,240.216317041
182.507,240.053626927
182.522,239.890256233
182.537,239.726231066
182.552,239.56158008
182.567,239.396334628
182.582,239.230528927
182.597,239.064200213
182.612,238.897388948
182.627,238.730138964
182.642,238.562497685
182.657,238.394516295
182.672,238.226249949
182.687,238.05775797
182.702,237.88910403
182.717,237.720356374
182.732,237.551588031
182.747,237.382876993
182.762,237.214306425
182.777,237.045964878
182.792,236.877946461
182.807,236.710351051
182.822,236.543284459
182.837,236.376858617
182.852,236.211191749
182.867,236.046408545
182.882,235.88264032
182.897,235.720025179
182.912,235.558708217
182.927,235.398841706
182.942,235.240585348
182.957,235.084106579
182.972,234.929580988
182.987,234.777192848
183.002,234.627135872
183.017,234.47961426
183.032,234.334844098
183.047,234.19305533
183.062,234.054494372
183.077,233.919427647
183.092,233.788146231
183.107,233.660971886
183.122,233.538264701
183.137,233.420432542
183.152,233.307942265
183.167,233.201332351
183.182,233.10122601
183.197,233.008342784
183.212,232.923505483
183.227,232.847637495
183.242,232.781744423
183.257,232.726873542
183.367,232.72723989
183.382,232.781756825
183.397,232.847049765
183.412,232.922078459
183.427,233.005856231
183.442,233.097484516
183.457,233.196166793
183.472,233.301208401
183.487,233.412008156
183.502,233.528046184
183.517,233.64887088
183.532,233.774086605
183.547,233.903342906
183.562,234.036325588
183.577,234.172749494
183.592,234.312352842
183.607,234.454892917
183.622,234.600142772
183.637,234.747888772
183.652,234.897928829
183.667,235.050071067
183.682,235.20413286
183.697,235.359940142
183.712,235.517326921
183.727,235.676134845
183.742,235.836212975
183.757,235.9974175
183.772,236.159611563
183.787,236.322665076
183.802,236.486454552
183.817,236.650862926
183.832,236.815779401
183.847,236.981099261
183.862,237.146723704
183.877,237.312559642
183.892,237.47851951
183.907,237.644521092
183.922,237.810487287
183.937,237.976345939
183.952,238.142029613
183.967,238.307475403
183.982,238.472624722
183.997,238.637423096
184.012,238.801819989
184.027,238.965768586
184.042,239.129225601
184.057,239.292151114
184.072,239.454508375
184.087,239.616263619
184.102,239.777385916
184.117,239.937847008
184.132,240.097621131
184.147,240.2566849
184.162,240.415017121
184.177,240.572598699
184.192,240.729412465
184.207,240.885443096
184.222,241.040676951
184.237,241.195101987
184.252,241.348707648
184.267,241.501484766
184.282,241.653425451
184.297,241.804523015
184.312,241.954771882
184.327,242.104167514
184.342,242.252706331
184.357,242.400385633
184.372,242.547203548
184.387,242.693158962
184.402,242.838251455
184.417,242.982481255
184.432,243.125849194
184.447,243.268356641
184.462,243.410005465
184.477,243.550798003
184.492,243.690737008
184.507,243.82982562
184.522,243.96806733
184.537,244.10546595
184.552,244.242025566
184.56,244.314515807
184.567,244.377750559
184.582,244.512645521
184.597,244.646715266
184.612,244.779964803
184.627,244.912399314
184.642,245.044024128
184.657,245.174844722
184.672,245.304866676
184.687,245.434095688
184.702,245.562537542
184.717,245.690198105
184.732,245.817083306
184.747,245.943199137
184.762,246.068551625
184.777,246.193146844
184.792,246.316990892
184.807,246.440089887
184.822,246.562449965
184.837,246.684077266
184.852,246.804977926
184.867,246.925158086
184.882,247.044623871
184.897,247.163381391
184.912,247.281436744
184.927,247.398795997
184.942,247.515465198
184.957,247.631450359
184.972,247.746757465
184.987,247.861392474
185.002,247.975361286
185.017,248.088669782
185.032,248.201323788
185.047,248.313329097
185.062,248.424691454
185.077,248.535416556
185.092,248.645510055
185.107,248.754977564
185.122,248.863824624
185.137,248.972056754
185.152,249.079679398
185.167,249.186697974
185.182,249.293117824
185.197,249.398944253
185.212,249.504182513
185.227,249.608837795
185.242,249.71291525
185.257,249.816419971
185.272,249.919356991
185.287,250.021731301
185.302,250.12354784
185.31,250.177623613
185.317,250.224811484
185.332,250.325527069
185.347,250.42569937
185.362,250.525333119
185.377,250.624432982
185.392,250.723003597
185.407,250.821049526
185.422,250.9185753
185.437,251.015585388
185.452,251.112084223
185.467,251.208076172
185.482,251.303565561
185.497,251.398556672
185.512,251.493053738
185.527,251.587060933
185.542,251.680582406
185.557,251.773622238
185.572,251.866184478
185.587,251.958273119
185.602,252.049892123
185.617,252.141045389
185.632,252.231736799
185.647,252.32197016
185.662,252.411749264
185.677,252.501077847
185.692,252.589959598
185.707,252.678398181
185.722,252.766397207
185.737,252.853960253
185.752,252.941090851
185.767,253.027792494
185.782,253.114068646
185.797,253.199922721
185.812,253.28535811
185.827,253.370378144
185.842,253.454986138
185.857,253.539185363
185.872,253.622979062
185.887,253.706370424
185.902,253.789362628
185.917,253.871958799
185.932,253.954162037
185.947,254.035975407
185.96,254.106567313
185.962,254.117401945
185.977,254.198444641
185.992,254.279106482
186.007,254.359390388
186.022,254.439299273
186.037,254.518836004
186.052,254.598003438
186.06,254.640076038
186.067,254.676804382
186.082,254.755241619
186.097,254.833317915
186.112,254.911035991
186.127,254.988398548
186.142,255.065408258
186.157,255.142067763
186.172,255.218379685
186.187,255.294346607
186.202,255.369971096
186.217,255.445255696
186.232,255.520202905
186.247,255.594815221
186.262,255.669095098
186.277,255.74304498
186.292,255.816667267
186.307,255.889964356
186.322,255.962938608
186.337,256.035592363
186.352,256.107927938
186.367,256.179947628
186.382,256.251653699
186.397,256.323048404
186.412,256.394133969
186.427,256.464912596
186.442,256.535386471
186.457,256.605557752
186.472,256.675428582
186.487,256.745001075
186.502,256.814277341
186.517,256.883259444
186.532,256.95194945
186.547,257.020349396
186.562,257.088461302
186.577,257.156287161
186.592,257.223828961
186.607,257.291088657
186.622,257.358068192
186.637,257.424769489
186.652,257.491194449
186.667,257.557344962
186.682,257.623222896
186.697,257.6888301
186.71,257.745472107
186.712,257.754168415
186.727,257.819239642
186.742,257.884045592
186.757,257.948588037
186.772,258.012868748
186.787,258.076889461
186.802,258.140651922
186.817,258.20415784
186.832,258.267408903
186.847,258.330406804
186.862,258.393153209
186.877,258.455649766
186.892,258.51789811
186.907,258.579899859
186.922,258.641656619
186.937,258.703169979
186.952,258.764441517
186.967,258.825472786
186.982,258.886265335
186.997,258.946820694
187.012,259.007140378
187.027,259.067225888
187.042,259.127078716
187.057,259.186700332
187.072,259.246092197
187.087,259.305255759
187.102,259.364192445
187.117,259.422903685
187.132,259.481390876
187.147,259.539655416
187.162,259.597698684
187.177,259.655522046
187.192,259.713126858
187.207,259.770514459
187.222,259.827686186
187.237,259.884643353
187.252,259.941387257
187.267,259.997919198
187.282,260.054240462
187.297,260.110352307
187.312,260.166255998
187.327,260.221952772
187.342,260.277443872
187.357,260.332730517
187.372,260.387813916
187.387,260.442695274
187.402,260.497375777
187.417,260.5518566
187.432,260.606138915
187.447,260.660223874
187.46,260.706938754
187.462,260.714112627
187.477,260.767806303
187.492,260.821306037
187.507,260.87461293
187.522,260.927728097
187.537,260.980652625
187.552,261.033387605
187.567,261.085934103
187.582,261.138293188
187.597,261.190465913
187.612,261.242453324
187.627,261.294256454
187.642,261.345876332
187.657,261.397313966
187.672,261.44857037
187.687,261.499646547
187.702,261.55054348
187.717,261.601262146
187.732,261.651803523
187.747,261.702168568
187.762,261.752358234
187.777,261.802373471
187.792,261.852215212
187.807,261.901884383
187.822,261.951381913
187.837,262.000708703
187.852,262.049865663
187.867,262.098853688
187.882,262.147673659
187.897,262.196326466
187.912,262.244812965
187.927,262.293134032
187.942,262.341290527
187.957,262.389283286
187.972,262.437113154
187.987,262.484780973
188.002,262.532287558
188.017,262.579633739
188.032,262.626820318
188.047,262.673848107
188.062,262.720717897
188.077,262.767430485
188.092,262.813986653
188.107,262.860387178
188.122,262.906632833
188.137,262.952724377
188.152,262.99866257
188.167,263.044448163
188.182,263.090081902
188.197,263.135564523
188.21,263.174861123
188.212,263.180896754
188.227,263.226079333
188.242,263.271112967
188.257,263.315998372
188.272,263.360736261
188.287,263.405327327
188.302,263.449772274
188.317,263.494071784
188.332,263.538226551
188.347,263.582237244
188.362,263.62610454
188.377,263.669829108
188.392,263.713411603
188.407,263.756852687
188.422,263.800153012
188.437,263.84331322
188.452,263.88633395
188.467,263.929215842
188.482,263.97195953
188.497,264.014565629
188.512,264.057034764
188.527,264.099367554
188.542,264.141564602
188.557,264.183626515
188.572,264.225553898
188.587,264.267347346
188.602,264.309007447
188.617,264.350534792
188.632,264.391929964
188.647,264.433193536
188.66,264.468849292
188.662,264.474326081
188.677,264.515328172
188.692,264.556200375
188.707,264.596943245
188.722,264.637557334
188.737,264.678043211
