# 48698 WSSS Singapore Observations at 12Z 18 Jan 2019
Frequency [GHz],TB
175.31,272.413282991
175.322,272.391846812
175.337,272.364992963
175.352,272.338073771
175.367,272.311089014
175.382,272.284038469
175.397,272.256921911
175.412,272.229739113
175.427,272.20248985
175.442,272.175173892
175.457,272.147791008
175.472,272.120340967
175.487,272.092823535
175.502,272.065238479
175.517,272.037585561
175.532,272.009864544
175.547,271.982075189
175.562,271.954217254
175.577,271.926290498
175.592,271.898294676
175.607,271.870229543
175.622,271.842094852
175.637,271.813890353
175.652,271.785615798
175.667,271.757270933
175.682,271.728855506
175.697,271.70036926
175.712,271.67181194
175.727,271.643183286
175.742,271.614483038
175.757,271.585710935
175.772,271.556866712
175.787,271.527950104
175.802,271.498960845
175.817,271.469898664
175.832,271.440763292
175.847,271.411554456
175.862,271.382271881
175.877,271.352915292
175.892,271.32348441
175.907,271.293978957
175.922,271.26439865
175.937,271.234743205
175.952,271.205012338
175.967,271.175205761
175.982,271.145323185
175.997,271.115364318
176.012,271.085328869
176.027,271.055216541
176.042,271.025027037
176.057,270.99476006
176.072,270.964415307
176.087,270.933992475
176.102,270.90349126
176.117,270.872911354
176.132,270.842252448
176.147,270.81151423
176.162,270.780696388
176.177,270.749798605
176.192,270.718820564
176.207,270.687761945
176.222,270.656622425
176.237,270.625401681
176.252,270.594099386
176.267,270.562715212
176.282,270.531248826
176.297,270.499699896
176.31,270.472290462
176.312,270.468068087
176.327,270.43635306
176.342,270.404554474
176.357,270.372671989
176.372,270.340705258
176.387,270.308653934
176.402,270.276517667
176.417,270.244296106
176.432,270.211988895
176.447,270.179595677
176.46,270.151451707
176.462,270.147116093
176.477,270.11454978
176.492,270.081896374
176.507,270.049155507
176.522,270.01632681
176.537,269.98340991
176.552,269.950404432
176.567,269.917309998
176.582,269.884126228
176.597,269.850852738
176.612,269.817489144
176.627,269.784035055
176.642,269.750490081
176.657,269.716853828
176.672,269.683125898
176.687,269.649305892
176.702,269.615393407
176.717,269.581388037
176.732,269.547289374
176.747,269.513097007
176.762,269.47881052
176.777,269.444429497
176.792,269.409953517
176.807,269.375382156
176.822,269.340714988
176.837,269.305951583
176.852,269.271091508
176.867,269.236134327
176.882,269.201079602
176.897,269.165926888
176.912,269.130675742
176.927,269.095325713
176.942,269.05987635
176.957,269.024327196
176.972,268.988677794
176.987,268.952927679
177.002,268.917076388
177.017,268.881123449
177.032,268.845068391
177.047,268.808910736
177.062,268.772650006
177.077,268.736285716
177.092,268.69981738
177.107,268.663244506
177.122,268.6265666
177.137,268.589783164
177.152,268.552893696
177.167,268.51589769
177.182,268.478794635
177.197,268.44158402
177.21,268.409247415
177.212,268.404265325
177.227,268.366838031
177.242,268.329301611
177.257,268.291655535
177.272,268.253899272
177.287,268.216032282
177.302,268.178054024
177.31,268.157753268
177.317,268.139963952
177.332,268.101761516
177.347,268.063446162
177.362,268.025017331
177.377,267.986474459
177.392,267.94781698
177.407,267.909044322
177.422,267.870155907
177.437,267.831151156
177.452,267.792029482
177.467,267.752790297
177.482,267.713433004
177.497,267.673957005
177.512,267.634361695
177.527,267.594646466
177.542,267.554810704
177.557,267.514853791
177.572,267.474775101
177.587,267.434574008
177.602,267.394249878
177.617,267.353802071
177.632,267.313229944
177.647,267.272532849
177.66,267.237160441
177.662,267.23171013
177.677,267.190761129
177.692,267.149685181
177.707,267.108481615
177.722,267.067149756
177.737,267.025688922
177.752,266.984098428
177.767,266.94237758
177.782,266.900525681
177.797,266.858542027
177.812,266.816425909
177.827,266.774176611
177.842,266.731793412
177.857,266.689275585
177.872,266.646622397
177.887,266.603833109
177.902,266.560906975
177.917,266.517843244
177.932,266.474641158
177.947,266.431299953
177.96,266.393624448
177.962,266.387818858
177.977,266.344197097
177.992,266.300433886
178.007,266.256528435
178.022,266.212479947
178.037,266.168287619
178.052,266.123950642
178.067,266.079468196
178.082,266.03483946
178.097,265.990063602
178.112,265.945139784
178.127,265.900067161
178.142,265.85484488
178.157,265.809472083
178.172,265.763947902
178.187,265.718271463
178.202,265.672441884
178.217,265.626458276
178.232,265.580319742
178.247,265.534025377
178.262,265.487574269
178.277,265.440965497
178.292,265.394198133
178.307,265.347271241
178.322,265.300183875
178.337,265.252935085
178.352,265.205523908
178.367,265.157949375
178.382,265.11021051
178.397,265.062306324
178.41,265.02065487
178.412,265.014235825
178.427,264.965998008
178.442,264.917591861
178.457,264.869016363
178.472,264.820270484
178.487,264.771353185
178.502,264.722263418
178.517,264.673000125
178.532,264.62356224
178.547,264.573948687
178.562,264.524158381
178.577,264.474190225
178.592,264.424043117
178.607,264.373715941
178.622,264.323207573
178.637,264.272516879
178.652,264.221642715
178.667,264.170583927
178.682,264.11933935
178.697,264.067907809
178.712,264.01628812
178.727,263.964479088
178.742,263.912479505
178.757,263.860288155
178.772,263.80790381
178.787,263.755325233
178.802,263.702551174
178.817,263.649580372
178.832,263.596411557
178.847,263.543043444
178.862,263.489474741
178.877,263.435704142
178.892,263.38173033
178.907,263.327551976
178.922,263.27316774
178.937,263.218576269
178.952,263.163776201
178.967,263.108766158
178.982,263.053544753
178.997,262.998110586
179.012,262.942462243
179.027,262.8865983
179.042,262.83051732
179.057,262.774217853
179.072,262.717698436
179.087,262.660957593
179.102,262.603993837
179.117,262.546805666
179.132,262.489391566
179.147,262.431750011
179.16,262.381608819
179.162,262.373879459
179.177,262.315778357
179.192,262.257445138
179.207,262.198878221
179.222,262.140076013
179.237,262.081036905
179.252,262.021759276
179.267,261.962241491
179.282,261.902481901
179.297,261.842478843
179.312,261.78223064
179.327,261.721735601
179.342,261.66099202
179.357,261.599998179
179.372,261.538752342
179.387,261.477252763
179.402,261.415497678
179.417,261.353485311
179.432,261.291213869
179.447,261.228681547
179.462,261.165886523
179.477,261.102826961
179.492,261.039501012
179.507,260.97590681
179.522,260.912042474
179.537,260.84790611
179.552,260.783495807
179.567,260.718809641
179.582,260.653845671
179.597,260.588601942
179.612,260.523076484
179.627,260.457267312
179.642,260.391172425
179.657,260.324789808
179.672,260.25811743
179.687,260.191153245
179.702,260.123895192
179.717,260.056341195
179.732,259.988489163
179.747,259.920336989
179.762,259.851882552
179.777,259.783123715
179.792,259.714058326
179.807,259.644684219
179.822,259.574999212
179.837,259.505001108
179.852,259.434687696
179.867,259.36405675
179.882,259.293106027
179.897,259.221833273
179.91,259.15980131
179.912,259.150236217
179.927,259.078312573
179.942,259.006060042
179.957,258.933476309
179.972,258.860559047
179.987,258.787305914
180.002,258.713714551
180.017,258.63978259
180.032,258.565507645
180.047,258.490887318
180.062,258.415919198
180.077,258.34060086
180.092,258.264929865
180.107,258.188903762
180.122,258.112520087
180.137,258.035776362
180.152,257.958670099
180.167,257.881198795
180.182,257.803359936
180.197,257.725150997
180.212,257.646569439
180.227,257.567612713
180.242,257.48827826
180.257,257.408563508
180.272,257.328465875
180.287,257.247982768
180.302,257.167111585
180.317,257.085849713
180.332,257.004194531
180.347,256.922143407
180.362,256.8396937
180.377,256.756842763
180.392,256.673587937
180.407,256.589926558
180.422,256.505855952
180.437,256.42137344
180.452,256.336476335
180.467,256.251161944
180.482,256.165427566
180.497,256.079270498
180.512,255.992688027
180.527,255.90567744
180.542,255.818236016
180.557,255.730361031
180.56,255.712733766
180.572,255.642049757
180.587,255.553299464
180.602,255.464107419
180.617,255.374470885
180.632,255.284387126
180.647,255.193853401
180.66,255.115024751
180.662,255.102866973
180.677,255.0114251
180.692,254.919525042
180.707,254.82716406
180.722,254.734339415
180.737,254.641048371
180.752,254.547288192
180.767,254.453056147
180.782,254.358349505
180.797,254.263165541
180.812,254.167501533
180.827,254.071354763
180.842,253.974722518
180.857,253.877602092
180.872,253.779990783
180.887,253.681885895
180.902,253.583284741
180.917,253.484184638
180.932,253.384582914
180.947,253.284476902
180.962,253.183863945
180.977,253.082741394
180.992,252.98110661
181.007,252.878956962
181.022,252.776289831
181.037,252.673102605
181.052,252.569392685
181.067,252.465157481
181.082,252.360394413
181.097,252.255100913
181.112,252.149274425
181.127,252.042912403
181.142,251.93601231
181.157,251.828571624
181.172,251.720587832
181.187,251.612058432
181.202,251.502980934
181.217,251.393352857
181.232,251.283171733
181.247,251.172435103
181.262,251.061140517
181.277,250.949285537
181.292,250.836867733
181.307,250.723884684
181.31,250.701220032
181.322,250.610333976
181.337,250.496213205
181.352,250.381519973
181.367,250.266251887
181.382,250.150406562
181.397,250.033981616
181.412,249.916974672
181.427,249.799383356
181.442,249.681205294
181.457,249.562438117
181.472,249.443079453
181.487,249.323126929
181.502,249.202578172
181.517,249.081430803
181.532,248.959682442
181.547,248.837330701
181.562,248.714373186
181.577,248.590807494
181.592,248.466631215
181.607,248.341841928
181.622,248.216437202
181.637,248.090414591
181.652,247.96377164
181.667,247.836505878
181.682,247.70861482
181.697,247.580095965
181.712,247.450946801
181.727,247.321164796
181.742,247.190747405
181.757,247.059692068
181.772,246.92799621
181.787,246.795657246
181.802,246.662672575
181.817,246.529039588
181.832,246.394755668
181.847,246.259818195
181.862,246.124224544
181.877,245.987972095
181.892,245.851058234
181.907,245.71348036
181.922,245.575235889
181.937,245.436322264
181.952,245.296736963
181.967,245.156477504
181.982,245.015541461
181.997,244.87392647
182.012,244.731630246
182.027,244.588650594
182.042,244.444985428
182.057,244.300632784
182.06,244.271679595
182.072,244.155590843
182.087,244.009857949
182.102,243.863432634
182.117,243.716313642
182.132,243.568499953
182.147,243.419990821
182.162,243.270785795
182.177,243.120884764
182.192,242.970287986
182.207,242.818996137
182.222,242.667010345
182.237,242.514332247
182.252,242.360964034
182.267,242.206908505
182.282,242.052169129
182.297,241.896750104
182.312,241.740656428
182.327,241.583893965
182.342,241.426469528
182.357,241.268390954
182.372,241.109667197
182.387,240.950308416
182.402,240.790326076
182.417,240.62973305
182.432,240.468543735
182.447,240.306774165
182.462,240.14444214
182.477,239.981567356
182.492,239.818171547
182.507,239.654278635
182.522,239.489914885
182.537,239.325109072
182.552,239.15989266
182.567,238.994299982
182.582,238.828368442
182.597,238.662138718
182.612,238.495654979
182.627,238.328965116
182.642,238.162120983
182.657,237.995178647
182.672,237.828198656
182.687,237.661246317
182.702,237.494391985
182.717,237.327711367
182.732,237.161285843
182.747,236.995202792
182.762,236.829555933
182.777,236.664445687
182.792,236.499979538
182.807,236.33627241
182.822,236.173447061
182.837,236.011634471
182.852,235.850974251
182.867,235.691615046
182.882,235.533714951
182.897,235.377441911
182.912,235.222974138
182.927,235.070500497
182.942,234.9202209
182.957,234.772346666
182.972,234.627100866
182.987,234.484718631
183.002,234.34544742
183.017,234.209547227
183.032,234.077290727
183.047,233.948963322
183.062,233.824863073
183.077,233.705300476
183.092,233.590598038
183.107,233.48108959
183.122,233.377119253
183.137,233.27903997
183.152,233.187211462
183.167,233.101997506
183.182,233.023762345
183.197,232.952866149
183.212,232.889659386
183.227,232.834476117
183.242,232.78762632
183.257,232.749387493
183.367,232.746204906
183.382,232.783487706
183.397,232.829323176
183.412,232.883426071
183.427,232.945480626
183.442,233.015148803
183.457,233.092077748
183.472,233.175906241
183.487,233.26627005
183.502,233.362806251
183.517,233.465156591
183.532,233.572970052
183.547,233.685904747
183.562,233.80362929
183.577,233.925823748
183.592,234.052180262
183.607,234.182403437
183.622,234.316210524
183.637,234.453331471
183.652,234.593508852
183.667,234.736497718
183.682,234.882065371
183.697,235.029991094
183.712,235.180065838
183.727,235.332091871
183.742,235.485882415
183.757,235.641261258
183.772,235.798062352
183.787,235.956129414
183.802,236.115315511
183.817,236.275482657
183.832,236.4365014
183.847,236.598250428
183.862,236.760616171
183.877,236.923492415
183.892,237.086779932
183.907,237.25038611
183.922,237.414224607
183.937,237.578215006
183.952,237.742282491
183.967,237.906357536
183.982,238.070375598
183.997,238.234276835
184.012,238.39800583
184.027,238.561511327
184.042,238.724745984
184.057,238.887666135
184.072,239.050231563
184.087,239.212405287
184.102,239.374153359
184.117,239.53544467
184.132,239.696250767
184.147,239.856545683
184.162,240.016305768
184.177,240.17550954
184.192,240.334137534
184.207,240.492172167
184.222,240.649597606
184.237,240.806399644
184.252,240.962565589
184.267,241.118084146
184.282,241.272945324
184.297,241.427140331
184.312,241.580661489
184.327,241.733502143
184.342,241.885656586
184.357,242.037119982
184.372,242.187888293
184.387,242.337958218
184.402,242.487327125
184.417,242.635992998
184.432,242.783954385
184.447,242.93121034
184.462,243.077760384
184.477,243.223604459
184.492,243.368742886
184.507,243.513176331
184.522,243.656905766
184.537,243.79993244
184.552,243.942257852
184.56,244.017878583
184.567,244.083883716
184.582,244.224811943
184.597,244.365044616
184.612,244.504583968
184.627,244.643432362
184.642,244.781592276
184.657,244.919066284
184.672,245.055857046
184.687,245.191967289
184.702,245.327399798
184.717,245.462157407
184.732,245.596242987
184.747,245.729659438
184.762,245.862409681
184.777,245.994496653
184.792,246.125923299
184.807,246.256692568
184.822,246.386807409
184.837,246.516270765
184.852,246.645085572
184.867,246.773254757
184.882,246.90078123
184.897,247.027667891
184.912,247.15391762
184.927,247.279533282
184.942,247.404517724
184.957,247.528873773
184.972,247.652604238
184.987,247.77571191
185.002,247.898199558
185.017,248.020069937
185.032,248.141325781
185.047,248.261969809
185.062,248.382004719
185.077,248.501433199
185.092,248.620257917
185.107,248.73848153
185.122,248.85610668
185.137,248.973135998
185.152,249.089572103
185.167,249.205417604
185.182,249.320675101
185.197,249.435347185
185.212,249.549436441
185.227,249.662945446
185.242,249.775876775
185.257,249.888232994
185.272,250.00001667
185.287,250.111230364
185.302,250.221876636
185.31,250.280656853
185.317,250.331958047
185.332,250.441477154
185.347,250.550436517
185.362,250.658838697
185.377,250.766686253
185.392,250.873981751
185.407,250.980727756
185.422,251.086926837
185.437,251.192581566
185.452,251.297694521
185.467,251.402268279
185.482,251.506305427
185.497,251.609808553
185.512,251.712780251
185.527,251.815223119
185.542,251.917139759
185.557,252.018532782
185.572,252.1194048
185.587,252.219758431
185.602,252.319596299
185.617,252.418921033
185.632,252.517735265
185.647,252.616041634
185.662,252.713842782
185.677,252.811141356
185.692,252.907940008
185.707,253.004241393
185.722,253.100048169
185.737,253.195363001
185.752,253.290188552
185.767,253.384527494
185.782,253.478382497
185.797,253.571756235
185.812,253.664651386
185.827,253.757070626
185.842,253.849016635
185.857,253.940492095
185.872,254.031499686
185.887,254.12204209
185.902,254.212121988
185.917,254.301742064
185.932,254.390904996
185.947,254.479613466
185.96,254.556128599
185.962,254.56787015
185.977,254.655677727
185.992,254.74303887
186.007,254.829956252
186.022,254.91643254
186.037,255.002470402
186.052,255.088072499
186.06,255.133549689
186.067,255.173241489
186.082,255.257980026
186.097,255.342290759
186.112,255.426176332
186.127,255.509639384
186.142,255.592682548
186.157,255.675308451
186.172,255.757519714
186.187,255.83931895
186.202,255.920708765
186.217,256.001691761
186.232,256.082270528
186.247,256.16244765
186.262,256.242225704
186.277,256.321607257
186.292,256.400594866
186.307,256.479191082
186.322,256.557398445
186.337,256.635219485
186.352,256.712656723
186.367,256.789712671
186.382,256.866389828
186.397,256.942690684
186.412,257.01861772
186.427,257.094173403
186.442,257.16936019
186.457,257.244180528
186.472,257.318636851
186.487,257.392731582
186.502,257.466467132
186.517,257.539845899
186.532,257.612870271
186.547,257.685542621
186.562,257.757865312
186.577,257.829840692
186.592,257.901471099
186.607,257.972758856
186.622,258.043706273
186.637,258.114315648
186.652,258.184589265
186.667,258.254529395
186.682,258.324138295
186.697,258.39341821
186.71,258.453196414
186.712,258.462371369
186.727,258.53099999
186.742,258.599306275
186.757,258.667292414
186.772,258.73496058
186.787,258.802312937
186.802,258.869351631
186.817,258.936078795
186.832,259.002496549
186.847,259.068606997
186.862,259.13441223
186.877,259.199914325
186.892,259.265115346
186.907,259.330017339
186.922,259.394622339
186.937,259.458932366
186.952,259.522949425
186.967,259.586675509
186.982,259.650112593
186.997,259.713262641
187.012,259.776127601
187.027,259.838709408
187.042,259.901009982
187.057,259.963031229
187.072,260.024775041
187.087,260.086243295
187.102,260.147437856
187.117,260.208360572
187.132,260.269013279
187.147,260.329397798
187.162,260.389515938
187.177,260.449369491
187.192,260.508960238
187.207,260.568289943
187.222,260.62736036
187.237,260.686173226
187.252,260.744730266
187.267,260.803033191
187.282,260.861083699
187.297,260.918883473
187.312,260.976434184
187.327,261.033737488
187.342,261.090795031
187.357,261.147608441
187.372,261.204179337
187.387,261.260509323
187.402,261.316599989
187.417,261.372452915
187.432,261.428069664
187.447,261.483451789
187.46,261.531261038
187.462,261.538600831
187.477,261.593518316
187.492,261.648205758
187.507,261.702664659
187.522,261.756896508
187.537,261.810902783
187.552,261.864684948
187.567,261.918244455
187.582,261.971582746
187.597,262.024701247
187.612,262.077601376
187.627,262.130284537
187.642,262.182752122
187.657,262.235005513
187.672,262.287046078
187.687,262.338875176
187.702,262.390494153
187.717,262.441904343
187.732,262.493107071
187.747,262.544103649
187.762,262.594895377
187.777,262.645483547
187.792,262.695869438
187.807,262.746054318
187.822,262.796039445
187.837,262.845826066
187.852,262.895415418
187.867,262.944808725
187.882,262.994007205
187.897,263.043012062
187.912,263.091824491
187.927,263.140445677
187.942,263.188876794
187.957,263.237119007
187.972,263.285173472
187.987,263.333041332
188.002,263.380723724
188.017,263.428221773
188.032,263.475536595
188.047,263.522669296
188.062,263.569620974
188.077,263.616392716
188.092,263.662985601
188.107,263.709400699
188.122,263.75563907
188.137,263.801701765
188.152,263.847589828
188.167,263.893304291
188.182,263.938846179
188.197,263.984216509
188.21,264.02339947
188.212,264.029416289
188.227,264.074446518
188.242,264.119308186
188.257,264.164002277
188.272,264.208529763
188.287,264.252891612
188.302,264.297088781
188.317,264.341122221
188.332,264.384992872
188.347,264.428701669
188.362,264.472249538
188.377,264.515637398
188.392,264.558866159
188.407,264.601936725
188.422,264.644849992
188.437,264.687606847
188.452,264.730208172
188.467,264.77265484
188.482,264.814947717
188.497,264.857087663
188.512,264.89907553
188.527,264.940912163
188.542,264.982598401
188.557,265.024135073
188.572,265.065523006
188.587,265.106763016
188.602,265.147855914
188.617,265.188802506
188.632,265.229603588
188.647,265.270259952
188.66,265.305379014
188.662,265.310772383
188.677,265.351141659
188.692,265.391368553
188.707,265.431453831
188.722,265.471398252
188.737,265.51120257
