# 78954 TBPB Grantley Adams Observations at 12Z 15 May 2019
Frequency [GHz],TB
175.31,280.343582333
175.322,280.325508926
175.337,280.302856781
175.352,280.280137352
175.367,280.257350432
175.382,280.234495813
175.397,280.211573288
175.412,280.188582645
175.427,280.165523673
175.442,280.142396158
175.457,280.119199884
175.472,280.095934636
175.487,280.072600193
175.502,280.049196338
175.517,280.025722848
175.532,280.002179499
175.547,279.978566067
175.562,279.954882325
175.577,279.931128046
175.592,279.907302998
175.607,279.883406951
175.622,279.859439671
175.637,279.835400923
175.652,279.811290471
175.667,279.787108076
175.682,279.762853498
175.697,279.738526494
175.712,279.714126823
175.727,279.689654237
175.742,279.66510849
175.757,279.640489333
175.772,279.615796515
175.787,279.591029784
175.802,279.566188885
175.817,279.541273563
175.832,279.51628356
175.847,279.491218615
175.862,279.466078467
175.877,279.440862853
175.892,279.415571508
175.907,279.390204164
175.922,279.364760553
175.937,279.339240404
175.952,279.313643444
175.967,279.287969399
175.982,279.262217992
175.997,279.236388945
176.012,279.210481977
176.027,279.184496808
176.042,279.158433151
176.057,279.132290723
176.072,279.106069234
176.087,279.079768396
176.102,279.053387915
176.117,279.0269275
176.132,279.000386853
176.147,278.973765678
176.162,278.947063675
176.177,278.920280542
176.192,278.893415977
176.207,278.866469673
176.222,278.839441323
176.237,278.812330618
176.252,278.785137247
176.267,278.757860897
176.282,278.730501251
176.297,278.703057993
176.31,278.679205956
176.312,278.675530803
176.327,278.64791936
176.342,278.620223341
176.357,278.59244242
176.372,278.56457627
176.387,278.536624561
176.402,278.508586963
176.417,278.480463142
176.432,278.452252762
176.447,278.423955486
176.46,278.399360628
176.462,278.395570974
176.477,278.367098885
176.492,278.338538875
176.507,278.3098906
176.522,278.28115371
176.537,278.252327857
176.552,278.223412688
176.567,278.194407851
176.582,278.165312989
176.597,278.136127744
176.612,278.106851757
176.627,278.077484665
176.642,278.048026106
176.657,278.018475712
176.672,277.988833116
176.687,277.959097947
176.702,277.929269835
176.717,277.899348403
176.732,277.869333278
176.747,277.839224079
176.762,277.809020427
176.777,277.77872194
176.792,277.748328233
176.807,277.717838921
176.822,277.687253614
176.837,277.656571922
176.852,277.625793454
176.867,277.594917814
176.882,277.563944606
176.897,277.532873433
176.912,277.501703892
176.927,277.470435583
176.942,277.439068101
176.957,277.407601038
176.972,277.376033988
176.987,277.344366539
177.002,277.312598279
177.017,277.280728793
177.032,277.248757667
177.047,277.21668448
177.062,277.184508814
177.077,277.152230246
177.092,277.119848351
177.107,277.087362705
177.122,277.054772878
177.137,277.022078441
177.152,276.989278963
177.167,276.956374009
177.182,276.923363144
177.197,276.89024593
177.21,276.861457982
177.212,276.857021929
177.227,276.823690698
177.242,276.790251795
177.257,276.756704775
177.272,276.72304919
177.287,276.689284593
177.302,276.655410533
177.31,276.637299453
177.317,276.621426557
177.332,276.587332211
177.347,276.55312704
177.362,276.518810585
177.377,276.484382387
177.392,276.449841986
177.407,276.415188917
177.422,276.380422716
177.437,276.345542916
177.452,276.31054905
177.467,276.275440646
177.482,276.240217235
177.497,276.204878341
177.512,276.169423491
177.527,276.133852207
177.542,276.098164011
177.557,276.062358423
177.572,276.026434961
177.587,275.990393142
177.602,275.954232481
177.617,275.917952491
177.632,275.881552685
177.647,275.845032573
177.66,275.813284115
177.662,275.808391663
177.677,275.771629463
177.692,275.734745479
177.707,275.697739214
177.722,275.660610172
177.737,275.623357853
177.752,275.585981758
177.767,275.548481384
177.782,275.510856228
177.797,275.473105786
177.812,275.435229551
177.827,275.397227016
177.842,275.359097673
177.857,275.32084101
177.872,275.282456516
177.887,275.243943679
177.902,275.205301983
177.917,275.166530914
177.932,275.127629953
177.947,275.088598583
177.96,275.054665507
177.962,275.049436284
177.977,275.010142535
177.992,274.970716813
178.007,274.931158596
178.022,274.891467359
178.037,274.851642575
178.052,274.811683717
178.067,274.771590258
178.082,274.731361667
178.097,274.690997413
178.112,274.650496964
178.127,274.609859788
178.142,274.569085349
178.157,274.528173112
178.172,274.487122541
178.187,274.445933097
178.202,274.404604242
178.217,274.363135435
178.232,274.321526135
178.247,274.279775799
178.262,274.237883884
178.277,274.195849845
178.292,274.153673137
178.307,274.111353211
178.322,274.068889521
178.337,274.026281517
178.352,273.983528649
178.367,273.940630365
178.382,273.897586112
178.397,273.854395337
178.41,273.816844383
178.412,273.811057485
178.427,273.767572
178.442,273.723938325
178.457,273.680155902
178.472,273.63622417
178.487,273.592142569
178.502,273.547910538
178.517,273.503527514
178.532,273.458992931
178.547,273.414306225
178.562,273.369466828
178.577,273.324474173
178.592,273.27932769
178.607,273.234026809
178.622,273.188570956
178.637,273.14295956
178.652,273.097192045
178.667,273.051267834
178.682,273.00518635
178.697,272.958947014
178.712,272.912549245
178.727,272.865992461
178.742,272.819276077
178.757,272.772399507
178.772,272.725362165
178.787,272.678163462
178.802,272.630802805
178.817,272.583279603
178.832,272.535593261
178.847,272.487743181
178.862,272.439728765
178.877,272.391549413
178.892,272.34320452
178.907,272.294693482
178.922,272.246015691
178.937,272.197170537
178.952,272.148157408
178.967,272.098975687
178.982,272.049624758
178.997,272.000104
179.012,271.950412789
179.027,271.900550499
179.042,271.850516501
179.057,271.800310161
179.072,271.749930846
179.087,271.699377914
179.102,271.648650723
179.117,271.597748628
179.132,271.546670978
179.147,271.495417118
179.16,271.450854065
179.162,271.443986392
179.177,271.392378136
179.192,271.340591685
179.207,271.288626367
179.222,271.236481507
179.237,271.184156425
179.252,271.131650435
179.267,271.078962847
179.282,271.026092965
179.297,270.973040088
179.312,270.919803509
179.327,270.866382516
179.342,270.81277639
179.357,270.758984405
179.372,270.705005831
179.387,270.650839929
179.402,270.596485953
179.417,270.541943153
179.432,270.487210767
179.447,270.432288029
179.462,270.377174164
179.477,270.321868388
179.492,270.26636991
179.507,270.21067793
179.522,270.154791637
179.537,270.098710214
179.552,270.042432832
179.567,269.985958655
179.582,269.929286833
179.597,269.872416508
179.612,269.815346812
179.627,269.758076864
179.642,269.700605772
179.657,269.642932633
179.672,269.585056532
179.687,269.526976541
179.702,269.468691718
179.717,269.410201111
179.732,269.35150375
179.747,269.292598656
179.762,269.233484831
179.777,269.174161265
179.792,269.114626932
179.807,269.054880791
179.822,268.994921783
179.837,268.934748835
179.852,268.874360855
179.867,268.813756735
179.882,268.752935348
179.897,268.691895549
179.91,268.638816821
179.912,268.630636176
179.927,268.569156043
179.942,268.50745395
179.957,268.445528671
179.972,268.383378963
179.987,268.32100356
180.002,268.258401174
180.017,268.195570495
180.032,268.13251019
180.047,268.069218901
180.062,268.005695246
180.077,267.94193782
180.092,267.877945191
180.107,267.8137159
180.122,267.749248463
180.137,267.684541368
180.152,267.619593075
180.167,267.554402015
180.182,267.488966589
180.197,267.423285171
180.212,267.357356101
180.227,267.291177688
180.242,267.224748211
180.257,267.158065914
180.272,267.091129008
180.287,267.023935671
180.302,266.956484043
180.317,266.888772231
180.332,266.820798305
180.347,266.752560295
180.362,266.684056196
180.377,266.615283963
180.392,266.546241509
180.407,266.476926709
180.422,266.407337395
180.437,266.337471358
180.452,266.267326343
180.467,266.196900054
180.482,266.126190148
180.497,266.055194236
180.512,265.983909882
180.527,265.912334603
180.542,265.840465868
180.557,265.768301092
180.56,265.753832382
180.572,265.695837645
180.587,265.62307284
180.602,265.550003941
180.617,265.476628157
180.632,265.40294264
180.647,265.328944488
180.66,265.264557585
180.662,265.254630743
180.677,265.179998388
180.692,265.105044345
180.707,265.029765478
180.722,264.95415859
180.737,264.878220418
180.752,264.801947638
180.767,264.725336862
180.782,264.648384633
180.797,264.571087429
180.812,264.493441657
180.827,264.415443656
180.842,264.337089694
180.857,264.258375966
180.872,264.179298593
180.887,264.099853621
180.902,264.02003702
180.917,263.939844683
180.932,263.859272422
180.947,263.77831597
180.962,263.696970977
180.977,263.615233012
180.992,263.533097555
181.007,263.450560003
181.022,263.367615665
181.037,263.284259759
181.052,263.200487414
181.067,263.116293666
181.082,263.031673456
181.097,262.94662163
181.112,262.861132938
181.127,262.775202031
181.142,262.688823459
181.157,262.601991669
181.172,262.514701006
181.187,262.426945709
181.202,262.338719911
181.217,262.250017635
181.232,262.160832793
181.247,262.071159186
181.262,261.980990501
181.277,261.89032031
181.292,261.799142065
181.307,261.707449102
181.31,261.689048148
181.322,261.615234635
181.337,261.522491754
181.352,261.429213426
181.367,261.335392492
181.382,261.241021665
181.397,261.146093527
181.412,261.05060053
181.427,260.954534994
181.442,260.857889101
181.457,260.760654901
181.472,260.662824301
181.487,260.564389072
181.502,260.465340843
181.517,260.365671099
181.532,260.26537118
181.547,260.164432284
181.562,260.062845457
181.577,259.960601598
181.592,259.857691457
181.607,259.754105631
181.622,259.649834566
181.637,259.544868551
181.652,259.439197722
181.667,259.33281206
181.682,259.225701387
181.697,259.117855366
181.712,259.009263503
181.727,258.899915143
181.742,258.78979947
181.757,258.678905507
181.772,258.567222115
181.787,258.454737991
181.802,258.34144167
181.817,258.227321523
181.832,258.112365756
181.847,257.996562409
181.862,257.879899358
181.877,257.762364312
181.892,257.643944814
181.907,257.524628238
181.922,257.404401791
181.937,257.28325251
181.952,257.161167262
181.967,257.038132741
181.982,256.914135469
181.997,256.789161789
182.012,256.663197869
182.027,256.536229694
182.042,256.408243063
182.057,256.279223586
182.06,256.253294469
182.072,256.149156677
182.087,256.018027548
182.102,255.885821203
182.117,255.752522424
182.132,255.618115768
182.147,255.482585545
182.162,255.345915812
182.177,255.208090348
182.192,255.069092641
182.207,254.928905859
182.222,254.787512825
182.237,254.644895985
182.252,254.501037372
182.267,254.355918567
182.282,254.209520644
182.297,254.06182412
182.312,253.912808892
182.327,253.76245416
182.342,253.610738347
182.357,253.457639002
182.372,253.303132691
182.387,253.147194873
182.402,252.989799757
182.417,252.830920138
182.432,252.670527213
182.447,252.508590369
182.462,252.345076937
182.477,252.179951922
182.492,252.013177679
182.507,251.844713562
182.522,251.674515502
182.537,251.502535544
182.552,251.328721304
182.567,251.153015351
182.582,250.975354506
182.597,250.795669027
182.612,250.613881684
182.627,250.429906687
182.642,250.243648463
182.657,250.055000246
182.672,249.863842441
182.687,249.670040754
182.702,249.473444016
182.717,249.273881673
182.732,249.071160872
182.747,248.865063083
182.762,248.655340165
182.777,248.44170979
182.792,248.223850101
182.807,248.001393469
182.822,247.773919188
182.837,247.540944905
182.852,247.301916562
182.867,247.056196557
182.882,246.803049811
182.897,246.541627333
182.912,246.270946833
182.927,245.989869837
182.942,245.697074683
182.957,245.391024693
182.972,245.069930744
182.987,244.73170744
183.002,244.373922112
183.017,243.993736077
183.032,243.587838055
183.047,243.15237057
183.062,242.682851964
183.077,242.174099851
183.092,241.620167543
183.107,241.014314794
183.122,240.349051085
183.137,239.616318128
183.152,238.807925827
183.167,237.916433409
183.182,236.936788847
183.197,235.869213963
183.212,234.724021429
183.227,233.529095417
183.242,232.340001642
183.257,231.249206012
183.367,231.494502586
183.382,232.61509962
183.397,233.806913062
183.412,234.987506306
183.427,236.10944266
183.442,237.15017045
183.457,238.102500025
183.472,238.967872772
183.487,239.752118446
183.502,240.462948217
183.517,241.108547598
183.532,241.696832333
183.547,242.235090691
183.562,242.729844066
183.577,243.1868263
183.592,243.611023763
183.607,244.006743193
183.622,244.377688943
183.637,244.727039868
183.652,245.057520992
183.667,245.371467894
183.682,245.670883253
183.697,245.957485813
183.712,246.232752398
183.727,246.497953741
183.742,246.754184947
183.757,247.002391331
183.772,247.243390309
183.787,247.477889956
183.802,247.706504733
183.817,247.929768834
183.832,248.148147522
183.847,248.362046773
183.862,248.571821489
183.877,248.777782513
183.892,248.980202617
183.907,249.17932163
183.922,249.375350842
183.937,249.568476778
183.952,249.758864453
183.967,249.946660172
183.982,250.131993948
183.997,250.314981595
184.012,250.495726539
184.027,250.674321383
184.042,250.850849271
184.057,251.025385072
184.072,251.197996409
184.087,251.368744559
184.102,251.537685229
184.117,251.704869244
184.132,251.87034314
184.147,252.034149687
184.162,252.196328341
184.177,252.356915648
184.192,252.515945588
184.207,252.673449884
184.222,252.829458267
184.237,252.983998715
184.252,253.137097653
184.267,253.288780137
184.282,253.439070011
184.297,253.587990047
184.312,253.735562059
184.327,253.88180702
184.342,254.026745146
184.357,254.170395979
184.372,254.31277846
184.387,254.45391099
184.402,254.593811483
184.417,254.732497412
184.432,254.869985852
184.447,255.006293513
184.462,255.141436774
184.477,255.275431705
184.492,255.408294092
184.507,255.540039461
184.522,255.670683085
184.537,255.800240009
184.552,255.928725054
184.56,255.996817186
184.567,256.056152834
184.582,256.18253776
184.597,256.307894051
184.612,256.432235738
184.627,256.55557667
184.642,256.67793052
184.657,256.799310786
184.672,256.919730795
184.687,257.039203707
184.702,257.157742516
184.717,257.275360051
184.732,257.392068977
184.747,257.507881799
184.762,257.62281086
184.777,257.736868342
184.792,257.850066269
184.807,257.962416504
184.822,258.073930754
184.837,258.184620566
184.852,258.294497329
184.867,258.403572276
184.882,258.511856483
184.897,258.61936087
184.912,258.726096202
184.927,258.832073087
184.942,258.93730198
184.957,259.041793183
184.972,259.145556844
184.987,259.248602958
185.002,259.350941372
185.017,259.452581779
185.032,259.553533725
185.047,259.653806607
185.062,259.753409676
185.077,259.852352035
185.092,259.950642644
185.107,260.04829032
185.122,260.145303736
185.137,260.241691425
185.152,260.337461783
185.167,260.432623064
185.182,260.52718339
185.197,260.621150744
185.212,260.714532979
185.227,260.807337815
185.242,260.899572842
185.257,260.99124552
185.272,261.082363186
185.287,261.172933048
185.302,261.262962192
185.31,261.310759051
185.317,261.352457582
185.332,261.441426062
185.347,261.529874357
185.362,261.617809077
185.377,261.705236714
185.392,261.792163648
185.407,261.878596148
185.422,261.964540372
185.437,262.050002371
185.452,262.134988086
185.467,262.219503357
185.482,262.303553918
185.497,262.387145403
185.512,262.470283343
185.527,262.552973175
185.542,262.635220234
185.557,262.717029764
185.572,262.798406913
185.587,262.879356737
185.602,262.959884201
185.617,263.039994183
185.632,263.119691471
185.647,263.198980768
185.662,263.277866692
185.677,263.356353777
185.692,263.434446476
185.707,263.512149163
185.722,263.589466131
185.737,263.666401595
185.752,263.742959696
185.767,263.819144497
185.782,263.894959991
185.797,263.970410096
185.812,264.04549866
185.827,264.12022946
185.842,264.194606207
185.857,264.268632542
185.872,264.342312041
185.887,264.415648215
185.902,264.488644511
185.917,264.561304314
185.932,264.633630948
185.947,264.705627675
185.96,264.767760458
185.962,264.777297698
185.977,264.848644163
185.992,264.919670158
186.007,264.990378716
186.022,265.060772812
186.037,265.130855372
186.052,265.200629263
186.06,265.23771677
186.067,265.270097305
186.082,265.339262265
186.097,265.408126858
186.112,265.476693754
186.127,265.544965571
186.142,265.612944881
186.157,265.680634211
186.172,265.74803604
186.187,265.815152803
186.202,265.881986893
186.217,265.948540657
186.232,266.014816403
186.247,266.080816395
186.262,266.146542859
186.277,266.211997978
186.292,266.277183899
186.307,266.34210273
186.322,266.406756541
186.337,266.471147364
186.352,266.535277199
186.367,266.599148008
186.382,266.662761718
186.397,266.726120223
186.412,266.789225384
186.427,266.852079031
186.442,266.914682958
186.457,266.977038932
186.472,267.039148689
186.487,267.101013932
186.502,267.162636338
186.517,267.224017554
186.532,267.285159199
186.547,267.346062865
186.562,267.406730118
186.577,267.467162495
186.592,267.52736151
186.607,267.587328651
186.622,267.64706538
186.637,267.706573138
186.652,267.765853339
186.667,267.824907376
186.682,267.88373662
186.697,267.942342418
186.71,267.992954393
186.712,268.000726097
186.727,268.058888963
186.742,268.116832301
186.757,268.174557375
186.772,268.232065431
186.787,268.289357695
186.802,268.346435374
186.817,268.403299658
186.832,268.459951718
186.847,268.516392707
186.862,268.572623762
186.877,268.628646004
186.892,268.684460536
186.907,268.740068446
186.922,268.795470807
186.937,268.850668676
186.952,268.905663096
186.967,268.960455095
186.982,269.015045687
186.997,269.069435873
187.012,269.123626641
187.027,269.177618963
187.042,269.231413803
187.057,269.285012109
187.072,269.338414818
187.087,269.391622856
187.102,269.444637135
187.117,269.49745856
187.132,269.550088022
187.147,269.602526402
187.162,269.654774571
187.177,269.706833389
187.192,269.758703708
187.207,269.81038637
187.222,269.861882205
187.237,269.913192037
187.252,269.964316681
187.267,270.015256941
187.282,270.066013616
187.297,270.116587494
187.312,270.166979356
187.327,270.217189976
187.342,270.26722012
187.357,270.317070545
187.372,270.366742005
187.387,270.416235242
187.402,270.465550995
187.417,270.514689995
187.432,270.563652967
187.447,270.612440629
187.46,270.654582015
187.462,270.661053694
187.477,270.709492869
187.492,270.757758853
187.507,270.805852343
187.522,270.853774029
187.537,270.901524594
187.552,270.949104718
187.567,270.996515077
187.582,271.043756338
187.597,271.090829167
187.612,271.137734225
187.627,271.184472166
187.642,271.231043642
187.657,271.2774493
187.672,271.323689783
187.687,271.36976573
187.702,271.415677775
187.717,271.46142655
187.732,271.507012682
187.747,271.552436794
187.762,271.597699507
187.777,271.642801438
187.792,271.687743199
187.807,271.7325254
187.822,271.777148649
187.837,271.821613549
187.852,271.865920701
187.867,271.910070702
187.882,271.954064147
187.897,271.997901629
187.912,272.041583735
187.927,272.085111052
187.942,272.128484165
187.957,272.171703654
187.972,272.214770098
187.987,272.257684073
188.002,272.300446154
188.017,272.34305691
188.032,272.385516912
188.047,272.427826725
188.062,272.469986916
188.077,272.511998045
188.092,272.553860674
188.107,272.59557536
188.122,272.637142659
188.137,272.678563125
188.152,272.719837311
188.167,272.760965765
188.182,272.801949038
188.197,272.842787674
188.21,272.878064584
188.212,272.883482218
188.227,272.924033212
188.242,272.964441197
188.257,273.004706713
188.272,273.044830295
188.287,273.08481248
188.302,273.124653802
188.317,273.164354791
188.332,273.203915979
188.347,273.243337893
188.362,273.282621062
188.377,273.32176601
188.392,273.360773261
188.407,273.399643338
188.422,273.43837676
188.437,273.476974046
188.452,273.515435715
188.467,273.553762282
188.482,273.591954262
188.497,273.630012166
188.512,273.667936507
188.527,273.705727794
188.542,273.743386536
188.557,273.780913239
188.572,273.818308408
188.587,273.855572548
188.602,273.892706161
188.617,273.929709748
188.632,273.966583808
188.647,274.003328839
188.66,274.035070546
188.662,274.039945337
188.677,274.076433799
188.692,274.112794716
188.707,274.149028582
188.722,274.185135887
