# 01004 ENAS Ny-Alesund Ii Observations at 12Z 21 Apr 2019
Frequency [GHz],TB
175.31,226.466179247
175.322,226.541139146
175.337,226.635023014
175.352,226.729111135
175.367,226.823403357
175.382,226.91789946
175.397,227.012599249
175.412,227.107502519
175.427,227.202609026
175.442,227.297918542
175.457,227.393430831
175.472,227.489145619
175.487,227.585062631
175.502,227.681181606
175.517,227.777502248
175.532,227.874024235
175.547,227.970747258
175.562,228.067670987
175.577,228.164795086
175.592,228.262119203
175.607,228.359642956
175.622,228.457365979
175.637,228.55528788
175.652,228.653408251
175.667,228.751726658
175.682,228.850242693
175.697,228.948955908
175.712,229.047865822
175.727,229.14697199
175.742,229.246273915
175.757,229.345771095
175.772,229.445462995
175.787,229.545349121
175.802,229.645428899
175.817,229.745701785
175.832,229.846167198
175.847,229.946824559
175.862,230.047673245
175.877,230.148712655
175.892,230.24994212
175.907,230.351361028
175.922,230.452968691
175.937,230.554764429
175.952,230.656747527
175.967,230.758917279
175.982,230.861272946
175.997,230.963813788
176.012,231.066539017
176.027,231.169447866
176.042,231.272539509
176.057,231.375813141
176.072,231.479267924
176.087,231.582902977
176.102,231.686717457
176.117,231.79071044
176.132,231.894881028
176.147,231.999228286
176.162,232.103751264
176.177,232.208448985
176.192,232.313320457
176.207,232.418364683
176.222,232.523580615
176.237,232.62896721
176.252,232.734523399
176.267,232.840248092
176.282,232.94614017
176.297,233.052198503
176.31,233.144249311
176.312,233.158421932
176.327,233.264809293
176.342,233.371359372
176.357,233.478070954
176.372,233.584942802
176.387,233.691973654
176.402,233.799162216
176.417,233.906507177
176.432,234.01400721
176.447,234.121660964
176.46,234.215084162
176.462,234.229467052
176.477,234.337424068
176.492,234.445530602
176.507,234.553785178
176.522,234.662186347
176.537,234.770732601
176.552,234.879422392
176.567,234.98825422
176.582,235.097226463
176.597,235.206337545
176.612,235.315585834
176.627,235.424969682
176.642,235.534487418
176.657,235.644137316
176.672,235.753917672
176.687,235.86382671
176.702,235.973862661
176.717,236.08402369
176.732,236.194307983
176.747,236.304713655
176.762,236.41523883
176.777,236.525881576
176.792,236.636639931
176.807,236.747511933
176.822,236.858495558
176.837,236.96958877
176.852,237.080789516
176.867,237.192095676
176.882,237.30350515
176.897,237.415015761
176.912,237.526625334
176.927,237.638331636
176.942,237.75013244
176.957,237.862025451
176.972,237.974008365
176.987,238.08607883
177.002,238.198234476
177.017,238.310472925
177.032,238.422791693
177.047,238.535188345
177.062,238.647660367
177.077,238.760205229
177.092,238.872820359
177.107,238.98550315
177.122,239.098250975
177.137,239.211061177
177.152,239.323931026
177.167,239.436857795
177.182,239.549838728
177.197,239.66287102
177.21,239.760871675
177.212,239.775951815
177.227,239.889078244
177.242,240.002247407
177.257,240.115456348
177.272,240.228702092
177.287,240.341981621
177.302,240.45529189
177.31,240.515735537
177.317,240.568629808
177.332,240.681992236
177.347,240.79537604
177.362,240.908778004
177.377,241.022194905
177.392,241.135623457
177.407,241.249060369
177.422,241.362502284
177.437,241.475945822
177.452,241.589387571
177.467,241.702824052
177.482,241.8162518
177.497,241.929667257
177.512,242.043066845
177.527,242.156446976
177.542,242.269803988
177.557,242.383134199
177.572,242.496433859
177.587,242.60969924
177.602,242.722926513
177.617,242.836111831
177.632,242.949251322
177.647,243.06234106
177.66,243.160308854
177.662,243.175377082
177.677,243.288355389
177.692,243.401271938
177.707,243.514122636
177.722,243.626903386
177.737,243.739610013
177.752,243.852238305
177.767,243.96478405
177.782,244.077242942
177.797,244.189610675
177.812,244.301882886
177.827,244.414055175
177.842,244.52612309
177.857,244.638082163
177.872,244.749927856
177.887,244.861655626
177.902,244.973260871
177.917,245.084738945
177.932,245.196085149
177.947,245.307294799
177.96,245.403562319
177.962,245.418363092
177.977,245.529285242
177.992,245.640056433
178.007,245.750671742
178.022,245.861126282
178.037,245.971415059
178.052,246.081533104
178.067,246.191475365
178.082,246.301236758
178.097,246.41081217
178.112,246.520196448
178.127,246.629384382
178.142,246.738370759
178.157,246.847150297
178.172,246.95571768
178.187,247.064067547
178.202,247.172194531
178.217,247.280093207
178.232,247.387758104
178.247,247.49518373
178.262,247.602364537
178.277,247.709294959
178.292,247.815969398
178.307,247.922382194
178.322,248.028527645
178.337,248.134400088
178.352,248.239993721
178.367,248.345302789
178.382,248.45032147
178.397,248.555043884
178.41,248.645559133
178.412,248.659464159
178.427,248.763576389
178.442,248.867374598
178.457,248.970852814
178.472,249.074005013
178.487,249.17682514
178.502,249.279307126
178.517,249.381444853
178.532,249.483232186
178.547,249.584662942
178.562,249.685730953
178.577,249.78642996
178.592,249.886753722
178.607,249.986695957
178.622,250.086250368
178.637,250.185410609
178.652,250.284170324
178.667,250.382523131
178.682,250.48046262
178.697,250.577982376
178.712,250.675075924
178.727,250.771736823
178.742,250.867958547
178.757,250.963734597
178.772,251.059058426
178.787,251.1539235
178.802,251.248323242
178.817,251.342251054
178.832,251.43570035
178.847,251.528664492
178.862,251.621136858
178.877,251.713110809
178.892,251.804579671
178.907,251.895536788
178.922,251.985975461
178.937,252.07588901
178.952,252.165270741
178.967,252.25411394
178.982,252.342411882
178.997,252.430157866
179.012,252.517345143
179.027,252.603967014
179.042,252.690016725
179.057,252.775487551
179.072,252.860372754
179.087,252.944665608
179.102,253.02835939
179.117,253.11144735
179.132,253.193922786
179.147,253.27577897
179.16,253.346214886
179.162,253.357009181
179.177,253.437606727
179.192,253.517564903
179.207,253.596877028
179.222,253.675536426
179.237,253.753536442
179.252,253.830870415
179.267,253.907531719
179.282,253.98351374
179.297,254.058809868
179.312,254.133413521
179.327,254.207318149
179.342,254.280517199
179.357,254.353004159
179.372,254.424772537
179.387,254.495815866
179.402,254.566127704
179.417,254.635701626
179.432,254.704531255
179.447,254.772610234
179.462,254.839932243
179.477,254.906490988
179.492,254.972280213
179.507,255.037293703
179.522,255.101525267
179.537,255.164968773
179.552,255.227618099
179.567,255.289467195
179.582,255.350510029
179.597,255.410740625
179.612,255.47015305
179.627,255.528741424
179.642,255.586499904
179.657,255.643422678
179.672,255.699504019
179.687,255.754738255
179.702,255.809119709
179.717,255.862642829
179.732,255.915302053
179.747,255.967091936
179.762,256.018007038
179.777,256.068042022
179.792,256.117191556
179.807,256.165450429
179.822,256.212813441
179.837,256.25927548
179.852,256.304831505
179.867,256.349476507
179.882,256.393205589
179.897,256.43601387
179.91,256.472365849
179.912,256.477896558
179.927,256.518848949
179.942,256.558866369
179.957,256.597944244
179.972,256.636078068
179.987,256.673263385
180.002,256.709495832
180.017,256.744771111
180.032,256.779084984
180.047,256.812433319
180.062,256.844812024
180.077,256.876217111
180.092,256.906644635
180.107,256.936090761
180.122,256.964551695
180.137,256.992023756
180.152,257.018503303
180.167,257.043986807
180.182,257.068470783
180.197,257.091951845
180.212,257.114426662
180.227,257.135892015
180.242,257.156344741
180.257,257.175781737
180.272,257.194200021
180.287,257.211596624
180.302,257.227968731
180.317,257.243313518
180.332,257.25762831
180.347,257.270910479
180.362,257.283157447
180.377,257.294366745
180.392,257.30453596
180.407,257.313662777
180.422,257.3217449
180.437,257.328780158
180.452,257.334766421
180.467,257.339701637
180.482,257.343583812
180.497,257.346411043
180.512,257.348181486
180.527,257.348893335
180.542,257.348544882
180.557,257.347134469
180.56,257.346724799
180.572,257.344660479
180.587,257.341121404
180.602,257.336515743
180.617,257.330842103
180.632,257.324099095
180.647,257.316285418
180.66,257.308646544
180.662,257.307399813
180.677,257.29744108
180.692,257.286408071
180.707,257.274299673
180.722,257.261114816
180.737,257.246852503
180.752,257.231511754
180.767,257.215091631
180.782,257.197591261
180.797,257.179009765
180.812,257.159346355
180.827,257.13860024
180.842,257.116770667
180.857,257.093856917
180.872,257.069858291
180.887,257.044774147
180.902,257.018603839
180.917,256.991346756
180.932,256.963002319
180.947,256.933569924
180.962,256.903049048
180.977,256.871439165
180.992,256.838739735
181.007,256.804950263
181.022,256.770070259
181.037,256.734099255
181.052,256.697036769
181.067,256.658882351
181.082,256.619635535
181.097,256.579295906
181.112,256.537863005
181.127,256.495336415
181.142,256.451715703
181.157,256.407000458
181.172,256.361190262
181.187,256.314284687
181.202,256.266283356
181.217,256.217185838
181.232,256.166991759
181.247,256.115700722
181.262,256.063312335
181.277,256.009826231
181.292,255.955242038
181.307,255.899559408
181.31,255.888291042
181.322,255.842777982
181.337,255.784897439
181.352,255.725917467
181.367,255.66583777
181.382,255.604658057
181.397,255.542378108
181.412,255.478997691
181.427,255.414516629
181.442,255.348934756
181.457,255.282251989
181.472,255.214468239
181.487,255.145583532
181.502,255.075597904
181.517,255.004511463
181.532,254.932324406
181.547,254.859036987
181.562,254.784649566
181.577,254.709162584
181.592,254.632576602
181.607,254.55489225
181.622,254.476110328
181.637,254.396231751
181.652,254.31525754
181.667,254.233188962
181.682,254.150027346
181.697,254.065774261
181.712,253.980431447
181.727,253.894000861
181.742,253.806484652
181.757,253.717885255
181.772,253.628205301
181.787,253.537447706
181.802,253.445615686
181.817,253.35271275
181.832,253.258742705
181.847,253.163709741
181.862,253.067618375
181.877,252.970473485
181.892,252.872280399
181.907,252.773044824
181.922,252.672772953
181.937,252.571471414
181.952,252.469147345
181.967,252.365808383
181.982,252.26146273
181.997,252.156119146
182.012,252.049786979
182.027,251.942476219
182.042,251.834197486
182.057,251.724962109
182.06,251.703001268
182.072,251.614782069
182.087,251.503670163
182.102,251.391639877
182.117,251.278705558
182.132,251.164882348
182.147,251.050186246
182.162,250.934634161
182.177,250.818243905
182.192,250.701034267
182.207,250.583024977
182.222,250.464236826
182.237,250.344691631
182.252,250.224412274
182.267,250.103422743
182.282,249.981748171
182.297,249.85941484
182.312,249.73645022
182.327,249.612882974
182.342,249.48874303
182.357,249.364061531
182.372,249.238870914
182.387,249.113204903
182.402,248.987098478
182.417,248.860587985
182.432,248.733711032
182.447,248.606506545
182.462,248.479014764
182.477,248.351277206
182.492,248.223336638
182.507,248.095237122
182.522,247.967023886
182.537,247.838743329
182.552,247.710442959
182.567,247.582171333
182.582,247.453977954
182.597,247.325913192
182.612,247.198028185
182.627,247.070374647
182.642,246.943004814
182.657,246.815971166
182.672,246.6893263
182.687,246.563122628
182.702,246.437412192
182.717,246.31224628
182.732,246.187675135
182.747,246.063747501
182.762,245.940510242
182.777,245.818007736
182.792,245.696281356
182.807,245.575368764
182.822,245.455303123
182.837,245.33611225
182.852,245.217817549
182.867,245.100432882
182.882,244.983963191
182.897,244.868402974
182.912,244.75373439
182.927,244.639925226
182.942,244.52692636
182.957,244.41466883
182.972,244.303060413
182.987,244.191981472
183.002,244.081280002
183.017,243.970765709
183.032,243.860202786
183.047,243.749301097
183.062,243.637705414
183.077,243.524982088
183.092,243.410602568
183.107,243.293922983
183.122,243.174158762
183.137,243.050353295
183.152,242.921339237
183.167,242.785691088
183.182,242.64166604
183.197,242.487124845
183.212,242.319403542
183.227,242.135033943
183.242,241.928979426
183.257,241.69243324
183.367,241.738308185
183.382,241.961277258
183.397,242.15662088
183.412,242.331831891
183.427,242.491417193
183.442,242.638592322
183.457,242.775866877
183.472,242.90526759
183.487,243.028448563
183.502,243.146763711
183.517,243.261322247
183.532,243.373033644
183.547,243.4826442
183.562,243.590766693
183.577,243.697904369
183.592,243.804470189
183.607,243.910802494
183.622,244.017177485
183.637,244.123819561
183.652,244.2309096
183.667,244.33859181
183.682,244.446979426
183.697,244.556159406
183.712,244.666196346
183.727,244.777135842
183.742,244.889007238
183.757,245.001826007
183.772,245.115595864
183.787,245.230310408
183.802,245.345954703
183.817,245.462506551
183.832,245.579937606
183.847,245.698214384
183.862,245.817299091
183.877,245.937150392
183.892,246.057724052
183.907,246.178973514
183.922,246.300850392
183.937,246.423304928
183.952,246.546286319
183.967,246.669743156
183.982,246.793623644
183.997,246.917875868
184.012,247.042448033
184.027,247.167288669
184.042,247.292346791
184.057,247.417572024
184.072,247.542914783
184.087,247.66832633
184.102,247.793758898
184.117,247.919165768
184.132,248.044501302
184.147,248.169721032
184.162,248.294781702
184.177,248.419641271
184.192,248.544258984
184.207,248.668595327
184.222,248.792612121
184.237,248.916272442
184.252,249.039540704
184.267,249.162382573
184.282,249.284765036
184.297,249.406656329
184.312,249.528025955
184.327,249.648844668
184.342,249.769084419
184.357,249.888718394
184.372,250.007720918
184.387,250.126067506
184.402,250.243734767
184.417,250.360700412
184.432,250.476943241
184.447,250.592443075
184.462,250.707180745
184.477,250.821138079
184.492,250.93429785
184.507,251.04664373
184.522,251.15816031
184.537,251.268833036
184.552,251.378648168
184.56,251.436861082
184.567,251.48759279
184.582,251.595654728
184.597,251.70282258
184.612,251.809085632
184.627,251.914433874
184.642,252.018857923
184.657,252.122349085
184.672,252.224899196
184.687,252.326500728
184.702,252.427146672
184.717,252.526830545
184.732,252.625546391
184.747,252.7232887
184.762,252.820052461
184.777,252.915833037
184.792,253.010626261
184.807,253.104428331
184.822,253.197235794
184.837,253.289045606
184.852,253.379854993
184.867,253.46966152
184.882,253.558463071
184.897,253.64625777
184.912,253.733044016
184.927,253.818820487
184.942,253.903586041
184.957,253.987339793
184.972,254.070081043
184.987,254.151809284
185.002,254.232524184
185.017,254.312225585
185.032,254.390913489
185.047,254.468588004
185.062,254.545249421
185.077,254.620898123
185.092,254.695534597
185.107,254.769159453
185.122,254.841773385
185.137,254.913377191
185.152,254.983971727
185.167,255.053557928
185.182,255.122136798
185.197,255.189709382
185.212,255.256276817
185.227,255.321840243
185.242,255.386400856
185.257,255.449959912
185.272,255.512518663
185.287,255.574078412
185.302,255.634640472
185.31,255.666532768
185.317,255.694206205
185.332,255.752776942
185.347,255.810354068
185.362,255.866938965
185.377,255.922533024
185.392,255.977137634
185.407,256.030754205
185.422,256.083384146
185.437,256.13502885
185.452,256.185689712
185.467,256.235368171
185.482,256.284065597
185.497,256.331783395
185.512,256.378522965
185.527,256.424285681
185.542,256.469072941
185.557,256.512886123
185.572,256.555726587
185.587,256.597595717
185.602,256.638494877
185.617,256.678425415
185.632,256.717388689
185.647,256.755386067
185.662,256.792418888
185.677,256.828488496
185.692,256.863596254
185.707,256.897743498
185.722,256.930931569
185.737,256.963161838
185.752,256.994435642
185.767,257.024754327
185.782,257.054119284
185.797,257.082531851
185.812,257.109993416
185.827,257.136505375
185.842,257.162069094
185.857,257.186685995
185.872,257.2103575
185.887,257.233085024
185.902,257.254870032
185.917,257.275713982
185.932,257.295618353
185.947,257.314584646
185.96,257.33026448
185.962,257.332614392
185.977,257.349709119
185.992,257.365870407
186.007,257.381099862
186.022,257.395399069
186.037,257.408769714
186.052,257.42121344
186.06,257.427471683
186.067,257.432731974
186.082,257.443327053
186.097,257.453000424
186.112,257.46175391
186.127,257.469589352
186.142,257.476508615
186.157,257.482513615
186.172,257.487606301
186.187,257.491788646
186.202,257.49506271
186.217,257.497430557
186.232,257.498894265
186.247,257.499456034
186.262,257.499118032
186.277,257.497882515
186.292,257.495751788
186.307,257.492728154
186.322,257.488814012
186.337,257.484011805
186.352,257.478323992
186.367,257.4717531
186.382,257.464301716
186.397,257.455972459
186.412,257.446767997
186.427,257.436691075
186.442,257.425744458
186.457,257.413930972
186.472,257.401253502
186.487,257.38771497
186.502,257.373318372
186.517,257.358066737
186.532,257.341963152
186.547,257.325010745
186.562,257.30721273
186.577,257.288572338
186.592,257.269092875
186.607,257.248777672
186.622,257.227630139
186.637,257.205653731
186.652,257.182851946
186.667,257.159228334
186.682,257.13478653
186.697,257.10953015
186.71,257.086985274
186.712,257.083462929
186.727,257.056588621
186.742,257.028911036
186.757,257.000434021
186.772,256.971161497
186.787,256.941097413
186.802,256.910245771
186.817,256.878610619
186.832,256.846196059
186.847,256.813006248
186.862,256.779045354
186.877,256.744317633
186.892,256.708827346
186.907,256.672578848
186.922,256.635576483
186.937,256.597824664
186.952,256.559327849
186.967,256.520090525
186.982,256.480117248
186.997,256.439412556
187.012,256.397981096
187.027,256.355827502
187.042,256.312956467
187.057,256.26937272
187.072,256.22508102
187.087,256.180086147
187.102,256.134392945
187.117,256.088006286
187.132,256.040931057
187.147,255.993172174
187.162,255.944734605
187.177,255.89562333
187.192,255.845843378
187.207,255.79539978
187.222,255.744297611
187.237,255.692541956
187.252,255.640137957
187.267,255.587090742
187.282,255.53340549
187.297,255.479087383
187.312,255.424141635
187.327,255.368573483
187.342,255.312388178
187.357,255.255590991
187.372,255.198187205
187.387,255.140182144
187.402,255.081581096
187.417,255.022389428
187.432,254.962612476
187.447,254.902255605
187.46,254.84948138
187.462,254.841324194
187.477,254.779823625
187.492,254.717759289
187.507,254.655136607
187.522,254.591960992
187.537,254.528237859
187.552,254.463972642
187.567,254.39917077
187.582,254.333837695
187.597,254.267978859
187.612,254.201599717
187.627,254.134705708
187.642,254.067302294
187.657,253.999394927
187.672,253.930989059
187.687,253.862090148
187.702,253.792703645
187.717,253.722834996
187.732,253.652489648
187.747,253.581673056
187.762,253.510390651
187.777,253.438647873
187.792,253.366450143
187.807,253.293802881
187.822,253.220711513
187.837,253.14718142
187.852,253.073218024
187.867,252.99882671
187.882,252.924012843
187.897,252.848781793
187.912,252.773138916
187.927,252.697089559
187.942,252.620639057
187.957,252.543792709
187.972,252.466555845
187.987,252.388933719
188.002,252.310931643
188.017,252.232554847
188.032,252.153808578
188.047,252.074698068
188.062,251.995228526
188.077,251.915405137
188.092,251.835233066
188.107,251.754717479
188.122,251.6738635
188.137,251.592676249
188.152,251.511160818
188.167,251.429322278
188.182,251.347165678
188.197,251.264696057
188.21,251.192973052
188.212,251.181918416
188.227,251.098837741
188.242,251.015459003
188.257,250.931787136
188.272,250.847827045
188.287,250.76358365
188.302,250.679061798
188.317,250.594266331
188.332,250.50920208
188.347,250.423873827
188.362,250.338286351
188.377,250.252444375
188.392,250.166352642
188.407,250.080015827
188.422,249.99343858
188.437,249.90662557
188.452,249.819581362
188.467,249.732310575
188.482,249.644817742
188.497,249.557107386
188.512,249.469184015
188.527,249.381052091
188.542,249.29271606
188.557,249.204180335
188.572,249.115449276
188.587,249.026527262
188.602,248.937418603
188.617,248.848127614
188.632,248.758658531
188.647,248.669015594
188.66,248.591187689
188.662,248.579203031
188.677,248.489225006
188.692,248.399085643
188.707,248.308789081
188.722,248.218339412
188.737,248.127740674
