# 78954 TBPB Grantley Adams Observations at 12Z 28 Jan 2019
Frequency [GHz],TB
175.31,286.120800847
175.322,286.11243926
175.337,286.10194182
175.352,286.091393948
175.367,286.080795724
175.382,286.070147229
175.397,286.059448545
175.412,286.048699752
175.427,286.037900934
175.442,286.02705217
175.457,286.016153543
175.472,286.005205135
175.487,285.994207028
175.502,285.983159304
175.517,285.972062045
175.532,285.960915332
175.547,285.949719248
175.562,285.938473873
175.577,285.927179291
175.592,285.915835582
175.607,285.904442827
175.622,285.893001109
175.637,285.881510506
175.652,285.869971101
175.667,285.858382974
175.682,285.846746205
175.697,285.835060872
175.712,285.823327057
175.727,285.811544837
175.742,285.799714291
175.757,285.787835497
175.772,285.775908532
175.787,285.763933474
175.802,285.751910399
175.817,285.739839382
175.832,285.727720499
175.847,285.715553825
175.862,285.703339433
175.877,285.691077395
175.892,285.678767784
175.907,285.666410674
175.922,285.654006132
175.937,285.64155423
175.952,285.629055036
175.967,285.616508619
175.982,285.603915045
175.997,285.591274379
176.012,285.578586688
176.027,285.565852036
176.042,285.553070483
176.057,285.540242093
176.072,285.527366926
176.087,285.514445041
176.102,285.501476496
176.117,285.488461347
176.132,285.47539965
176.147,285.462291458
176.162,285.449136824
176.177,285.4359358
176.192,285.422688434
176.207,285.409394775
176.222,285.396054869
176.237,285.38266876
176.252,285.369236492
176.267,285.355758108
176.282,285.342233645
176.297,285.328663143
176.31,285.316864827
176.312,285.315046636
176.327,285.301384161
176.342,285.287675749
176.357,285.27392143
176.372,285.260121234
176.387,285.246275186
176.402,285.232383311
176.417,285.218445632
176.432,285.204462168
176.447,285.190432939
176.46,285.178237265
176.462,285.176357958
176.477,285.162237241
176.492,285.148070798
176.507,285.133858638
176.522,285.119600769
176.537,285.105297192
176.552,285.090947912
176.567,285.076552925
176.582,285.06211223
176.597,285.047625819
176.612,285.033093684
176.627,285.018515814
176.642,285.003892194
176.657,284.989222808
176.672,284.974507635
176.687,284.959746652
176.702,284.944939835
176.717,284.930087155
176.732,284.915188579
176.747,284.900244074
176.762,284.885253601
176.777,284.87021712
176.792,284.855134586
176.807,284.840005952
176.822,284.824831168
176.837,284.809610179
176.852,284.794342928
176.867,284.779029355
176.882,284.763669396
176.897,284.748262981
176.912,284.73281004
176.927,284.717310499
176.942,284.701764278
176.957,284.686171295
176.972,284.670531465
176.987,284.654844697
177.002,284.639110897
177.017,284.623329968
177.032,284.607501809
177.047,284.591626314
177.062,284.575703372
177.077,284.559732872
177.092,284.543714694
177.107,284.527648716
177.122,284.511534813
177.137,284.495372854
177.152,284.479162703
177.167,284.462904222
177.182,284.446597267
177.197,284.430241689
177.21,284.416027406
177.212,284.413837335
177.227,284.397384049
177.242,284.380881668
177.257,284.364330025
177.272,284.347728949
177.287,284.331078263
177.302,284.314377787
177.31,284.305450443
177.317,284.297627334
177.332,284.280826713
177.347,284.263975728
177.362,284.247074178
177.377,284.230121856
177.392,284.213118551
177.407,284.196064046
177.422,284.17895812
177.437,284.161800544
177.452,284.144591087
177.467,284.127329509
177.482,284.110015567
177.497,284.092649012
177.512,284.075229588
177.527,284.057757035
177.542,284.040231086
177.557,284.022651469
177.572,284.005017907
177.587,283.987330114
177.602,283.969587801
177.617,283.951790671
177.632,283.933938422
177.647,283.916030746
177.66,283.900465683
177.662,283.898067329
177.677,283.880047848
177.692,283.861971977
177.707,283.843839381
177.722,283.825649721
177.737,283.807402649
177.752,283.789097811
177.767,283.770734849
177.782,283.752313393
177.797,283.733833071
177.812,283.715293501
177.827,283.696694296
177.842,283.678035061
177.857,283.659315393
177.872,283.640534884
177.887,283.621693116
177.902,283.602789666
177.917,283.583824102
177.932,283.564795986
177.947,283.545704871
177.96,283.529107928
177.962,283.526550303
177.977,283.50733182
177.992,283.488048952
178.007,283.468701221
178.022,283.449288143
178.037,283.429809222
178.052,283.410263958
178.067,283.39065184
178.082,283.370972349
178.097,283.351224958
178.112,283.331409133
178.127,283.311524328
178.142,283.291569991
178.157,283.271545561
178.172,283.251450467
178.187,283.231284128
178.202,283.211045958
178.217,283.190735357
178.232,283.170351719
178.247,283.149894427
178.262,283.129362855
178.277,283.108756368
178.292,283.08807432
178.307,283.067316056
178.322,283.046480911
178.337,283.02556821
178.352,283.004577267
178.367,282.983507387
178.382,282.962357863
178.397,282.941127981
178.41,282.922663185
178.412,282.919817011
178.427,282.898424216
178.442,282.876948849
178.457,282.855390147
178.472,282.833747342
178.487,282.812019651
178.502,282.79020628
178.517,282.768306424
178.532,282.746319266
178.547,282.724243978
178.562,282.70207972
178.577,282.679825638
178.592,282.657480869
178.607,282.635044534
178.622,282.612515745
178.637,282.589893598
178.652,282.567177179
178.667,282.544365559
178.682,282.521457798
178.697,282.49845294
178.712,282.475350018
178.727,282.45214805
178.742,282.42884604
178.757,282.405442979
178.772,282.381937843
178.787,282.358329595
178.802,282.334617182
178.817,282.310799536
178.832,282.286875577
178.847,282.262844207
178.862,282.238704314
178.877,282.21445477
178.892,282.190094432
178.907,282.165622141
178.922,282.141036722
178.937,282.116336984
178.952,282.091521718
178.967,282.066589702
178.982,282.041539693
178.997,282.016370433
179.012,281.991080646
179.027,281.965669041
179.042,281.940134305
179.057,281.91447511
179.072,281.888690109
179.087,281.862777938
179.102,281.836737211
179.117,281.810566526
179.132,281.784264461
179.147,281.757829574
179.16,281.734810773
179.162,281.731260405
179.177,281.704555472
179.192,281.677713274
179.207,281.65073229
179.222,281.623610976
179.237,281.596347771
179.252,281.568941089
179.267,281.541389324
179.282,281.513690848
179.297,281.485844012
179.312,281.457847143
179.327,281.429698546
179.342,281.401396503
179.357,281.372939273
179.372,281.344325091
179.387,281.315552168
179.402,281.286618692
179.417,281.257522825
179.432,281.228262705
179.447,281.198836444
179.462,281.16924213
179.477,281.139477824
179.492,281.10954156
179.507,281.079431349
179.522,281.049145171
179.537,281.018680981
179.552,280.988036707
179.567,280.957210247
179.582,280.926199472
179.597,280.895002225
179.612,280.863616319
179.627,280.832039538
179.642,280.800269636
179.657,280.768304337
179.672,280.736141335
179.687,280.703778292
179.702,280.67121284
179.717,280.638442578
179.732,280.605465075
179.747,280.572277864
179.762,280.538878449
179.777,280.505264298
179.792,280.471432847
179.807,280.437381495
179.822,280.403107611
179.837,280.368608525
179.852,280.333881533
179.867,280.298923895
179.882,280.263732836
179.897,280.228305542
179.91,280.197408597
179.912,280.192639163
179.927,280.156730812
179.942,280.120577562
179.957,280.08417645
179.972,280.047524473
179.987,280.010618587
180.002,279.97345571
180.017,279.93603272
180.032,279.898346452
180.047,279.860393702
180.062,279.822171222
180.077,279.783675724
180.092,279.744903877
180.107,279.705852305
180.122,279.666517591
180.137,279.626896271
180.152,279.58698484
180.167,279.546779744
180.182,279.506277386
180.197,279.465474124
180.212,279.424366267
180.227,279.382950078
180.242,279.341221773
180.257,279.29917752
180.272,279.256813439
180.287,279.214125601
180.302,279.171110027
180.317,279.12776269
180.332,279.084079511
180.347,279.040056361
180.362,278.995689062
180.377,278.950973381
180.392,278.905905035
180.407,278.860479689
180.422,278.814692954
180.437,278.768540389
180.452,278.722017499
180.467,278.675119734
180.482,278.627842491
180.497,278.580181111
180.512,278.532130881
180.527,278.483687031
180.542,278.434844735
180.557,278.385599113
180.56,278.375701156
180.572,278.335945226
180.587,278.285878078
180.602,278.235392616
180.617,278.184483731
180.632,278.133146254
180.647,278.081374959
180.66,278.036151508
180.662,278.029164559
180.677,277.976509712
180.692,277.923405013
180.707,277.869845002
180.722,277.815824156
180.737,277.761336893
180.752,277.706377572
180.767,277.650940492
180.782,277.595019891
180.797,277.538609947
180.812,277.481704777
180.827,277.424298439
180.842,277.366384928
180.857,277.307958181
180.872,277.249012072
180.887,277.189540416
180.902,277.129536966
180.917,277.068995415
180.932,277.007909395
180.947,276.946272479
180.962,276.884078178
180.977,276.821319942
180.992,276.757991162
181.007,276.694085171
181.022,276.629595238
181.037,276.564514576
181.052,276.498836336
181.067,276.432553614
181.082,276.365659442
181.097,276.298146799
181.112,276.230008601
181.127,276.16123771
181.142,276.09182693
181.157,276.021769006
181.172,275.95105663
181.187,275.879682435
181.202,275.807639001
181.217,275.734918852
181.232,275.661514458
181.247,275.587418234
181.262,275.512622542
181.277,275.437119694
181.292,275.360901946
181.307,275.283961505
181.31,275.268486004
181.322,275.206290526
181.337,275.127881115
181.352,275.048725327
181.367,274.968815168
181.382,274.888142598
181.397,274.806699526
181.412,274.724477815
181.427,274.641469283
181.442,274.557665701
181.457,274.473058794
181.472,274.387640244
181.487,274.301401687
181.502,274.214334717
181.517,274.126430884
181.532,274.037681695
181.547,273.948078615
181.562,273.857613068
181.577,273.766276434
181.592,273.674060054
181.607,273.580955228
181.622,273.486953211
181.637,273.392045221
181.652,273.296222432
181.667,273.199475979
181.682,273.101796953
181.697,273.003176403
181.712,272.903605337
181.727,272.803074717
181.742,272.701575462
181.757,272.599098446
181.772,272.495634495
181.787,272.391174389
181.802,272.285708855
181.817,272.179228572
181.832,272.071724164
181.847,271.963186198
181.862,271.853605184
181.877,271.742971571
181.892,271.63127574
181.907,271.518508007
181.922,271.404658614
181.937,271.289717727
181.952,271.17367543
181.967,271.05652172
181.982,270.938246502
181.997,270.818839579
182.012,270.698290651
182.027,270.576589303
182.042,270.453724998
182.057,270.329687066
182.06,270.304737696
182.072,270.204464696
182.087,270.078046925
182.102,269.950422624
182.117,269.821580486
182.132,269.691509011
182.147,269.560196488
182.162,269.427630982
182.177,269.293800309
182.192,269.158692017
182.207,269.022293363
182.222,268.884591282
182.237,268.745572362
182.252,268.605222811
182.267,268.463528414
182.282,268.320474502
182.297,268.176045898
182.312,268.030226868
182.327,267.883001065
182.342,267.734351462
182.357,267.584260279
182.372,267.432708901
182.387,267.279677784
182.402,267.125146346
182.417,266.96909285
182.432,266.811494266
182.447,266.652326111
182.462,266.491562274
182.477,266.329174806
182.492,266.165133694
182.507,265.999406583
182.522,265.831958472
182.537,265.662751358
182.552,265.491743825
182.567,265.318890572
182.582,265.144141864
182.597,264.967442903
182.612,264.788733093
182.627,264.607945186
182.642,264.425004296
182.657,264.23982674
182.672,264.052318699
182.687,263.862374638
182.702,263.669875474
182.717,263.474686409
182.732,263.276654399
182.747,263.075605169
182.762,262.87133969
182.777,262.663630015
182.792,262.452214354
182.807,262.236791217
182.822,262.017012451
182.837,261.792474928
182.852,261.562710609
182.867,261.327174635
182.882,261.085230997
182.897,260.836135283
182.912,260.579013815
182.927,260.312838376
182.942,260.036395505
182.957,259.748249121
182.972,259.446694904
182.987,259.12970454
183.002,258.79485749
183.017,258.43925746
183.032,258.059430247
183.047,257.651199133
183.062,257.209533733
183.077,256.728368386
183.092,256.200387476
183.107,255.616778586
183.122,254.966962224
183.137,254.238322949
183.152,253.415998225
183.167,252.482841268
183.182,251.419786128
183.197,250.207049018
183.212,248.826972077
183.227,247.269970378
183.242,245.546117783
183.257,243.706296123
183.367,244.151022254
183.382,245.963149711
183.397,247.641314873
183.412,249.147656369
183.427,250.478573736
183.442,251.646455685
183.457,252.669850709
183.472,253.568499974
183.487,254.361016605
183.502,255.063953177
183.517,255.69156794
183.532,256.255920587
183.547,256.767104746
183.562,257.233519898
183.577,257.662136422
183.592,258.058734079
183.607,258.428107731
183.622,258.774240558
183.637,259.100447827
183.652,259.409495231
183.667,259.70369584
183.682,259.984989354
183.697,260.255006848
183.712,260.515123703
183.727,260.766502929
183.742,261.010130689
183.757,261.246845503
183.772,261.4773623
183.787,261.702292285
183.802,261.922159396
183.817,262.137413965
183.832,262.34844409
183.847,262.555585133
183.862,262.759127663
183.877,262.959324119
183.892,263.156394417
183.907,263.350530671
183.922,263.541901185
183.937,263.730653832
183.952,263.916918917
183.967,264.100811612
183.982,264.282434035
183.997,264.461877013
184.012,264.639221598
184.027,264.814540363
184.042,264.987898509
184.057,265.15935482
184.072,265.328962484
184.087,265.496769799
184.102,265.662820785
184.117,265.827155705
184.132,265.989811528
184.147,266.150822322
184.162,266.310219595
184.177,266.468032592
184.192,266.624288562
184.207,266.779012974
184.222,266.932229722
184.237,267.083961294
184.252,267.234228925
184.267,267.383052728
184.282,267.530451812
184.297,267.676444383
184.312,267.821047836
184.327,267.964278834
184.342,268.106153378
184.357,268.246686871
184.372,268.385894173
184.387,268.523789649
184.402,268.660387218
184.417,268.795700386
184.432,268.929742285
184.447,269.062525706
184.462,269.194063122
184.477,269.32436672
184.492,269.453448421
184.507,269.5813199
184.522,269.707992607
184.537,269.833477783
184.552,269.957786476
184.56,270.023607154
184.567,270.080929555
184.582,270.202917723
184.597,270.323761528
184.612,270.443471377
184.627,270.56205754
184.642,270.679530165
184.657,270.795899282
184.672,270.911174812
184.687,271.025366575
184.702,271.138484295
184.717,271.250537606
184.732,271.361536055
184.747,271.471489113
184.762,271.580406172
184.777,271.688296554
184.792,271.795169514
184.807,271.90103424
184.822,272.005899859
184.837,272.109775441
184.852,272.212669998
184.867,272.314592487
184.882,272.415551814
184.897,272.515556833
184.912,272.614616351
184.927,272.712739125
184.942,272.809933866
184.957,272.906209241
184.972,273.001573871
184.987,273.096036332
185.002,273.18960516
185.017,273.282288843
185.032,273.374095832
185.047,273.465034532
185.062,273.555113307
185.077,273.64434048
185.092,273.732724331
185.107,273.820273097
185.122,273.906994975
185.137,273.992898118
185.152,274.077990638
185.167,274.162280602
185.182,274.245776035
185.197,274.32848492
185.212,274.410415192
185.227,274.491574745
185.242,274.571971428
185.257,274.651613044
185.272,274.730507349
185.287,274.808662054
185.302,274.886084824
185.31,274.92708032
185.317,274.962783275
185.332,275.038764978
185.347,275.114037451
185.362,275.188608168
185.377,275.26248455
185.392,275.335673972
185.407,275.408183755
185.422,275.48002117
185.437,275.55119344
185.452,275.621707731
185.467,275.691571161
185.482,275.760790793
185.497,275.829373639
185.512,275.897326655
185.527,275.964656746
185.542,276.031370759
185.557,276.097475492
185.572,276.162977682
185.587,276.227884015
185.602,276.292201121
185.617,276.355935572
185.632,276.419093887
185.647,276.481682527
185.662,276.543707896
185.677,276.605176344
185.692,276.666094162
185.707,276.726467586
185.722,276.786302791
185.737,276.845605901
185.752,276.904382978
185.767,276.962640029
185.782,277.020383002
185.797,277.077617791
185.812,277.134350229
185.827,277.190586095
185.842,277.246331108
185.857,277.301590931
185.872,277.356371172
185.887,277.410677378
185.902,277.464515042
185.917,277.517889601
185.932,277.570806433
185.947,277.623270861
185.96,277.66837816
185.962,277.675288152
185.977,277.726863516
185.992,277.778002107
186.007,277.828709026
186.022,277.878989316
186.037,277.928847966
186.052,277.97828991
186.06,278.004490247
186.067,278.027320027
186.082,278.075943143
186.097,278.124164028
186.112,278.1719874
186.127,278.219417923
186.142,278.266460209
186.157,278.313118816
186.172,278.35939825
186.187,278.405302965
186.202,278.450837364
186.217,278.496005798
186.232,278.540812567
186.247,278.585261921
186.262,278.62935806
186.277,278.673105134
186.292,278.716507244
186.307,278.759568441
186.322,278.802292728
186.337,278.844684061
186.352,278.886746347
186.367,278.928483446
186.382,278.969899171
186.397,279.01099729
186.412,279.051781523
186.427,279.092255546
186.442,279.132422987
186.457,279.172287434
186.472,279.211852427
186.487,279.251121464
186.502,279.290097997
186.517,279.328785439
186.532,279.367187158
186.547,279.40530648
186.562,279.443146689
186.577,279.48071103
186.592,279.518002705
186.607,279.555024876
186.622,279.591780666
186.637,279.628273157
186.652,279.664505394
186.667,279.700480382
186.682,279.736201088
186.697,279.771670442
186.71,279.802209469
186.712,279.806891335
186.727,279.841866624
186.742,279.876599126
186.757,279.911091625
186.772,279.945346867
186.787,279.979367564
186.802,280.013156394
186.817,280.046716
186.832,280.080048988
186.847,280.113157937
186.862,280.146045385
186.877,280.178713845
186.892,280.211165791
186.907,280.243403669
186.922,280.275429892
186.937,280.307246842
186.952,280.338856871
186.967,280.370262299
186.982,280.401465417
186.997,280.432468486
187.012,280.463273738
187.027,280.493883376
187.042,280.524299573
187.057,280.554524477
187.072,280.584560205
187.087,280.614408847
187.102,280.644072468
187.117,280.673553104
187.132,280.702852765
187.147,280.731973435
187.162,280.760917072
187.177,280.78968561
187.192,280.818280956
187.207,280.846704993
187.222,280.874959579
187.237,280.903046549
187.252,280.930967712
187.267,280.958724856
187.282,280.986319744
187.297,281.013754118
187.312,281.041029693
187.327,281.068148167
187.342,281.095111213
187.357,281.121920483
187.372,281.148577607
187.387,281.175084194
187.402,281.201441832
187.417,281.22765209
187.432,281.253716513
187.447,281.27963663
187.46,281.301985169
187.462,281.305413947
187.477,281.331049953
187.492,281.356546115
187.507,281.381903882
187.522,281.407124686
187.537,281.432209937
187.552,281.457161031
187.567,281.481979341
187.582,281.506666226
187.597,281.531223026
187.612,281.555651063
187.627,281.579951642
187.642,281.604126053
187.657,281.628175568
187.672,281.652101441
187.687,281.675904911
187.702,281.699587203
187.717,281.723149522
187.732,281.746593061
187.747,281.769918996
187.762,281.793128487
187.777,281.816222681
187.792,281.839202709
187.807,281.862069687
187.822,281.884824717
187.837,281.907468887
187.852,281.930003271
187.867,281.952428929
187.882,281.974746906
187.897,281.996958236
187.912,282.019063937
187.927,282.041065016
187.942,282.062962466
187.957,282.084757266
187.972,282.106450386
187.987,282.128042779
188.002,282.14953539
188.017,282.170929147
188.032,282.19222497
188.047,282.213423766
188.062,282.23452643
188.077,282.255533844
188.092,282.276446882
188.107,282.297266403
188.122,282.317993259
188.137,282.338628286
188.152,282.359172313
188.167,282.379626158
188.182,282.399990627
188.197,282.420266516
188.21,282.437767909
188.212,282.440454611
188.227,282.460555687
188.242,282.480570511
188.257,282.500499839
188.272,282.520344415
188.287,282.540104978
188.302,282.559782252
188.317,282.579376957
188.332,282.598889799
188.347,282.618321479
188.362,282.637672686
188.377,282.6569441
188.392,282.676136394
188.407,282.695250232
188.422,282.714286268
188.437,282.733245149
188.452,282.752127512
188.467,282.770933986
188.482,282.789665195
188.497,282.80832175
188.512,282.826904256
188.527,282.845413312
188.542,282.863849508
188.557,282.882213424
188.572,282.900505636
188.587,282.91872671
188.602,282.936877206
188.617,282.954957675
188.632,282.972968663
188.647,282.990910708
188.66,283.006405122
188.662,283.008784339
188.677,283.026590081
188.692,283.044328451
188.707,283.061999958
188.722,283.079605106
