# 10410 EDZE Essen Observations at 12Z 12 Mar 2019
Frequency [GHz],TB
175.31,258.407286412
175.322,258.446583284
175.337,258.495572052
175.352,258.5444121
175.367,258.593101603
175.382,258.641638728
175.397,258.690021661
175.412,258.738248523
175.427,258.786317468
175.442,258.83422665
175.457,258.881974175
175.472,258.929558159
175.487,258.976976726
175.502,259.024227964
175.517,259.071309976
175.532,259.11822083
175.547,259.164958622
175.562,259.211521419
175.577,259.257907258
175.592,259.304114213
175.607,259.350140318
175.622,259.39598361
175.637,259.441642118
175.652,259.487113856
175.667,259.532396848
175.682,259.57748909
175.697,259.62238858
175.712,259.667093308
175.727,259.711601259
175.742,259.755910402
175.757,259.800018715
175.772,259.843924146
175.787,259.887624653
175.802,259.93111819
175.817,259.974402694
175.832,260.017476092
175.847,260.060336319
175.862,260.102981298
175.877,260.145408926
175.892,260.187617127
175.907,260.229603795
175.922,260.271366828
175.937,260.312904126
175.952,260.354213561
175.967,260.395293004
175.982,260.436140353
175.997,260.47675345
176.012,260.517130168
176.027,260.557268366
176.042,260.597165903
176.057,260.636820614
176.072,260.676230342
176.087,260.715392941
176.102,260.75430623
176.117,260.792968044
176.132,260.831376212
176.147,260.869528555
176.162,260.907422888
176.177,260.945057035
176.192,260.982428793
176.207,261.019535976
176.222,261.056376402
176.237,261.092947865
176.252,261.129248154
176.267,261.165275084
176.282,261.201026442
176.297,261.236500026
176.31,261.267017389
176.312,261.271693616
176.327,261.306605019
176.342,261.341232006
176.357,261.375572375
176.372,261.409623913
176.387,261.443384401
176.402,261.476851623
176.417,261.510023363
176.432,261.542897414
176.447,261.575471539
176.46,261.603458143
176.462,261.607743543
176.477,261.639711202
176.492,261.671372313
176.507,261.702724638
176.522,261.73376598
176.537,261.764494134
176.552,261.794906882
176.567,261.825002015
176.582,261.854777323
176.597,261.884230623
176.612,261.913359699
176.627,261.942162358
176.642,261.970636409
176.657,261.998779654
176.672,262.026589907
176.687,262.054064996
176.702,262.081202729
176.717,262.10800094
176.732,262.134457462
176.747,262.160570126
176.762,262.186336776
176.777,262.211755252
176.792,262.23682342
176.807,262.261539131
176.822,262.285900252
176.837,262.309904666
176.852,262.333550229
176.867,262.356834851
176.882,262.379756422
176.897,262.402312846
176.912,262.424502031
176.927,262.446321902
176.942,262.467770377
176.957,262.488845417
176.972,262.509544959
176.987,262.529866947
177.002,262.549809385
177.017,262.569370223
177.032,262.588547464
177.047,262.607339108
177.062,262.625743169
177.077,262.643757677
177.092,262.661380666
177.107,262.678610192
177.122,262.695444305
177.137,262.711881101
177.152,262.727918658
177.167,262.743555088
177.182,262.758788511
177.197,262.77361706
177.21,262.786139535
177.212,262.788038883
177.227,262.802052138
177.242,262.81565502
177.257,262.828845723
177.272,262.841622447
177.287,262.853983437
177.302,262.865926937
177.31,262.872125493
177.317,262.877451208
177.332,262.888554527
177.347,262.899235215
177.362,262.909491571
177.377,262.919321951
177.392,262.92872469
177.407,262.937698195
177.422,262.946240841
177.437,262.954351055
177.452,262.962027265
177.467,262.969267942
177.482,262.976071571
177.497,262.982436645
177.512,262.988361697
177.527,262.993845258
177.542,262.998885916
177.557,263.003482251
177.572,263.007632887
177.587,263.01133647
177.602,263.014591653
177.617,263.017397124
177.632,263.019751605
177.647,263.021653822
177.66,263.022935639
177.662,263.023102552
177.677,263.024096579
177.692,263.024634729
177.707,263.024715816
177.722,263.024338742
177.737,263.023502368
177.752,263.022205644
177.767,263.020447514
177.782,263.018226951
177.797,263.015542949
177.812,263.012394556
177.827,263.008780844
177.842,263.004700872
177.857,263.000153794
177.872,262.995138744
177.887,262.989654895
177.902,262.983701463
177.917,262.977277689
177.932,262.970382843
177.947,262.963016219
177.96,262.956249676
177.962,262.955177147
177.977,262.946864991
177.992,262.93807914
178.007,262.928819015
178.022,262.919084076
178.037,262.908873806
178.052,262.898187727
178.067,262.887025386
178.082,262.875386362
178.097,262.86327027
178.112,262.850676756
178.127,262.837605487
178.142,262.824056194
178.157,262.810028609
178.172,262.795522503
178.187,262.780537696
178.202,262.76507401
178.217,262.749131343
178.232,262.732709582
178.247,262.715808673
178.262,262.698428586
178.277,262.680569324
178.292,262.662230929
178.307,262.643413462
178.322,262.624117027
178.337,262.60434177
178.352,262.584087852
178.367,262.563355461
178.382,262.542144847
178.397,262.520456259
178.41,262.501273089
178.412,262.49829001
178.427,262.47564641
178.442,262.452525817
178.457,262.428928643
178.472,262.404855295
178.487,262.380306231
178.502,262.355281929
178.517,262.329782912
178.532,262.303809722
178.547,262.277362923
178.562,262.250443149
178.577,262.223051004
178.592,262.195187172
178.607,262.166852338
178.622,262.138047217
178.637,262.108772567
178.652,262.079029168
178.667,262.048817819
178.682,262.018139351
178.697,261.986994618
178.712,261.95538451
178.727,261.923309927
178.742,261.890771816
178.757,261.857771126
178.772,261.824308851
178.787,261.790385979
178.802,261.756003557
178.817,261.721162621
178.832,261.68586426
178.847,261.65010955
178.862,261.613899626
178.877,261.5772356
178.892,261.540118634
178.907,261.502549916
178.922,261.464530613
178.937,261.426061946
178.952,261.387145132
178.967,261.34778141
178.982,261.307972036
178.997,261.267718281
179.012,261.227021408
179.027,261.185882741
179.042,261.144303556
179.057,261.102285186
179.072,261.059828955
179.087,261.016936194
179.102,260.97360825
179.117,260.929846466
179.132,260.885652202
179.147,260.84102683
179.16,260.802003837
179.162,260.795971702
179.177,260.750488207
179.192,260.704577706
179.207,260.658241568
179.222,260.611481186
179.237,260.564297931
179.252,260.516693163
179.267,260.468668269
179.282,260.420224614
179.297,260.371363558
179.312,260.32208647
179.327,260.272394695
179.342,260.222289585
179.357,260.171772468
179.372,260.12084468
179.387,260.069507538
179.402,260.017762343
179.417,259.965610375
179.432,259.913052943
179.447,259.860091284
179.462,259.806726666
179.477,259.752960306
179.492,259.698793417
179.507,259.644227197
179.522,259.589262825
179.537,259.533901439
179.552,259.478144177
179.567,259.421992135
179.582,259.365446405
179.597,259.308508039
179.612,259.251178065
179.627,259.193457475
179.642,259.135347254
179.657,259.076848334
179.672,259.017961632
179.687,258.958688017
179.702,258.899028339
179.717,258.83898341
179.732,258.778554005
179.747,258.717740859
179.762,258.656544674
179.777,258.594966121
179.792,258.533005826
179.807,258.470664363
179.822,258.407942277
179.837,258.344840081
179.852,258.281358223
179.867,258.217497122
179.882,258.153257144
179.897,258.088638621
179.91,258.032329915
179.912,258.023641832
179.927,257.958267
179.942,257.892514309
179.957,257.826383908
179.972,257.759875869
179.987,257.692990219
180.002,257.625726965
180.017,257.558086011
180.032,257.490067261
180.047,257.42167054
180.062,257.352895606
180.077,257.283742187
180.092,257.214209954
180.107,257.144298509
180.122,257.074007403
180.137,257.003336146
180.152,256.932284167
180.167,256.86085085
180.182,256.789035528
180.197,256.71683747
180.212,256.644255875
180.227,256.571289914
180.242,256.497938664
180.257,256.424201162
180.272,256.350076393
180.287,256.275563279
180.302,256.200660638
180.317,256.125367311
180.332,256.049682032
180.347,255.973603452
180.362,255.897130221
180.377,255.820260881
180.392,255.742993934
180.407,255.665327836
180.422,255.587260956
180.437,255.508791625
180.452,255.429918113
180.467,255.350638627
180.482,255.270951316
180.497,255.190854282
180.512,255.110345555
180.527,255.029423112
180.542,254.948084897
180.557,254.86632877
180.56,254.849927202
180.572,254.784152545
180.587,254.701553995
180.602,254.618530832
180.617,254.535080705
180.632,254.451201238
180.647,254.366889982
180.66,254.293469029
180.662,254.282144441
180.677,254.196962084
180.692,254.111340327
180.707,254.02527654
180.722,253.938768044
180.737,253.851812125
180.752,253.764406018
180.767,253.676546928
180.782,253.588232016
180.797,253.499458414
180.812,253.410223193
180.827,253.320523423
180.842,253.230356124
180.857,253.139718283
180.872,253.048606884
180.887,252.957018841
180.902,252.864951078
180.917,252.77240049
180.932,252.679363948
180.947,252.585838312
180.962,252.491820417
180.977,252.397307096
180.992,252.302295168
181.007,252.206781441
181.022,252.110762729
181.037,252.01423583
181.052,251.91719757
181.067,251.819644742
181.082,251.721574179
181.097,251.622982712
181.112,251.523867181
181.127,251.424224478
181.142,251.32405146
181.157,251.223345068
181.172,251.122102235
181.187,251.020319935
181.202,250.917995192
181.217,250.815125061
181.232,250.711706655
181.247,250.607737118
181.262,250.503213677
181.277,250.398133603
181.292,250.292494224
181.307,250.186292966
181.31,250.164985067
181.322,250.079527311
181.337,249.972194815
181.352,249.864293146
181.367,249.755820061
181.382,249.646773381
181.397,249.537151071
181.412,249.4269512
181.427,249.316171941
181.442,249.204811596
181.457,249.092868593
181.472,248.980341506
181.487,248.867229054
181.502,248.753530103
181.517,248.639243675
181.532,248.524368966
181.547,248.408905321
181.562,248.292852308
181.577,248.176209661
181.592,248.058977311
181.607,247.941155404
181.622,247.822744302
181.637,247.703744579
181.652,247.584157054
181.667,247.463982789
181.682,247.343223094
181.697,247.221879544
181.712,247.099953989
181.727,246.977448554
181.742,246.854365662
181.757,246.730708034
181.772,246.606478716
181.787,246.481681075
181.802,246.356318796
181.817,246.230395951
181.832,246.103916932
181.847,245.97688653
181.862,245.849309915
181.877,245.721192636
181.892,245.592540674
181.907,245.463360431
181.922,245.333658737
181.937,245.203442864
181.952,245.072720571
181.967,244.941500079
181.982,244.809790106
181.997,244.677599889
182.012,244.544939154
182.027,244.411818217
182.042,244.27824791
182.057,244.144239643
182.06,244.117386478
182.072,244.009805428
182.087,243.874957866
182.102,243.739710191
182.117,243.604076282
182.132,243.468070666
182.147,243.331708554
182.162,243.195005845
182.177,243.057979171
182.192,242.920645894
182.207,242.783024128
182.222,242.645132777
182.237,242.506991543
182.252,242.368620939
182.267,242.230042346
182.282,242.091277999
182.297,241.952351038
182.312,241.813285514
182.327,241.674106416
182.342,241.534839724
182.357,241.395512386
182.372,241.256152389
182.387,241.116788756
182.402,240.977451604
182.417,240.838172126
182.432,240.698982667
182.447,240.559916724
182.462,240.421008962
182.477,240.282295294
182.492,240.143812836
182.507,240.005599972
182.522,239.867696405
182.537,239.730143113
182.552,239.592982441
182.567,239.456258055
182.582,239.32001501
182.597,239.184299746
182.612,239.049160086
182.627,238.91464527
182.642,238.780805904
182.657,238.647694009
182.672,238.515362979
182.687,238.383867545
182.702,238.253263756
182.717,238.123608949
182.732,237.994961651
182.747,237.867381521
182.762,237.74092928
182.777,237.615666567
182.792,237.491655811
182.807,237.368960085
182.822,237.247642904
182.837,237.127768027
182.852,237.009399186
182.867,236.892599832
182.882,236.777432786
182.897,236.663959914
182.912,236.552241714
182.927,236.442336894
182.942,236.334301901
182.957,236.228190465
182.972,236.124053106
182.987,236.021936639
183.002,235.921883766
183.017,235.823932735
183.032,235.728117208
183.047,235.634466365
183.062,235.543005499
183.077,235.453757234
183.092,235.366743807
183.107,235.281990808
183.122,235.199533185
183.137,235.119424389
183.152,235.041750368
183.167,234.966650092
183.182,234.8943456
183.197,234.825184301
183.212,234.759696132
183.227,234.698664288
183.242,234.643198825
183.257,234.594783346
183.367,234.591953783
183.382,234.638556136
183.397,234.691806534
183.412,234.750316753
183.427,234.813065212
183.442,234.879339346
183.457,234.948660977
183.472,235.020718549
183.487,235.095313895
183.502,235.17232328
183.517,235.251670117
183.532,235.333306224
183.547,235.417199318
183.562,235.503324704
183.577,235.591659977
183.592,235.682181658
183.607,235.774863233
183.622,235.869674149
183.637,235.966579295
183.652,236.065539039
183.667,236.16650936
183.682,236.269442249
183.697,236.374286142
183.712,236.480986389
183.727,236.589485771
183.742,236.699724937
183.757,236.811642876
183.772,236.925177356
183.787,237.040265261
183.802,237.156842984
183.817,237.274846695
183.832,237.394212667
183.847,237.514877451
183.862,237.636778147
183.877,237.759852517
183.892,237.884039213
183.907,238.009277841
183.922,238.135509098
183.937,238.262674859
183.952,238.390718249
183.967,238.519583675
183.982,238.649216903
183.997,238.779565062
184.012,238.910576689
184.027,239.042201712
184.042,239.174391474
184.057,239.307098747
184.072,239.440277672
184.087,239.573883815
184.102,239.707874087
184.117,239.842206791
184.132,239.976841529
184.147,240.111739251
184.162,240.246862166
184.177,240.382173764
184.192,240.517638758
184.207,240.653223081
184.222,240.788893828
184.237,240.924619263
184.252,241.06036877
184.267,241.196112809
184.282,241.331822925
184.297,241.467471685
184.312,241.603032697
184.327,241.738480502
184.342,241.873790641
184.357,242.008939575
184.372,242.143904661
184.387,242.27866414
184.402,242.413197105
184.417,242.547483497
184.432,242.681504047
184.447,242.815240284
184.462,242.948674486
184.477,243.081789696
184.492,243.214569664
184.507,243.346998833
184.522,243.479062345
184.537,243.610746
184.552,243.742036229
184.56,243.811892328
184.567,243.872920097
184.582,244.003385275
184.597,244.133420014
184.612,244.263013157
184.627,244.392154077
184.642,244.520832699
184.657,244.649039477
184.672,244.776765358
184.687,244.904001798
184.702,245.030740712
184.717,245.156974502
184.732,245.282695996
184.747,245.407898463
184.762,245.532575619
184.777,245.656721559
184.792,245.780330784
184.807,245.903398175
184.822,246.025919003
184.837,246.14788888
184.852,246.269303773
184.867,246.390159984
184.882,246.510454146
184.897,246.630183197
184.912,246.749344389
184.927,246.86793526
184.942,246.985953644
184.957,247.103397637
184.972,247.220265587
184.987,247.336556135
185.002,247.452268119
185.017,247.567400657
185.032,247.681953075
185.047,247.795924901
185.062,247.909315901
185.077,248.022126026
185.092,248.134355431
185.107,248.246004443
185.122,248.357073591
185.137,248.467563555
185.152,248.577475173
185.167,248.686809464
185.182,248.795567574
185.197,248.903750804
185.212,249.011360586
185.227,249.118398479
185.242,249.224866182
185.257,249.330765491
185.272,249.436098327
185.287,249.540866703
185.302,249.645072746
185.31,249.700420132
185.317,249.74871867
185.332,249.851806778
185.347,249.954339467
185.362,250.056319202
185.377,250.15774853
185.392,250.258630048
185.407,250.358966451
185.422,250.458760473
185.437,250.5580149
185.452,250.656732591
185.467,250.754916427
185.482,250.852569353
185.497,250.949694356
185.512,251.046294433
185.527,251.142372633
185.542,251.237932041
185.557,251.332975754
185.572,251.427506898
185.587,251.521528623
185.602,251.615044077
185.617,251.708056442
185.632,251.800568907
185.647,251.892584664
185.662,251.984106899
185.677,252.075138825
185.692,252.165683632
185.707,252.255744531
185.722,252.345324699
185.737,252.434427347
185.752,252.523055631
185.767,252.61121273
185.782,252.698901794
185.797,252.786125961
185.812,252.872888362
185.827,252.959192094
185.842,253.045040237
185.857,253.130435862
185.872,253.215381998
185.887,253.299881677
185.902,253.383937874
185.917,253.467553553
185.932,253.550731649
185.947,253.633475051
185.96,253.704836614
185.962,253.715786647
185.977,253.797669265
185.992,253.879125705
186.007,253.960158748
186.022,254.040771119
186.037,254.120965528
186.052,254.200744627
186.06,254.243124572
186.067,254.280111039
186.082,254.359067352
186.097,254.437616104
186.112,254.515759811
186.127,254.593500919
186.142,254.670841867
186.157,254.74778503
186.172,254.824332741
186.187,254.900487299
186.202,254.976250953
186.217,255.051625908
186.232,255.12661433
186.247,255.201218334
186.262,255.275439998
186.277,255.349281346
186.292,255.422744366
186.307,255.495831001
186.322,255.568543123
186.337,255.640882605
186.352,255.712851228
186.367,255.784450753
186.382,255.855682887
186.397,255.926549295
186.412,255.997051593
186.427,256.067191353
186.442,256.136970099
186.457,256.206389312
186.472,256.275450426
186.487,256.344154821
186.502,256.412503862
186.517,256.480498825
186.532,256.548140966
186.547,256.615431504
186.562,256.682371592
186.577,256.748962359
186.592,256.815204882
186.607,256.881100186
186.622,256.946649259
186.637,257.011853066
186.652,257.076712488
186.667,257.141228406
186.682,257.205401637
186.697,257.269232951
186.71,257.324277445
186.712,257.33272311
186.727,257.395872788
186.742,257.458682658
186.757,257.521153341
186.772,257.583285411
186.787,257.645079422
186.802,257.706535875
186.817,257.767655235
186.832,257.828437943
186.847,257.888884393
186.862,257.948994931
186.877,258.008769907
186.892,258.0682096
186.907,258.127314264
186.922,258.186084143
186.937,258.244519413
186.952,258.302620242
186.967,258.360386762
186.982,258.417819076
186.997,258.474917244
187.012,258.531681323
187.027,258.588111324
187.042,258.644207227
187.057,258.699968988
187.072,258.755396554
187.087,258.810489817
187.102,258.865248677
187.117,258.919672982
187.132,258.973762571
187.147,259.027517263
187.162,259.080936835
187.177,259.134021068
187.192,259.186769709
187.207,259.239182491
187.222,259.291259116
187.237,259.34299929
187.252,259.39440268
187.267,259.445468948
187.282,259.496197728
187.297,259.546588658
187.312,259.596641348
187.327,259.64635539
187.342,259.69573038
187.357,259.744765886
187.372,259.793461472
187.387,259.841816681
187.402,259.889831061
187.417,259.937504138
187.432,259.984835429
187.447,260.031824461
187.46,260.072271048
187.462,260.078470724
187.477,260.124773734
187.492,260.170732967
187.507,260.216347925
187.522,260.261618079
187.537,260.306542918
187.552,260.351121906
187.567,260.39535452
187.582,260.439240236
187.597,260.482778513
187.612,260.525968819
187.627,260.56881062
187.642,260.611303396
187.657,260.653446604
187.672,260.695239715
187.687,260.736682202
187.702,260.777773535
187.717,260.818513196
187.732,260.858900673
187.747,260.898935438
187.762,260.938616991
187.777,260.977944829
187.792,261.016918447
187.807,261.055537356
187.822,261.093801072
187.837,261.131709115
187.852,261.169261022
187.867,261.206456325
187.882,261.243294577
187.897,261.279775343
187.912,261.31589817
187.927,261.351662641
187.942,261.387068358
187.957,261.422114903
187.972,261.456801892
187.987,261.491128958
188.002,261.525095715
188.017,261.558701827
188.032,261.591946935
188.047,261.624830731
188.062,261.657352888
188.077,261.689513115
188.092,261.721311122
188.107,261.752746638
188.122,261.78381941
188.137,261.814529196
188.152,261.84487576
188.167,261.87485891
188.182,261.904478439
188.197,261.933734171
188.21,261.958794749
188.212,261.962625955
188.227,261.991153638
188.242,262.019317082
188.257,262.047116195
188.272,262.074550876
188.287,262.101621042
188.302,262.128326638
188.317,262.154667625
188.332,262.180643979
188.347,262.206255699
188.362,262.231502792
188.377,262.256385298
188.392,262.280903255
188.407,262.305056737
188.422,262.328845832
188.437,262.352270649
188.452,262.375331302
188.467,262.398027943
188.482,262.42036074
188.497,262.442329869
188.512,262.463935524
188.527,262.485177928
188.542,262.506057327
188.557,262.526573972
188.572,262.546728142
188.587,262.56652014
188.602,262.585950275
188.617,262.605018876
188.632,262.623726307
188.647,262.642072942
188.66,262.657681814
188.662,262.66005917
188.677,262.677685394
188.692,262.694952064
188.707,262.711859614
188.722,262.728408513
