# 10410 EDZE Essen Observations at 12Z 03 Aug 2019
Frequency [GHz],TB
175.31,276.503848443
175.322,276.493184913
175.337,276.479772618
175.352,276.466268274
175.367,276.452671927
175.382,276.438983621
175.397,276.425203404
175.412,276.411331325
175.427,276.397367436
175.442,276.383311788
175.457,276.369164434
175.472,276.35492543
175.487,276.340594834
175.502,276.3261727
175.517,276.31165909
175.532,276.297054065
175.547,276.282357685
175.562,276.267570013
175.577,276.252691115
175.592,276.237721055
175.607,276.2226599
175.622,276.207507718
175.637,276.192264577
175.652,276.176930549
175.667,276.161505703
175.682,276.145990111
175.697,276.130383847
175.712,276.114686984
175.727,276.098899598
175.742,276.083021762
175.757,276.067053555
175.772,276.050995051
175.787,276.034846332
175.802,276.018607472
175.817,276.002278555
175.832,275.985859657
175.847,275.969350859
175.862,275.952752244
175.877,275.93606389
175.892,275.919285881
175.907,275.902418299
175.922,275.885461226
175.937,275.868414744
175.952,275.851278937
175.967,275.834053888
175.982,275.81673968
175.997,275.799336396
176.012,275.781844121
176.027,275.764262936
176.042,275.746592927
176.057,275.728834175
176.072,275.710986763
176.087,275.693050776
176.102,275.675026294
176.117,275.656913402
176.132,275.63871218
176.147,275.62042271
176.162,275.602045071
176.177,275.583579347
176.192,275.565025615
176.207,275.546383953
176.222,275.527654444
176.237,275.508837161
176.252,275.489932181
176.267,275.470939583
176.282,275.451859438
176.297,275.432691822
176.31,275.41600919
176.312,275.413436807
176.327,275.394094465
176.342,275.374664866
176.357,275.355148078
176.372,275.335544169
176.387,275.315853205
176.402,275.296075252
176.417,275.276210372
176.432,275.256258625
176.447,275.236220073
176.46,275.218783157
176.462,275.216094774
176.477,275.195882782
176.492,275.175584154
176.507,275.155198939
176.522,275.134727191
176.537,275.114168955
176.552,275.093524279
176.567,275.072793207
176.582,275.051975777
176.597,275.031072032
176.612,275.010082007
176.627,274.989005734
176.642,274.967843247
176.657,274.946594575
176.672,274.925259741
176.687,274.903838769
176.702,274.88233168
176.717,274.860738491
176.732,274.839059217
176.747,274.817293866
176.762,274.795442447
176.777,274.773504967
176.792,274.751481423
176.807,274.729371815
176.822,274.707176135
176.837,274.684894375
176.852,274.662526523
176.867,274.640072559
176.882,274.617532463
176.897,274.594906212
176.912,274.572193775
176.927,274.549395118
176.942,274.526510209
176.957,274.503539002
176.972,274.480481452
176.987,274.457337512
177.002,274.434107124
177.017,274.410790231
177.032,274.387386768
177.047,274.363896669
177.062,274.340319857
177.077,274.316656256
177.092,274.292905784
177.107,274.269068352
177.122,274.245143866
177.137,274.221132229
177.152,274.197033337
177.167,274.17284708
177.182,274.148573346
177.197,274.124212011
177.21,274.1030279
177.212,274.099762953
177.227,274.07522604
177.242,274.050601133
177.257,274.025888091
177.272,274.001086765
177.287,273.976197001
177.302,273.951218638
177.31,273.93786056
177.317,273.926151508
177.332,273.900995438
177.347,273.875750249
177.362,273.850415756
177.377,273.824991764
177.392,273.799478077
177.407,273.773874488
177.422,273.748180785
177.437,273.722396749
177.452,273.696522154
177.467,273.670556768
177.482,273.64450035
177.497,273.618352655
177.512,273.592113427
177.527,273.565782406
177.542,273.539359322
177.557,273.5128439
177.572,273.486235858
177.587,273.459534904
177.602,273.432740737
177.617,273.405853055
177.632,273.378871541
177.647,273.351795875
177.66,273.328253883
177.662,273.324625725
177.677,273.297360755
177.692,273.27000062
177.707,273.242544964
177.722,273.214993426
177.737,273.187345636
177.752,273.159601215
177.767,273.131759777
177.782,273.103820925
177.797,273.075784254
177.812,273.047649353
177.827,273.019415801
177.842,272.991083167
177.857,272.962651013
177.872,272.93411889
177.887,272.905486342
177.902,272.876752903
177.917,272.847918099
177.932,272.818981445
177.947,272.789942448
177.96,272.764692145
177.962,272.760800604
177.977,272.731555406
177.992,272.702206328
178.007,272.67275284
178.022,272.643194404
178.037,272.61353047
178.052,272.583760476
178.067,272.553883855
178.082,272.523900028
178.097,272.493808405
178.112,272.46360839
178.127,272.433299372
178.142,272.402880732
178.157,272.372351844
178.172,272.341712067
178.187,272.310960753
178.202,272.280097242
178.217,272.249120866
178.232,272.218030942
178.247,272.186826783
178.262,272.155507687
178.277,272.124072943
178.292,272.092521829
178.307,272.060853613
178.322,272.029067553
178.337,271.997162892
178.352,271.965138866
178.367,271.932994702
178.382,271.900729611
178.397,271.868342799
178.41,271.840175142
178.412,271.835833454
178.427,271.803200758
178.442,271.770443881
178.457,271.737561981
178.472,271.704554207
178.487,271.671419692
178.502,271.638157562
178.517,271.604766932
178.532,271.571246902
178.547,271.537596564
178.562,271.503814996
178.577,271.469901267
178.592,271.435854431
178.607,271.401673535
178.622,271.367357611
178.637,271.332905679
178.652,271.29831675
178.667,271.263589821
178.682,271.228723878
178.697,271.193717894
178.712,271.158570834
178.727,271.123281644
178.742,271.087849265
178.757,271.052272624
178.772,271.016550633
178.787,270.980682194
178.802,270.944666199
178.817,270.908501526
178.832,270.872187037
178.847,270.835721589
178.862,270.799104022
178.877,270.762333165
178.892,270.725407832
178.907,270.688326832
178.922,270.651088953
178.937,270.613692975
178.952,270.576137665
178.967,270.538421777
178.982,270.500544054
178.997,270.462503224
179.012,270.424298004
179.027,270.385927099
179.042,270.347389198
179.057,270.308682982
179.072,270.269807117
179.087,270.230760254
179.102,270.191541037
179.117,270.15214809
179.132,270.112580031
179.147,270.072835461
179.16,270.038246301
179.162,270.032912971
179.177,269.992811134
179.192,269.952528517
179.207,269.912063669
179.222,269.871415128
179.237,269.830581419
179.252,269.789561053
179.267,269.748352532
179.282,269.706954337
179.297,269.665364945
179.312,269.623582814
179.327,269.581606392
179.342,269.539434111
179.357,269.497064393
179.372,269.454495645
179.387,269.411726262
179.402,269.368754626
179.417,269.325579103
179.432,269.282198049
179.447,269.238609808
179.462,269.194812708
179.477,269.150805064
179.492,269.106585176
179.507,269.062151338
179.522,269.017501823
179.537,268.972634896
179.552,268.927548805
179.567,268.882241789
179.582,268.836712068
179.597,268.790957855
179.612,268.744977344
179.627,268.698768722
179.642,268.652330158
179.657,268.605659808
179.672,268.558755819
179.687,268.51161632
179.702,268.464239429
179.717,268.41662325
179.732,268.368765875
179.747,268.320665381
179.762,268.272319834
179.777,268.223727285
179.792,268.174885771
179.807,268.125793319
179.822,268.076447941
179.837,268.026847633
179.852,267.976990385
179.867,267.926874163
179.882,267.876496932
179.897,267.825856634
179.91,267.781753989
179.912,267.774951204
179.927,267.723778561
179.942,267.672336611
179.957,267.620623246
179.972,267.568636348
179.987,267.516373782
180.002,267.463833401
180.017,267.411013047
180.032,267.357910547
180.047,267.304523714
180.062,267.25085035
180.077,267.19688824
180.092,267.142635164
180.107,267.088088877
180.122,267.033247131
180.137,266.97810766
180.152,266.922668184
180.167,266.866926416
180.182,266.810880048
180.197,266.754526764
180.212,266.697864232
180.227,266.640890107
180.242,266.583602036
180.257,266.525997644
180.272,266.468074552
180.287,266.40983036
180.302,266.351262659
180.317,266.292369028
180.332,266.233147029
180.347,266.173594213
180.362,266.113708119
180.377,266.05348627
180.392,265.992926178
180.407,265.932025342
180.422,265.870781245
180.437,265.809191363
180.452,265.747253153
180.467,265.684964058
180.482,265.622321514
180.497,265.55932294
180.512,265.495965742
180.527,265.432247314
180.542,265.368165037
180.557,265.303716276
180.56,265.290782314
180.572,265.238898389
180.587,265.173708715
180.602,265.108144585
180.617,265.042203312
180.632,264.9758822
180.647,264.90917854
180.66,264.851057157
180.662,264.842089608
180.677,264.774612669
180.692,264.706744975
180.707,264.638483766
180.722,264.569826269
180.737,264.500769698
180.752,264.431311254
180.767,264.36144813
180.782,264.291177501
180.797,264.220496534
180.812,264.149402384
180.827,264.077892192
180.842,264.00596309
180.857,263.933612196
180.872,263.86083662
180.887,263.787633457
180.902,263.713999795
180.917,263.63993271
180.932,263.565429266
180.947,263.490486521
180.962,263.415101519
180.977,263.339271296
180.992,263.26299288
181.007,263.186263288
181.022,263.109079533
181.037,263.031438615
181.052,262.953337527
181.067,262.87477326
181.082,262.795742793
181.097,262.7162431
181.112,262.636271151
181.127,262.555823912
181.142,262.47489834
181.157,262.393491393
181.172,262.311600026
181.187,262.229221189
181.202,262.146351831
181.217,262.062988905
181.232,261.979129357
181.247,261.894770142
181.262,261.809908213
181.277,261.724540526
181.292,261.638664046
181.307,261.552275739
181.31,261.534936391
181.322,261.465372579
181.337,261.377951551
181.352,261.290009647
181.367,261.201543873
181.382,261.112551243
181.397,261.023028793
181.412,260.932973568
181.427,260.842382637
181.442,260.751253081
181.457,260.659582013
181.472,260.567366564
181.487,260.474603893
181.502,260.381291187
181.517,260.287425666
181.532,260.193004582
181.547,260.098025226
181.562,260.002484928
181.577,259.90638106
181.592,259.809711039
181.607,259.712472336
181.622,259.614662471
181.637,259.516279023
181.652,259.417319631
181.667,259.317782002
181.682,259.217663907
181.697,259.116963199
181.712,259.015677803
181.727,258.913805736
181.742,258.811345102
181.757,258.708294099
181.772,258.604651032
181.787,258.500414316
181.802,258.395582477
181.817,258.290154167
181.832,258.184128172
181.847,258.077503415
181.862,257.970278968
181.877,257.862454062
181.892,257.754028095
181.907,257.645000642
181.922,257.535371469
181.937,257.425140546
181.952,257.314308051
181.967,257.20287439
181.982,257.090840213
181.997,256.978206424
182.012,256.864974198
182.027,256.751145
182.042,256.6367206
182.057,256.521703094
182.06,256.498628629
182.072,256.406094925
182.087,256.289898899
182.102,256.173118214
182.117,256.055756482
182.132,255.937817755
182.147,255.819306545
182.162,255.700227866
182.177,255.58058725
182.192,255.460390795
182.207,255.339645181
182.222,255.218357722
182.237,255.096536393
182.252,254.974189878
182.267,254.851327605
182.282,254.727959799
182.297,254.604097524
182.312,254.479752732
182.327,254.354938319
182.342,254.229668177
182.357,254.103957256
182.372,253.977821618
182.387,253.851278506
182.402,253.724346406
182.417,253.597045122
182.432,253.46939584
182.447,253.341421211
182.462,253.213145424
182.477,253.084594284
182.492,252.955795304
182.507,252.826777781
182.522,252.697572894
182.537,252.568213784
182.552,252.438735655
182.567,252.309175862
182.582,252.179574017
182.597,252.049972074
182.612,251.920414434
182.627,251.790948045
182.642,251.661622493
182.657,251.53249011
182.672,251.40360607
182.687,251.275028476
182.702,251.14681847
182.717,251.01904032
182.732,250.891761507
182.747,250.765052827
182.762,250.638988471
182.777,250.513646116
182.792,250.38910701
182.807,250.265456061
182.822,250.142781928
182.837,250.021177118
182.852,249.90073808
182.867,249.781565333
182.882,249.663763585
182.897,249.547441897
182.912,249.432713865
182.927,249.319697839
182.942,249.208517209
182.957,249.099300722
182.972,248.992182906
182.987,248.887304546
183.002,248.784813277
183.017,248.68486427
183.032,248.587621031
183.047,248.493256288
183.062,248.401952988
183.077,248.313905313
183.092,248.229319708
183.107,248.148415803
183.122,248.071427099
183.137,247.99860127
183.152,247.930199844
183.167,247.866497039
183.182,247.80777748
183.197,247.754332541
183.212,247.706455147
183.227,247.664432942
183.242,247.628539957
183.257,247.599027118
183.367,247.590688165
183.382,247.617848537
183.397,247.651338997
183.412,247.69090367
183.427,247.736265872
183.442,247.787137362
183.457,247.843226324
183.472,247.904243796
183.487,247.969908481
183.502,248.039950054
183.517,248.114111151
183.532,248.192148306
183.547,248.273832111
183.562,248.3589468
183.577,248.447289504
183.592,248.538669299
183.607,248.632906184
183.622,248.729830058
183.637,248.829279768
183.652,248.931102236
183.667,249.035151696
183.682,249.141289031
183.697,249.249381217
183.712,249.359300861
183.727,249.470925807
183.742,249.584138829
183.757,249.698827368
183.772,249.814883324
183.787,249.932202876
183.802,250.050686342
183.817,250.170238048
183.832,250.290766223
183.847,250.412182901
183.862,250.534403823
183.877,250.657348355
183.892,250.780939404
183.907,250.905103326
183.922,251.029769845
183.937,251.154871964
183.952,251.280345879
183.967,251.406130881
183.982,251.532169268
183.997,251.65840625
184.012,251.784789855
184.027,251.911270824
184.042,252.037802525
184.057,252.164340844
184.072,252.290844095
184.087,252.417272922
184.102,252.543590197
184.117,252.66976093
184.132,252.795752179
184.147,252.921532948
184.162,253.047074107
184.177,253.1723483
184.192,253.297329862
184.207,253.421994733
184.222,253.546320383
184.237,253.670285733
184.252,253.793871081
184.267,253.917058031
184.282,254.039829421
184.297,254.162169265
184.312,254.284062681
184.327,254.405495842
184.342,254.526455904
184.357,254.646930969
184.372,254.766910016
184.387,254.886382866
184.402,255.005340125
184.417,255.123773145
184.432,255.241673979
184.447,255.359035343
184.462,255.475850576
184.477,255.592113608
184.492,255.707818922
184.507,255.822961525
184.522,255.937536914
184.537,256.051541051
184.552,256.164970338
184.56,256.225229791
184.567,256.277821585
184.582,256.390091993
184.597,256.501779126
184.612,256.612880892
184.627,256.723395524
184.642,256.83332156
184.657,256.942657829
184.672,257.051403423
184.687,257.159557693
184.702,257.267120232
184.717,257.374090854
184.732,257.480469591
184.747,257.586256669
184.762,257.691452512
184.777,257.796057709
184.792,257.900073029
184.807,258.003499387
184.822,258.106337853
184.837,258.208589634
184.852,258.310256066
184.867,258.411338612
184.882,258.511838846
184.897,258.611758454
184.912,258.711099223
184.927,258.809863036
184.942,258.908051866
184.957,259.005667771
184.972,259.102712886
184.987,259.199189421
185.002,259.295099658
185.017,259.390445938
185.032,259.485230669
185.047,259.579456313
185.062,259.673125381
185.077,259.76624044
185.092,259.858804097
185.107,259.950819003
185.122,260.042287852
185.137,260.133213367
185.152,260.223598311
185.167,260.313445477
185.182,260.402757681
185.197,260.491537772
185.212,260.579788619
185.227,260.667513113
185.242,260.754714164
185.257,260.8413947
185.272,260.927557666
185.287,261.013206018
185.302,261.098342728
185.31,261.143540796
185.317,261.182970775
185.332,261.26709315
185.347,261.35071285
185.362,261.43383288
185.377,261.516456246
185.392,261.598585965
185.407,261.68022505
185.422,261.761376519
185.437,261.842043391
185.452,261.922228682
185.467,262.001935408
185.482,262.081166586
185.497,262.159925224
185.512,262.23821433
185.527,262.316036908
185.542,262.393395953
185.557,262.47029446
185.572,262.546735411
185.587,262.622721786
185.602,262.698256555
185.617,262.773342679
185.632,262.847983114
185.647,262.922180802
185.662,262.995938681
185.677,263.069259672
185.692,263.142146694
185.707,263.214602649
185.722,263.28663043
185.737,263.35823292
185.752,263.42941299
185.767,263.500173497
185.782,263.570517289
185.797,263.640447202
185.812,263.709966053
185.827,263.779076656
185.842,263.847781806
185.857,263.916084286
185.872,263.983986868
185.887,264.051492306
185.902,264.118603348
185.917,264.185322722
185.932,264.251653143
185.947,264.317597317
185.96,264.374438583
185.962,264.383157933
185.977,264.448337665
185.992,264.513139175
186.007,264.577565112
186.022,264.641618109
186.037,264.705300785
186.052,264.768615745
186.06,264.802234266
186.067,264.831565583
186.082,264.894152876
186.097,264.956380185
186.112,265.018250062
186.127,265.079765041
186.142,265.140927642
186.157,265.201740373
186.172,265.262205727
186.187,265.322326183
186.202,265.382104204
186.217,265.441542242
186.232,265.500642732
186.247,265.559408097
186.262,265.617840746
186.277,265.675943073
186.292,265.733717458
186.307,265.791166266
186.322,265.848291853
186.337,265.905096554
186.352,265.961582695
186.367,266.017752588
186.382,266.073608528
186.397,266.1291528
186.412,266.184387672
186.427,266.2393154
186.442,266.293938227
186.457,266.34825838
186.472,266.402278077
186.487,266.455999515
186.502,266.509424883
186.517,266.562556357
186.532,266.615396097
186.547,266.66794625
186.562,266.720208948
186.577,266.772186315
186.592,266.823880454
186.607,266.875293463
186.622,266.92642742
186.637,266.977284394
186.652,267.027866437
186.667,267.078175591
186.682,267.128213884
186.697,267.177983331
186.71,267.22090093
186.712,267.227485931
186.727,267.276723677
186.742,267.325698541
186.757,267.374412487
186.772,267.422867465
186.787,267.471065411
186.802,267.519008248
186.817,267.56669789
186.832,267.614136232
186.847,267.661325161
186.862,267.708266549
186.877,267.754962257
186.892,267.801414131
186.907,267.847624007
186.922,267.893593705
186.937,267.939325036
186.952,267.984819797
186.967,268.030079772
186.982,268.075106732
186.997,268.119902438
187.012,268.164468634
187.027,268.208807058
187.042,268.25291943
187.057,268.29680746
187.072,268.340472847
187.087,268.383917273
187.102,268.427142416
187.117,268.470149931
187.132,268.51294147
187.147,268.55551867
187.162,268.597883155
187.177,268.640036535
187.192,268.681980413
187.207,268.723716377
187.222,268.765246001
187.237,268.80657085
187.252,268.847692479
187.267,268.888612426
187.282,268.929332222
187.297,268.969853382
187.312,269.01017741
187.327,269.050305802
187.342,269.09024004
187.357,269.129981594
187.372,269.169531921
187.387,269.208892468
187.402,269.248064671
187.417,269.287049955
187.432,269.32584973
187.447,269.364465399
187.46,269.397784466
187.462,269.402898352
187.477,269.441149966
187.492,269.47922161
187.507,269.517114636
187.522,269.554830392
187.537,269.592370211
187.552,269.629735414
187.567,269.666927312
187.582,269.703947206
187.597,269.740796385
187.612,269.777476127
187.627,269.813987699
187.642,269.850332356
187.657,269.886511346
187.672,269.922525903
187.687,269.958377248
187.702,269.994066599
187.717,270.029595155
187.732,270.064964109
187.747,270.100174643
187.762,270.135227927
187.777,270.170125122
187.792,270.204867378
187.807,270.239455832
187.822,270.273891618
187.837,270.308175851
187.852,270.342309641
187.867,270.376294088
187.882,270.410130277
187.897,270.443819289
187.912,270.477362191
187.927,270.510760043
187.942,270.54401389
187.957,270.577124774
187.972,270.610093722
187.987,270.642921751
188.002,270.675609873
188.017,270.708159085
188.032,270.740570379
188.047,270.772844732
188.062,270.804983117
188.077,270.836986494
188.092,270.868855814
188.107,270.900592021
188.122,270.932196046
188.137,270.963668813
188.152,270.995011239
188.167,271.026224224
188.182,271.057308668
188.197,271.088265458
188.21,271.114992094
188.212,271.119095468
188.227,271.149799571
188.242,271.180378626
188.257,271.210833484
188.272,271.241164986
188.287,271.271373967
188.302,271.301461252
188.317,271.331427658
188.332,271.361273991
188.347,271.39100105
188.362,271.420609626
188.377,271.450100503
188.392,271.479474451
188.407,271.508732239
188.422,271.537874623
188.437,271.566902351
188.452,271.595816166
188.467,271.624616799
188.482,271.653304975
188.497,271.681881409
188.512,271.710346813
188.527,271.738701886
188.542,271.766947322
188.557,271.795083803
188.572,271.82311201
188.587,271.851032613
188.602,271.878846271
188.617,271.906553641
188.632,271.93415537
188.647,271.961652096
188.66,271.985398146
188.662,271.989044452
188.677,272.016333064
188.692,272.043518549
188.707,272.070601519
188.722,272.097582573
188.737,272.124462311
