# 48698 WSSS Singapore Observations at 12Z 21 Aug 2019
Frequency [GHz],TB
175.31,278.266009348
175.322,278.246114823
175.337,278.221191585
175.352,278.196206979
175.367,278.171160824
175.382,278.146052928
175.397,278.120883104
175.412,278.095651167
175.427,278.070356925
175.442,278.045000189
175.457,278.019580766
175.472,277.994098457
175.487,277.968553067
175.502,277.942944396
175.517,277.917272253
175.532,277.891536431
175.547,277.865736729
175.562,277.83987294
175.577,277.813944866
175.592,277.787952291
175.607,277.761895014
175.622,277.735772815
175.637,277.709585491
175.652,277.683332823
175.667,277.657014602
175.682,277.630630602
175.697,277.60418061
175.712,277.577664402
175.727,277.551081753
175.742,277.524432449
175.757,277.497716259
175.772,277.47093295
175.787,277.4440823
175.802,277.417164073
175.817,277.390178041
175.832,277.363123967
175.847,277.336001609
175.862,277.308810733
175.877,277.281551098
175.892,277.254222464
175.907,277.226824583
175.922,277.19935721
175.937,277.171820097
175.952,277.144212998
175.967,277.116535654
175.982,277.088787817
175.997,277.060969223
176.012,277.033079623
176.027,277.005118754
176.042,276.977086351
176.057,276.948982152
176.072,276.920805891
176.087,276.8925573
176.102,276.864236106
176.117,276.835842041
176.132,276.807374828
176.147,276.778834192
176.162,276.750219848
176.177,276.721531524
176.192,276.692768929
176.207,276.663931783
176.222,276.635019794
176.237,276.606032673
176.252,276.576970129
176.267,276.547831867
176.282,276.518617593
176.297,276.489326997
176.31,276.463879859
176.312,276.459959792
176.327,276.43051567
176.342,276.400994321
176.357,276.371395436
176.372,276.341718707
176.387,276.311963822
176.402,276.282130462
176.417,276.252218308
176.432,276.222227046
176.447,276.192156347
176.46,276.16603057
176.462,276.162005886
176.477,276.131775335
176.492,276.101464365
176.507,276.071072644
176.522,276.040599833
176.537,276.010045594
176.552,275.979409587
176.567,275.948691465
176.582,275.917890891
176.597,275.887007505
176.612,275.856040965
176.627,275.82499091
176.642,275.793856986
176.657,275.762638834
176.672,275.731336091
176.687,275.699948388
176.702,275.668475363
176.717,275.636916643
176.732,275.605271853
176.747,275.573540621
176.762,275.54172256
176.777,275.509817293
176.792,275.477824437
176.807,275.445743601
176.822,275.413574395
176.837,275.381316425
176.852,275.348969294
176.867,275.316532603
176.882,275.284005947
176.897,275.251388922
176.912,275.218681121
176.927,275.185882131
176.942,275.152991531
176.957,275.120008916
176.972,275.086933852
176.987,275.05376592
177.002,275.020504694
177.017,274.987149741
177.032,274.953700629
177.047,274.920156922
177.062,274.886518172
177.077,274.852783945
177.092,274.81895379
177.107,274.785027258
177.122,274.751003892
177.137,274.716883244
177.152,274.68266484
177.167,274.648348229
177.182,274.613932939
177.197,274.579418504
177.21,274.549425425
177.212,274.544804444
177.227,274.510090288
177.242,274.47527555
177.257,274.440359751
177.272,274.405342399
177.287,274.370223006
177.302,274.335001079
177.31,274.316173952
177.317,274.299676113
177.332,274.264247615
177.347,274.228715073
177.362,274.193077984
177.377,274.157335832
177.392,274.121488098
177.407,274.08553427
177.422,274.049473818
177.437,274.01330622
177.452,273.97703094
177.467,273.940647448
177.482,273.904155204
177.497,273.867553664
177.512,273.830842284
177.527,273.794020516
177.542,273.757087803
177.557,273.720043591
177.572,273.682887316
177.587,273.645618418
177.602,273.608236327
177.617,273.570740465
177.632,273.533130257
177.647,273.495405129
177.66,273.462616602
177.662,273.457564491
177.677,273.419607752
177.692,273.381534328
177.707,273.343343617
177.722,273.305035019
177.737,273.266607931
177.752,273.228061746
177.767,273.189395847
177.782,273.150609624
177.797,273.111702452
177.812,273.072673709
177.827,273.033522765
177.842,272.994248988
177.857,272.954851741
177.872,272.915330384
177.887,272.875684269
177.902,272.835912751
177.917,272.79601518
177.932,272.75599089
177.947,272.715839224
177.96,272.680937565
177.962,272.675559515
177.977,272.635151096
177.992,272.594613292
178.007,272.553945424
178.022,272.513146811
178.037,272.472216763
178.052,272.431154592
178.067,272.389959602
178.082,272.348631098
178.097,272.30716837
178.112,272.265570717
178.127,272.223837424
178.142,272.181967772
178.157,272.139961049
178.172,272.097816523
178.187,272.055533465
178.202,272.01311115
178.217,271.970548836
178.232,271.927845779
178.247,271.885001238
178.262,271.842014464
178.277,271.798884697
178.292,271.755611183
178.307,271.71219316
178.322,271.668629861
178.337,271.624920517
178.352,271.581064348
178.367,271.537060577
178.382,271.492908426
178.397,271.448607101
178.41,271.410091344
178.412,271.404155811
178.427,271.359553763
178.442,271.314800161
178.457,271.269894188
178.472,271.22483505
178.487,271.179621925
178.502,271.134254003
178.517,271.088730459
178.532,271.043050473
178.547,270.997213217
178.562,270.951217849
178.577,270.905063545
178.592,270.858749457
178.607,270.812274743
178.622,270.765638556
178.637,270.718840039
178.652,270.671878341
178.667,270.624752598
178.682,270.57746195
178.697,270.530005525
178.712,270.482382454
178.727,270.434591862
178.742,270.386632871
178.757,270.338504592
178.772,270.290206146
178.787,270.241736639
178.802,270.193095177
178.817,270.144280864
178.832,270.095292798
178.847,270.046130076
178.862,269.996791787
178.877,269.947277023
178.892,269.897584864
178.907,269.847714396
178.922,269.797664698
178.937,269.747434839
178.952,269.697023895
178.967,269.646430935
178.982,269.59565502
178.997,269.544695219
179.012,269.493550582
179.027,269.442220169
179.042,269.390703032
179.057,269.338998223
179.072,269.287104782
179.087,269.235021759
179.102,269.182748192
179.117,269.130283121
179.132,269.077625575
179.147,269.024774591
179.16,268.978813187
179.162,268.971729201
179.177,268.918488427
179.192,268.865051293
179.207,268.81141682
179.222,268.757584031
179.237,268.70355194
179.252,268.649319562
179.267,268.594885906
179.282,268.540249984
179.297,268.485410799
179.312,268.430367361
179.327,268.375118667
179.342,268.319663719
179.357,268.264001514
179.372,268.208131049
179.387,268.152051316
179.402,268.095761306
179.417,268.03926001
179.432,267.982546418
179.447,267.925619505
179.462,267.868478266
179.477,267.811121676
179.492,267.753548719
179.507,267.695758368
179.522,267.637749602
179.537,267.579521394
179.552,267.521072715
179.567,267.462402537
179.582,267.403509833
179.597,267.344393564
179.612,267.285052693
179.627,267.225486189
179.642,267.165693016
179.657,267.105672128
179.672,267.045422486
179.687,266.984943049
179.702,266.924232769
179.717,266.863290596
179.732,266.802115487
179.747,266.74070639
179.762,266.679062253
179.777,266.617182019
179.792,266.555064636
179.807,266.49270904
179.822,266.430114178
179.837,266.367278984
179.852,266.304202393
179.867,266.240883342
179.882,266.177320758
179.897,266.113513572
179.91,266.058015327
179.912,266.04946071
179.927,265.985161095
179.942,265.920613651
179.957,265.855817293
179.972,265.790770936
179.987,265.725473499
180.002,265.65992388
180.017,265.594120994
180.032,265.52806374
180.047,265.461751016
180.062,265.395181716
180.077,265.328354735
180.092,265.261268956
180.107,265.193923257
180.122,265.126316521
180.137,265.058447616
180.152,264.990315414
180.167,264.92191877
180.182,264.853256546
180.197,264.784327584
180.212,264.715130729
180.227,264.645664821
180.242,264.575928684
180.257,264.505921139
180.272,264.435641007
180.287,264.365087082
180.302,264.294258169
180.317,264.223153052
180.332,264.151770508
180.347,264.080109309
180.362,264.008168203
180.377,263.935945946
180.392,263.863441262
180.407,263.790652883
180.422,263.717579507
180.437,263.64421984
180.452,263.570572559
180.467,263.496636331
180.482,263.422409808
180.497,263.347891623
180.512,263.273080397
180.527,263.19797473
180.542,263.122573207
180.557,263.046874386
180.56,263.031698819
180.572,262.970876819
180.587,262.894579018
180.602,262.817979492
180.617,262.741076717
180.632,262.663869146
180.647,262.586355207
180.66,262.51892741
180.662,262.508533303
180.677,262.430401816
180.692,262.351959093
180.707,262.273203455
180.722,262.194133188
180.737,262.114746556
180.752,262.035041783
180.767,261.95501706
180.782,261.874670547
180.797,261.794000361
180.812,261.713004588
180.827,261.631681275
180.842,261.550028417
180.857,261.468043979
180.872,261.385725881
180.887,261.303071992
180.902,261.220080135
180.917,261.136748089
180.932,261.053073581
180.947,260.969054279
180.962,260.884687812
180.977,260.79997174
180.992,260.71490357
181.007,260.629480752
181.022,260.54370067
181.037,260.45756065
181.052,260.371057947
181.067,260.284189752
181.082,260.196953189
181.097,260.109345299
181.112,260.021363063
181.127,259.93300338
181.142,259.844263067
181.157,259.755138865
181.172,259.665627427
181.187,259.575725322
181.202,259.485429033
181.217,259.394734948
181.232,259.303639367
181.247,259.212138484
181.262,259.120228404
181.277,259.027905124
181.292,258.935164541
181.307,258.842002439
181.31,258.823319059
181.322,258.748414499
181.337,258.65439628
181.352,258.559943232
181.367,258.465050683
181.382,258.369713834
181.397,258.273927774
181.412,258.177687447
181.427,258.080987672
181.442,257.983823135
181.457,257.886188384
181.472,257.78807782
181.487,257.689485703
181.502,257.59040614
181.517,257.490833093
181.532,257.390760362
181.547,257.29018159
181.562,257.189090258
181.577,257.087479679
181.592,256.985343
181.607,256.88267319
181.622,256.779463045
181.637,256.675705174
181.652,256.57139201
181.667,256.466515797
181.682,256.361068577
181.697,256.255042212
181.712,256.148428351
181.727,256.041218454
181.742,255.933403763
181.757,255.82497532
181.772,255.715923951
181.787,255.606240261
181.802,255.495914651
181.817,255.384937282
181.832,255.273298101
181.847,255.160986823
181.862,255.047992932
181.877,254.934305685
181.892,254.819914095
181.907,254.704806945
181.922,254.588972775
181.937,254.47239989
181.952,254.35507635
181.967,254.236989975
181.982,254.118128342
181.997,253.998478791
182.012,253.87802842
182.027,253.756764091
182.042,253.634672422
182.057,253.511739811
182.06,253.487051163
182.072,253.387952419
182.087,253.263296189
182.102,253.137756839
182.117,253.011319888
182.132,252.883970643
182.147,252.755694224
182.162,252.626475576
182.177,252.496299465
182.192,252.365150517
182.207,252.233013216
182.222,252.09987193
182.237,251.965710936
182.252,251.830514438
182.267,251.69426659
182.282,251.556951546
182.297,251.418553467
182.312,251.279056574
182.327,251.138445183
182.342,250.996703743
182.357,250.853816906
182.372,250.70976955
182.387,250.564546866
182.402,250.418134394
182.417,250.27051812
182.432,250.121684525
182.447,249.971620686
182.462,249.820314356
182.477,249.667754045
182.492,249.513929148
182.507,249.358830029
182.522,249.202448144
182.537,249.044776163
182.552,248.885808105
182.567,248.725539462
182.582,248.56396734
182.597,248.40109062
182.612,248.236910088
182.627,248.071428599
182.642,247.904651224
182.657,247.736585403
182.672,247.56724108
182.687,247.396630845
182.702,247.224770035
182.717,247.051676846
182.732,246.877372365
182.747,246.701880601
182.762,246.525228432
182.777,246.347445483
182.792,246.168563899
182.807,245.988617993
182.822,245.807643736
182.837,245.625678034
182.852,245.442757729
182.867,245.258918287
182.882,245.074192035
182.897,244.888605881
182.912,244.702178277
182.927,244.514915363
182.942,244.326805882
182.957,244.137814622
182.972,243.947873871
182.987,243.756872262
183.002,243.564640129
183.017,243.37093022
183.032,243.175392001
183.047,242.977537179
183.062,242.77669302
183.077,242.571938275
183.092,242.362014157
183.107,242.145198928
183.122,241.919128298
183.137,241.680534066
183.152,241.424856967
183.167,241.145663396
183.182,240.833752971
183.197,240.47577986
183.212,240.052134087
183.227,239.533832886
183.242,238.878751714
183.257,238.031005393
183.367,238.251831578
183.382,239.040984636
183.397,239.652625981
183.412,240.139676715
183.427,240.540589918
183.442,240.881611704
183.457,241.180505642
183.472,241.449396783
183.487,241.696674433
183.502,241.928225868
183.517,242.148236198
183.532,242.359713053
183.547,242.564836298
183.562,242.765195226
183.577,242.961952217
183.592,243.155957551
183.607,243.347831153
183.622,243.538021662
183.637,243.726849638
183.652,243.914539501
183.667,244.101243429
183.682,244.287059343
183.697,244.472044568
183.712,244.656226264
183.727,244.83960942
183.742,245.022183017
183.757,245.20392476
183.772,245.384804748
183.787,245.564788259
183.802,245.743837936
183.817,245.921915406
183.832,246.098982515
183.847,246.275002264
183.862,246.449939468
183.877,246.623761223
183.892,246.796437243
183.907,246.967940045
183.922,247.138245059
183.937,247.307330655
183.952,247.475178128
183.967,247.641771631
183.982,247.807098066
183.997,247.971146983
184.012,248.133910433
184.027,248.295382834
184.042,248.455560814
184.057,248.614443059
184.072,248.772030164
184.087,248.928324489
184.102,249.083330005
184.117,249.237052161
184.132,249.389497745
184.147,249.540674763
184.162,249.690592309
184.177,249.839260471
184.192,249.986690195
184.207,250.132893213
184.222,250.277881926
184.237,250.421669346
184.252,250.564268986
184.267,250.705694808
184.282,250.845961142
184.297,250.985082632
184.312,251.123074168
184.327,251.259950848
184.342,251.395727913
184.357,251.53042072
184.372,251.664044681
184.387,251.796615258
184.402,251.928147892
184.417,252.058658003
184.432,252.188160956
184.447,252.316672026
184.462,252.44420639
184.477,252.570779098
184.492,252.696405072
184.507,252.821099065
184.522,252.944875672
184.537,253.067749312
184.552,253.189734199
184.56,253.254434261
184.567,253.310844368
184.582,253.431093643
184.597,253.550495631
184.612,253.669063727
184.627,253.786811108
184.642,253.90375072
184.657,254.01989529
184.672,254.135257311
184.687,254.249849048
184.702,254.363682541
184.717,254.476769588
184.732,254.589121766
184.747,254.700750418
184.762,254.811666661
184.777,254.921881384
184.792,255.031405249
184.807,255.140248702
184.822,255.248421958
184.837,255.355935017
184.852,255.462797664
184.867,255.569019472
184.882,255.674609799
184.897,255.779577802
184.912,255.883932429
184.927,255.987682425
184.942,256.090836344
184.957,256.193402542
184.972,256.295389182
184.987,256.396804237
185.002,256.497655504
185.017,256.597950593
185.032,256.697696934
185.047,256.796901795
185.062,256.895572256
185.077,256.993715245
185.092,257.091337512
185.107,257.188445666
185.122,257.285046136
185.137,257.381145217
185.152,257.476749039
185.167,257.571863595
185.182,257.666494731
185.197,257.76064815
185.212,257.854329422
185.227,257.947543974
185.242,258.040297117
185.257,258.132594018
185.272,258.224439729
185.287,258.31583918
185.302,258.406797176
185.31,258.455129227
185.317,258.497318407
185.332,258.587407453
185.347,258.677068786
185.362,258.766306763
185.377,258.855125636
185.392,258.943529566
185.407,259.031522598
185.422,259.119108696
185.437,259.206291716
185.452,259.293075428
185.467,259.379463517
185.482,259.46545957
185.497,259.551067095
185.512,259.636289521
185.527,259.721130192
185.542,259.805592374
185.557,259.889679258
185.572,259.973393964
185.587,260.056739531
185.602,260.139718946
185.617,260.222335107
185.632,260.304590864
185.647,260.38648899
185.662,260.46803221
185.677,260.549223174
185.692,260.630064486
185.707,260.710558687
185.722,260.790708268
185.737,260.87051566
185.752,260.949983246
185.767,261.029113363
185.782,261.107908295
185.797,261.186370282
185.812,261.264501514
185.827,261.342304142
185.842,261.419780276
185.857,261.496931977
185.872,261.573761278
185.887,261.650270162
185.902,261.726460581
185.917,261.80233445
185.932,261.87789365
185.947,261.95314003
185.96,262.018101919
185.962,262.028075397
185.977,262.10270154
185.992,262.177020214
186.007,262.251033137
186.022,262.324742006
186.037,262.398148495
186.052,262.47125424
186.06,262.510121554
186.067,262.544060856
186.082,262.616569941
186.097,262.688783062
186.112,262.760701765
186.127,262.832327574
186.142,262.903661994
186.157,262.974706506
186.172,263.045462575
186.187,263.115931647
186.202,263.186115145
186.217,263.256014481
186.232,263.325631044
186.247,263.394966217
186.262,263.464021351
186.277,263.5327978
186.292,263.60129689
186.307,263.669519942
186.322,263.737468258
186.337,263.805143128
186.352,263.872545834
186.367,263.939677642
186.382,264.006539804
186.397,264.073133568
186.412,264.139460169
186.427,264.205520826
186.442,264.271316759
186.457,264.336849168
186.472,264.402119252
186.487,264.467128196
186.502,264.53187718
186.517,264.596367375
186.532,264.660599943
186.547,264.724576039
186.562,264.788296809
186.577,264.851763402
186.592,264.914976944
186.607,264.977938566
186.622,265.040649393
186.637,265.10311054
186.652,265.165323118
186.667,265.22728823
186.682,265.289006975
186.697,265.350480451
186.71,265.403559906
186.712,265.411709743
186.727,265.472695937
186.742,265.533440117
186.757,265.593943352
186.772,265.654206715
186.787,265.71423128
186.802,265.774018098
186.817,265.833568232
186.832,265.89288274
186.847,265.951962666
186.862,266.010809066
186.877,266.069422974
186.892,266.127805437
186.907,266.185957487
186.922,266.243880162
186.937,266.301574485
186.952,266.359041487
186.967,266.416282191
186.982,266.473297616
186.997,266.530088778
187.012,266.586656693
187.027,266.643002371
187.042,266.699126821
187.057,266.755031047
187.072,266.81071605
187.087,266.866182832
187.102,266.921432387
187.117,266.976465709
187.132,267.03128379
187.147,267.085887617
187.162,267.140278174
187.177,267.194456444
187.192,267.248423407
187.207,267.302180042
187.222,267.35572732
187.237,267.409066214
187.252,267.462197686
187.267,267.515122711
187.282,267.567842249
187.297,267.620357258
187.312,267.672668694
187.327,267.724777519
187.342,267.776684676
187.357,267.82839112
187.372,267.879897793
187.387,267.931205639
187.402,267.982315603
187.417,268.033228616
187.432,268.083945616
187.447,268.134467537
187.46,268.178096117
187.462,268.184795301
187.477,268.234929841
187.492,268.284872076
187.507,268.334622926
187.522,268.384183311
187.537,268.433554143
187.552,268.482736333
187.567,268.531730788
187.582,268.580538414
187.597,268.629160112
187.612,268.677596778
187.627,268.725849315
187.642,268.773918607
187.657,268.821805548
187.672,268.869511023
187.687,268.917035916
187.702,268.964381104
187.717,269.011547463
187.732,269.058535867
187.747,269.105347188
187.762,269.15198229
187.777,269.198442038
187.792,269.244727287
187.807,269.290838897
187.822,269.336777723
187.837,269.382544609
187.852,269.428140407
187.867,269.473565954
187.882,269.518822093
187.897,269.563909658
187.912,269.608829485
187.927,269.6535824
187.942,269.698169226
187.957,269.742590788
187.972,269.786847903
187.987,269.830941387
188.002,269.874872048
188.017,269.918640695
188.032,269.962248134
188.047,270.005695166
188.062,270.048982579
188.077,270.092111175
188.092,270.135081743
188.107,270.177895065
188.122,270.220551924
188.137,270.263053099
188.152,270.305399363
188.167,270.347591489
188.182,270.389630246
188.197,270.431516391
188.21,270.467694865
188.212,270.473250693
188.227,270.514833903
188.242,270.55626677
188.257,270.597550052
188.272,270.638684483
188.287,270.679670815
188.302,270.720509779
188.317,270.761202111
188.332,270.80174854
188.347,270.842149794
188.362,270.882406593
188.377,270.922519658
188.392,270.9624897
188.407,271.002317438
188.422,271.042003576
188.437,271.081548814
188.452,271.120953857
188.467,271.160219401
188.482,271.199346133
188.497,271.23833475
188.512,271.277185932
188.527,271.31590036
188.542,271.354478716
188.557,271.392921668
188.572,271.431229891
188.587,271.469404052
188.602,271.50744481
188.617,271.545352826
188.632,271.583128755
188.647,271.620773249
188.66,271.653292661
188.662,271.658286954
188.677,271.695670518
188.692,271.732924581
188.707,271.770049778
188.722,271.807046743
188.737,271.843916107
