# 01004 ENAS Ny-Alesund Ii Observations at 12Z 16 Jan 2019
Frequency [GHz],TB
175.31,205.111378608
175.322,205.177131111
175.337,205.259548301
175.352,205.342217772
175.367,205.425140107
175.382,205.508315885
175.397,205.591745682
175.412,205.67543007
175.427,205.759369618
175.442,205.843564891
175.457,205.92801645
175.472,206.012724851
175.487,206.097690648
175.502,206.182914389
175.517,206.268396618
175.532,206.354137876
175.547,206.440138698
175.562,206.526399615
175.577,206.612921154
175.592,206.699703833
175.607,206.786748174
175.622,206.874054683
175.637,206.96162387
175.652,207.049456234
175.667,207.137552271
175.682,207.225912471
175.697,207.314537319
175.712,207.403427292
175.727,207.492582864
175.742,207.582004501
175.757,207.671692665
175.772,207.761647807
175.787,207.851870378
175.802,207.942360817
175.817,208.03311956
175.832,208.124147034
175.847,208.21544366
175.862,208.307009851
175.877,208.398846015
175.892,208.490952548
175.907,208.583329844
175.922,208.675978287
175.937,208.76889825
175.952,208.862090103
175.967,208.955554205
175.982,209.049290907
175.997,209.143300553
176.012,209.237583477
176.027,209.332140003
176.042,209.426970449
176.057,209.522075121
176.072,209.617454318
176.087,209.713108327
176.102,209.809037428
176.117,209.905241891
176.132,210.001721972
176.147,210.098477923
176.162,210.195509979
176.177,210.292818371
176.192,210.390403314
176.207,210.488265015
176.222,210.586403668
176.237,210.684819457
176.252,210.783512555
176.267,210.882483121
176.282,210.981731303
176.297,211.081257239
176.31,211.167737817
176.312,211.181061051
176.327,211.281142851
176.342,211.381502739
176.357,211.482140798
176.372,211.583057101
176.387,211.684251708
176.402,211.785724663
176.417,211.887475999
176.432,211.98950573
176.447,212.091813862
176.46,212.180706096
176.462,212.194400382
176.477,212.297265264
176.492,212.400408466
176.507,212.503829931
176.522,212.607529587
176.537,212.711507345
176.552,212.815763102
176.567,212.920296737
176.582,213.025108113
176.597,213.130197076
176.612,213.235563455
176.627,213.341207063
176.642,213.447127692
176.657,213.553325121
176.672,213.659799106
176.687,213.766549388
176.702,213.873575687
176.717,213.980877706
176.732,214.088455129
176.747,214.196307618
176.762,214.304434816
176.777,214.412836348
176.792,214.521511816
176.807,214.630460802
176.822,214.739682869
176.837,214.849177556
176.852,214.958944381
176.867,215.06898284
176.882,215.179292409
176.897,215.289872537
176.912,215.400722655
176.927,215.511842168
176.942,215.623230457
176.957,215.734886882
176.972,215.846810775
176.987,215.959001447
177.002,216.071458181
177.017,216.184180237
177.032,216.297166849
177.047,216.410417225
177.062,216.523930547
177.077,216.637705968
177.092,216.751742619
177.107,216.866039599
177.122,216.980595981
177.137,217.095410811
177.152,217.210483105
177.167,217.325811851
177.182,217.441396009
177.197,217.557234505
177.21,217.657832753
177.212,217.673326243
177.227,217.789670088
177.242,217.90626488
177.257,218.023109427
177.272,218.140202503
177.287,218.257542854
177.302,218.375129191
177.31,218.43794203
177.317,218.492960193
177.332,218.611034506
177.347,218.729350744
177.362,218.847907484
177.377,218.966703272
177.392,219.085736617
177.407,219.205005995
177.422,219.324509844
177.437,219.444246569
177.452,219.564214536
177.467,219.684412077
177.482,219.804837483
177.497,219.925489011
177.512,220.046364878
177.527,220.167463264
177.542,220.288782308
177.557,220.410320111
177.572,220.532074736
177.587,220.654044202
177.602,220.77622649
177.617,220.898619538
177.632,221.021221246
177.647,221.144029468
177.66,221.250628618
177.662,221.267042017
177.677,221.390256664
177.692,221.513671136
177.707,221.637283115
177.722,221.761090242
177.737,221.88509011
177.752,222.009280269
177.767,222.133658221
177.782,222.258221425
177.797,222.382967292
177.812,222.507893186
177.827,222.632996424
177.842,222.758274273
177.857,222.883723955
177.872,223.009342642
177.887,223.135127456
177.902,223.261075469
177.917,223.387183706
177.932,223.513449136
177.947,223.639868682
177.96,223.749554532
177.962,223.766439213
177.977,223.893157546
177.992,224.020020447
178.007,224.147024629
178.022,224.274166749
178.037,224.401443414
178.052,224.528851175
178.067,224.656386528
178.082,224.784045914
178.097,224.91182572
178.112,225.039722275
178.127,225.167731854
178.142,225.295850674
178.157,225.424074894
178.172,225.552400616
178.187,225.680823884
178.202,225.809340685
178.217,225.937946944
178.232,226.066638531
178.247,226.195411253
178.262,226.324260857
178.277,226.453183033
178.292,226.582173406
178.307,226.711227541
178.322,226.840340944
178.337,226.969509058
178.352,227.098727261
178.367,227.227990872
178.382,227.357295145
178.397,227.486635272
178.41,227.598755287
178.412,227.616006381
178.427,227.745403536
178.442,227.874821737
178.457,228.004255919
178.472,228.133700953
178.487,228.263151645
178.502,228.392602736
178.517,228.522048899
178.532,228.651484747
178.547,228.78090482
178.562,228.910303596
178.577,229.039675486
178.592,229.169014834
178.607,229.298315918
178.622,229.427572947
178.637,229.556780065
178.652,229.685931349
178.667,229.815020807
178.682,229.94404238
178.697,230.072989942
178.712,230.2018573
178.727,230.330638191
178.742,230.459326287
178.757,230.587915191
178.772,230.716398439
178.787,230.844769497
178.802,230.973021767
178.817,231.101148579
178.832,231.2291432
178.847,231.356998827
178.862,231.48470859
178.877,231.612265551
178.892,231.739662706
178.907,231.866892985
178.922,231.993949249
178.937,232.120824296
178.952,232.247510853
178.967,232.374001586
178.982,232.500289092
178.997,232.626365904
179.012,232.752224491
179.027,232.877857257
179.042,233.00325654
179.057,233.128414617
179.072,233.2533237
179.087,233.377975939
179.102,233.502363422
179.117,233.626478176
179.132,233.750312165
179.147,233.873857295
179.16,233.980689783
179.162,233.997105409
179.177,234.120048296
179.192,234.242677681
179.207,234.364985236
179.222,234.486962572
179.237,234.608601249
179.252,234.729892767
179.267,234.850828576
179.282,234.971400069
179.297,235.091598589
179.312,235.211415427
179.327,235.330841823
179.342,235.44986897
179.357,235.568488011
179.372,235.686690042
179.387,235.804466114
179.402,235.921807234
179.417,236.038704364
179.432,236.155148427
179.447,236.271130302
179.462,236.386640831
179.477,236.501670819
179.492,236.616211033
179.507,236.730252206
179.522,236.84378504
179.537,236.956800201
179.552,237.06928833
179.567,237.181240038
179.582,237.292645908
179.597,237.403496501
179.612,237.513782356
179.627,237.623493988
179.642,237.732621895
179.657,237.841156559
179.672,237.949088446
179.687,238.05640801
179.702,238.163105693
179.717,238.269171932
179.732,238.374597153
179.747,238.479371783
179.762,238.583486242
179.777,238.686930957
179.792,238.789696352
179.807,238.891772861
179.822,238.993150924
179.837,239.093820992
179.852,239.19377353
179.867,239.292999017
179.882,239.391487952
179.897,239.489230856
179.91,239.573330605
179.912,239.586218271
179.927,239.682440769
179.942,239.777888949
179.957,239.872553445
179.972,239.966424925
179.987,240.059494095
180.002,240.151751703
180.017,240.243188542
180.032,240.333795452
180.047,240.423563324
180.062,240.512483102
180.077,240.600545788
180.092,240.687742443
180.107,240.774064195
180.122,240.859502234
180.137,240.944047823
180.152,241.027692298
180.167,241.110427073
180.182,241.19224364
180.197,241.273133576
180.212,241.353088546
180.227,241.432100305
180.242,241.510160701
180.257,241.587261682
180.272,241.663395295
180.287,241.738553694
180.302,241.812729141
180.317,241.885914007
180.332,241.958100783
180.347,242.029282076
180.362,242.099450618
180.377,242.168599265
180.392,242.236721005
180.407,242.303808958
180.422,242.369856382
180.437,242.434856677
180.452,242.498803386
180.467,242.561690199
180.482,242.62351096
180.497,242.684259666
180.512,242.743930473
180.527,242.802517701
180.542,242.860015834
180.557,242.916419524
180.56,242.92756847
180.572,242.971723598
180.587,243.025923057
180.602,243.079013082
180.617,243.130989037
180.632,243.181846472
180.647,243.231581125
180.66,243.273773135
180.662,243.280188927
180.677,243.327666004
180.692,243.374008683
180.707,243.41921349
180.722,243.463277156
180.737,243.50619662
180.752,243.547969032
180.767,243.588591754
180.782,243.628062365
180.797,243.666378663
180.812,243.703538665
180.827,243.739540614
180.842,243.774382979
180.857,243.808064455
180.872,243.840583971
180.887,243.871940686
180.902,243.902133996
180.917,243.931163533
180.932,243.959029168
180.947,243.985731012
180.962,244.011269419
180.977,244.035644987
180.992,244.058858558
181.007,244.080911223
181.022,244.101804317
181.037,244.121539429
181.052,244.140118394
181.067,244.1575433
181.082,244.173816486
181.097,244.188940544
181.112,244.202918318
181.127,244.215752906
181.142,244.22744766
181.157,244.238006186
181.172,244.247432342
181.187,244.255730243
181.202,244.262904254
181.217,244.268958996
181.232,244.273899342
181.247,244.277730416
181.262,244.280457596
181.277,244.282086508
181.292,244.282623029
181.307,244.282073283
181.31,244.281833539
181.322,244.280443645
181.337,244.277740731
181.352,244.273971405
181.367,244.269142771
181.382,244.263262176
181.397,244.256337205
181.412,244.248375679
181.427,244.239385656
181.442,244.229375425
181.457,244.218353506
181.472,244.206328646
181.487,244.193309816
181.502,244.179306212
181.517,244.164327246
181.532,244.148382547
181.547,244.131481959
181.562,244.113635534
181.577,244.094853531
181.592,244.075146412
181.607,244.054524837
181.622,244.032999665
181.637,244.010581942
181.652,243.987282907
181.667,243.963113978
181.682,243.938086755
181.697,243.912213014
181.712,243.885504701
181.727,243.857973927
181.742,243.829632967
181.757,243.800494251
181.772,243.770570363
181.787,243.739874032
181.802,243.70841813
181.817,243.676215666
181.832,243.643279779
181.847,243.609623735
181.862,243.575260917
181.877,243.540204827
181.892,243.50446907
181.907,243.468067356
181.922,243.431013487
181.937,243.393321358
181.952,243.355004941
181.967,243.316078287
181.982,243.27655551
181.997,243.236450786
182.012,243.195778342
182.027,243.154552449
182.042,243.11278741
182.057,243.070497557
182.06,243.06197787
182.072,243.027697234
182.087,242.984400794
182.102,242.940622583
182.117,242.896376932
182.132,242.851678145
182.147,242.806540485
182.162,242.76097816
182.177,242.715005314
182.192,242.668636006
182.207,242.621884196
182.222,242.574763729
182.237,242.527288315
182.252,242.479471511
182.267,242.431326697
182.282,242.382867054
182.297,242.33410554
182.312,242.285054861
182.327,242.235727445
182.342,242.186135404
182.357,242.136290507
182.372,242.086204134
182.387,242.035887241
182.402,241.985350311
182.417,241.934603304
182.432,241.883655604
182.447,241.832515959
182.462,241.781192409
182.477,241.729692222
182.492,241.678021803
182.507,241.626186611
182.522,241.574191053
182.537,241.522038379
182.552,241.469730553
182.567,241.417268114
182.582,241.364650026
182.597,241.311873496
182.612,241.258933785
182.627,241.205823984
182.642,241.152534765
182.657,241.0990541
182.672,241.04536694
182.687,240.99145485
182.702,240.937295595
182.717,240.882862662
182.732,240.828124716
182.747,240.773044972
182.762,240.717580464
182.777,240.661681212
182.792,240.605289237
182.807,240.548337423
182.822,240.490748178
182.837,240.432431862
182.852,240.373284929
182.867,240.313187719
182.882,240.252001833
182.897,240.189566977
182.912,240.125697169
182.927,240.06017614
182.942,239.992751725
182.957,239.923128982
182.972,239.850961693
182.987,239.775841775
183.002,239.697285991
183.017,239.614719108
183.032,239.527452362
183.047,239.434655606
183.062,239.33532087
183.077,239.228214057
183.092,239.111809983
183.107,238.984203602
183.122,238.842986503
183.137,238.685071613
183.152,238.506438806
183.167,238.301756456
183.182,238.063802897
183.197,237.78255578
183.212,237.443715905
183.227,237.026255649
183.242,236.498339028
183.257,235.811089877
183.367,235.990850289
183.382,236.629135764
183.397,237.122531412
183.412,237.514905796
183.427,237.834844176
183.442,238.101356397
183.457,238.327470723
183.472,238.522385772
183.487,238.692772849
183.502,238.843585216
183.517,238.978576096
183.532,239.100639951
183.547,239.212043384
183.562,239.314585173
183.577,239.409709632
183.592,239.498588471
183.607,239.582180946
183.622,239.661278768
183.637,239.736540087
183.652,239.808515551
183.667,239.877668517
183.682,239.94439089
183.697,240.00901565
183.712,240.071826866
183.727,240.133067734
183.742,240.192947115
183.757,240.251644852
183.772,240.309316158
183.787,240.366095225
183.802,240.422098237
183.817,240.477425884
183.832,240.532165467
183.847,240.586392684
183.862,240.640173136
183.877,240.693563614
183.892,240.746613191
183.907,240.799364171
183.922,240.851852889
183.937,240.90411042
183.952,240.956163181
183.967,241.008033457
183.982,241.059739864
183.997,241.111297748
184.012,241.16271954
184.027,241.214015063
184.042,241.26519181
184.057,241.316255179
184.072,241.367208695
184.087,241.418054191
184.102,241.468791986
184.117,241.519421027
184.132,241.569939032
184.147,241.620342605
184.162,241.670627345
184.177,241.720787945
184.192,241.770818279
184.207,241.82071148
184.222,241.870460012
184.237,241.920055734
184.252,241.969489959
184.267,242.018753508
184.282,242.067836755
184.297,242.116729675
184.312,242.165421882
184.327,242.213902663
184.342,242.262161019
184.357,242.310185687
184.372,242.357965175
184.387,242.405487781
184.402,242.452741625
184.417,242.499714663
184.432,242.546394714
184.447,242.592769474
184.462,242.638826535
184.477,242.6845534
184.492,242.729937501
184.507,242.774966209
184.522,242.819626852
184.537,242.863906719
184.552,242.907793081
184.56,242.931033841
184.567,242.951273195
184.582,242.994334315
184.597,243.036963706
184.612,243.079148646
184.627,243.120876438
184.642,243.162134421
184.657,243.202909971
184.672,243.243190512
184.687,243.282963525
184.702,243.322216549
184.717,243.360937191
184.732,243.399113133
184.747,243.436732134
184.762,243.473782037
184.777,243.510250778
184.792,243.546126385
184.807,243.581396986
184.822,243.616050816
184.837,243.650076219
184.852,243.68346165
184.867,243.716195685
184.882,243.748267021
184.897,243.779664484
184.912,243.810377028
184.927,243.840393742
184.942,243.869703854
184.957,243.898296734
184.972,243.926161895
184.987,243.953289003
185.002,243.979667872
185.017,244.005288476
185.032,244.030140943
185.047,244.054215567
185.062,244.077502805
185.077,244.099993281
185.092,244.121677791
185.107,244.142547304
185.122,244.162592964
185.137,244.181806096
185.152,244.200178203
185.167,244.217700973
185.182,244.234366279
185.197,244.250166184
185.212,244.265092937
185.227,244.279138982
185.242,244.292296956
185.257,244.304559693
185.272,244.315920221
185.287,244.32637177
185.302,244.335907771
185.31,244.340617073
185.317,244.344521854
185.332,244.352207856
185.347,244.358959816
185.362,244.364771979
185.377,244.369638798
185.392,244.373554934
185.407,244.376515254
185.422,244.378514838
185.437,244.379548972
185.452,244.379613157
185.467,244.378703101
185.482,244.376814725
185.497,244.373944163
185.512,244.370087759
185.527,244.365242068
185.542,244.35940386
185.557,244.352570114
185.572,244.344738021
185.587,244.335904983
185.602,244.326068614
185.617,244.315226736
185.632,244.303377383
185.647,244.290518795
185.662,244.276649424
185.677,244.261767924
185.692,244.245873161
185.707,244.228964202
185.722,244.211040319
185.737,244.192100989
185.752,244.172145887
185.767,244.151174891
185.782,244.129188076
185.797,244.106185717
185.812,244.08216828
185.827,244.05713643
185.842,244.031091019
185.857,244.004033095
185.872,243.975963889
185.887,243.946884822
185.902,243.9167975
185.917,243.885703707
185.932,243.853605413
185.947,243.820504763
185.96,243.791008528
185.962,243.786404078
185.977,243.751305853
185.992,243.715212755
186.007,243.678127619
186.022,243.640053446
186.037,243.600993403
186.052,243.560950817
186.06,243.539194218
186.067,243.519929174
186.082,243.477932116
186.097,243.43496344
186.112,243.391027094
186.127,243.346127172
186.142,243.300267917
186.157,243.253453713
186.172,243.205689084
186.187,243.156978693
186.202,243.107327336
186.217,243.056739941
186.232,243.005221567
186.247,242.952777395
186.262,242.899412734
186.277,242.845133009
186.292,242.789943766
186.307,242.733850664
186.322,242.676859473
186.337,242.618976073
186.352,242.56020645
186.367,242.500556693
186.382,242.440032991
186.397,242.378641629
186.412,242.316388988
186.427,242.253281541
186.442,242.189325848
186.457,242.124528556
186.472,242.058896395
186.487,241.992436174
186.502,241.925154781
186.517,241.857059177
186.532,241.788156397
186.547,241.718453542
186.562,241.647957781
186.577,241.576676348
186.592,241.504616536
186.607,241.431785696
186.622,241.358191235
186.637,241.283840614
186.652,241.208741343
186.667,241.13290098
186.682,241.056327129
186.697,240.979027436
186.71,240.911453183
186.712,240.901009587
186.727,240.822281307
186.742,240.742850354
186.757,240.662724522
186.772,240.581911633
186.787,240.500419538
186.802,240.418256113
186.817,240.335429261
186.832,240.251946902
186.847,240.167816978
186.862,240.083047446
186.877,239.997646282
186.892,239.911621468
186.907,239.824981003
186.922,239.737732891
186.937,239.649885144
186.952,239.561445778
186.967,239.472422814
186.982,239.38282427
186.997,239.292658165
187.012,239.201932517
187.027,239.110655337
187.042,239.01883463
187.057,238.926478394
187.072,238.833594615
187.087,238.74019127
187.102,238.646276322
187.117,238.55185772
187.132,238.456943396
187.147,238.361541266
187.162,238.265659224
187.177,238.169305146
187.192,238.072486886
187.207,237.975212273
187.222,237.877489114
187.237,237.779325187
187.252,237.680728246
187.267,237.581706015
187.282,237.482266189
187.297,237.382416431
187.312,237.282164373
187.327,237.181517615
187.342,237.080483723
187.357,236.979070226
187.372,236.877284619
187.387,236.775134358
187.402,236.672626864
187.417,236.569769517
187.432,236.466569658
187.447,236.363034587
187.46,236.273038655
187.462,236.259171563
187.477,236.154987804
187.492,236.050490483
187.507,235.945686731
187.522,235.840583633
187.537,235.735188232
187.552,235.629507523
187.567,235.523548455
187.582,235.41731793
187.597,235.310822803
187.612,235.204069883
187.627,235.097065926
187.642,234.989817644
187.657,234.882331696
187.672,234.774614693
187.687,234.666673195
187.702,234.558513711
187.717,234.4501427
187.732,234.341566568
187.747,234.232791671
187.762,234.123824313
187.777,234.014670743
187.792,233.905337161
187.807,233.79582971
187.822,233.686154485
187.837,233.576317523
187.852,233.466324809
187.867,233.356182277
187.882,233.245895803
187.897,233.135471211
187.912,233.024914271
187.927,232.914230699
187.942,232.803426157
187.957,232.69250625
187.972,232.581476532
187.987,232.470342501
188.002,232.3591096
188.017,232.247783218
188.032,232.13636869
188.047,232.024871296
188.062,231.913296262
188.077,231.801648759
188.092,231.689933903
188.107,231.578156757
188.122,231.466322331
188.137,231.354435577
188.152,231.242501396
188.167,231.130524634
188.182,231.018510085
188.197,230.906462486
188.21,230.809331456
188.212,230.794386523
188.227,230.682286828
188.242,230.57016798
188.257,230.458034505
188.272,230.345890875
188.287,230.23374151
188.302,230.12159078
188.317,230.009442999
188.332,229.89730243
188.347,229.785173286
188.362,229.673059727
188.377,229.560965861
188.392,229.448895746
188.407,229.336853389
188.422,229.224842747
188.437,229.112867725
188.452,229.000932179
188.467,228.889039915
188.482,228.777194689
188.497,228.66540021
188.512,228.553660135
188.527,228.441978073
188.542,228.330357587
188.557,228.218802189
188.572,228.107315345
188.587,227.995900474
188.602,227.884560945
188.617,227.773300083
188.632,227.662121165
188.647,227.551027423
188.66,227.454817541
188.662,227.440022042
188.677,227.329108164
188.692,227.218288881
188.707,227.107567244
188.722,226.996946259
