# 10410 EDZE Essen Observations at 12Z 25 Sep 2019
Frequency [GHz],TB
175.31,269.726604332
175.322,269.708404001
175.337,269.68554648
175.352,269.662569962
175.367,269.639474452
175.382,269.616259962
175.397,269.592926501
175.412,269.569474089
175.427,269.54590274
175.442,269.522212472
175.457,269.498403304
175.472,269.474475261
175.487,269.450428363
175.502,269.42626264
175.517,269.401978118
175.532,269.377574827
175.547,269.353052797
175.562,269.328412061
175.577,269.303652658
175.592,269.278774619
175.607,269.253777984
175.622,269.228662796
175.637,269.203429091
175.652,269.178076917
175.667,269.152606317
175.682,269.127017338
175.697,269.101310027
175.712,269.075484432
175.727,269.049540609
175.742,269.023478605
175.757,268.997298476
175.772,268.971000276
175.787,268.944584064
175.802,268.918049894
175.817,268.891397828
175.832,268.864627925
175.847,268.837740248
175.862,268.810734859
175.877,268.78361182
175.892,268.756371199
175.907,268.729013059
175.922,268.701537469
175.937,268.673944499
175.952,268.646234214
175.967,268.618406685
175.982,268.590461985
175.997,268.562400185
176.012,268.534221356
176.027,268.505925573
176.042,268.477512908
176.057,268.448983439
176.072,268.420337237
176.087,268.391574383
176.102,268.362694949
176.117,268.333699015
176.132,268.304586656
176.147,268.275357952
176.162,268.24601298
176.177,268.216551819
176.192,268.186974548
176.207,268.157281245
176.222,268.127471991
176.237,268.097546865
176.252,268.067505945
176.267,268.037349313
176.282,268.007077046
176.297,267.976689226
176.31,267.950259706
176.312,267.946185931
176.327,267.915567241
176.342,267.884833233
176.357,267.853983988
176.372,267.823019584
176.387,267.791940098
176.402,267.760745609
176.417,267.729436194
176.432,267.69801193
176.447,267.666472893
176.46,267.639046278
176.462,267.634819157
176.477,267.603050799
176.492,267.571167891
176.507,267.539170508
176.522,267.507058722
176.537,267.474832606
176.552,267.442492228
176.567,267.410037661
176.582,267.37746897
176.597,267.344786225
176.612,267.311989491
176.627,267.279078832
176.642,267.246054315
176.657,267.212916002
176.672,267.179663951
176.687,267.146298223
176.702,267.11281888
176.717,267.079225973
176.732,267.045519559
176.747,267.011699694
176.762,266.977766425
176.777,266.943719805
176.792,266.909559879
176.807,266.875286697
176.822,266.840900299
176.837,266.806400731
176.852,266.771788029
176.867,266.737062232
176.882,266.702223378
176.897,266.667271498
176.912,266.632206623
176.927,266.597028783
176.942,266.561738003
176.957,266.526334309
176.972,266.49081772
176.987,266.455188255
177.002,266.419445933
177.017,266.383590764
177.032,266.347622761
177.047,266.311541928
177.062,266.275348274
177.077,266.2390418
177.092,266.202622505
177.107,266.166090385
177.122,266.129445434
177.137,266.092687639
177.152,266.055816988
177.167,266.018833468
177.182,265.981737054
177.197,265.944527726
177.21,265.912188286
177.212,265.907205457
177.227,265.869770216
177.242,265.832221972
177.257,265.794560684
177.272,265.756786315
177.287,265.718898818
177.302,265.680898147
177.31,265.66058483
177.317,265.642784251
177.332,265.604557073
177.347,265.566216554
177.362,265.527762631
177.377,265.489195236
177.392,265.450514299
177.407,265.411719745
177.422,265.372811493
177.437,265.333789464
177.452,265.294653566
177.467,265.255403711
177.482,265.2160398
177.497,265.176561736
177.512,265.136969409
177.527,265.097262719
177.542,265.057441544
177.557,265.017505771
177.572,264.977455278
177.587,264.937289936
177.602,264.897009617
177.617,264.856614182
177.632,264.816103491
177.647,264.775477401
177.66,264.740174661
177.662,264.73473576
177.677,264.693878415
177.692,264.652905205
177.707,264.611815967
177.722,264.570610533
177.737,264.529288727
177.752,264.487850372
177.767,264.446295282
177.782,264.404623272
177.797,264.362834144
177.812,264.320927703
177.827,264.278903745
177.842,264.236762058
177.857,264.194502431
177.872,264.152124645
177.887,264.109628475
177.902,264.067013693
177.917,264.024280062
177.932,263.981427344
177.947,263.938455292
177.96,263.901116129
177.962,263.89536366
177.977,263.85215219
177.992,263.80882062
178.007,263.765368685
178.022,263.721796114
178.037,263.67810263
178.052,263.63428795
178.067,263.590351787
178.082,263.546293847
178.097,263.502113835
178.112,263.457811443
178.127,263.413386364
178.142,263.368838281
178.157,263.324166877
178.172,263.279371824
178.187,263.234452791
178.202,263.18940944
178.217,263.144241432
178.232,263.098948416
178.247,263.05353004
178.262,263.007985945
178.277,262.962315766
178.292,262.916519133
178.307,262.870595671
178.322,262.824544997
178.337,262.778366725
178.352,262.732060465
178.367,262.685625814
178.382,262.639062372
178.397,262.59236973
178.41,262.551797942
178.412,262.54554747
178.427,262.498595174
178.442,262.451512415
178.457,262.404298762
178.472,262.356953776
178.487,262.309477014
178.502,262.261868028
178.517,262.214126364
178.532,262.166251562
178.547,262.118243157
178.562,262.070100676
178.577,262.021823643
178.592,261.973411575
178.607,261.924863984
178.622,261.876180377
178.637,261.827360254
178.652,261.778403109
178.667,261.729308433
178.682,261.680075707
178.697,261.630704412
178.712,261.581194019
178.727,261.531543994
178.742,261.481753801
178.757,261.431822893
178.772,261.38175072
178.787,261.331536725
178.802,261.281180351
178.817,261.230681028
178.832,261.180038183
178.847,261.129251239
178.862,261.078319613
178.877,261.027242715
178.892,260.97601995
178.907,260.924650718
178.922,260.873134411
178.937,260.82147042
178.952,260.769658126
178.967,260.717696908
178.982,260.665586137
178.997,260.61332518
179.012,260.560913396
179.027,260.508350138
179.042,260.455634761
179.057,260.402766608
179.072,260.349745017
179.087,260.296569316
179.102,260.24323884
179.117,260.189752906
179.132,260.136110835
179.147,260.082311934
179.16,260.035558828
179.162,260.028355511
179.177,259.974240865
179.192,259.919967292
179.207,259.86553408
179.222,259.810940514
179.237,259.756185871
179.252,259.701269425
179.267,259.646190446
179.282,259.590948192
179.297,259.535541921
179.312,259.479970886
179.327,259.424234332
179.342,259.368331502
179.357,259.312261627
179.372,259.256023941
179.387,259.199617667
179.402,259.143042025
179.417,259.08629623
179.432,259.02937949
179.447,258.972291008
179.462,258.915029984
179.477,258.857595612
179.492,258.799987078
179.507,258.742203565
179.522,258.684244253
179.537,258.626108312
179.552,258.567794911
179.567,258.509303214
179.582,258.450632374
179.597,258.391781547
179.612,258.33274988
179.627,258.273536516
179.642,258.21414059
179.657,258.154561237
179.672,258.094797582
179.687,258.034848751
179.702,257.974713861
179.717,257.914392023
179.732,257.853882351
179.747,257.793183944
179.762,257.732295903
179.777,257.671217324
179.792,257.609947296
179.807,257.548484906
179.822,257.486829233
179.837,257.424979359
179.852,257.362934351
179.867,257.300693282
179.882,257.238255215
179.897,257.175619212
179.91,257.121173838
179.912,257.112784328
179.927,257.049749615
179.942,256.986514125
179.957,256.923076901
179.972,256.859436986
179.987,256.795593416
180.002,256.731545229
180.017,256.667291454
180.032,256.60283112
180.047,256.538163253
180.062,256.473286876
180.077,256.408201008
180.092,256.342904666
180.107,256.277396865
180.122,256.211676617
180.137,256.145742933
180.152,256.079594822
180.167,256.01323129
180.182,255.946651341
180.197,255.879853979
180.212,255.812838208
180.227,255.745603029
180.242,255.678147441
180.257,255.610470448
180.272,255.542571046
180.287,255.474448236
180.302,255.406101021
180.317,255.337528399
180.332,255.268729374
180.347,255.199702947
180.362,255.130448125
180.377,255.06096391
180.392,254.991249316
180.407,254.92130335
180.422,254.851125028
180.437,254.780713366
180.452,254.710067385
180.467,254.639186113
180.482,254.568068574
180.497,254.496713806
180.512,254.42512085
180.527,254.353288749
180.542,254.281216558
180.557,254.208903337
180.56,254.194411686
180.572,254.13634815
180.587,254.063550076
180.602,253.990508195
180.617,253.917221603
180.632,253.843689405
180.647,253.769910711
180.66,253.705769114
180.662,253.695884649
180.677,253.621610356
180.692,253.54708698
180.707,253.472313687
180.722,253.397289654
180.737,253.322014073
180.752,253.246486155
180.767,253.170705124
180.782,253.094670224
180.797,253.018380718
180.812,252.941835886
180.827,252.865035032
180.842,252.787977478
180.857,252.710662571
180.872,252.633089683
180.887,252.555258207
180.902,252.477167565
180.917,252.398817205
180.932,252.320206604
180.947,252.241335267
180.962,252.162202734
180.977,252.082808574
180.992,252.003152387
181.007,251.923233816
181.022,251.843052534
181.037,251.762608255
181.052,251.681900731
181.067,251.600929758
181.082,251.519695173
181.097,251.438196856
181.112,251.356434738
181.127,251.274408792
181.142,251.192119047
181.157,251.109565578
181.172,251.026748519
181.187,250.943668058
181.202,250.860324437
181.217,250.776717966
181.232,250.692849009
181.247,250.608717999
181.262,250.524325431
181.277,250.439671875
181.292,250.354757967
181.307,250.269584419
181.31,250.25251862
181.322,250.184152018
181.337,250.09846163
181.352,250.012514202
181.367,249.926310766
181.382,249.839852439
181.397,249.753140429
181.412,249.666176034
181.427,249.578960649
181.442,249.491495769
181.457,249.403782986
181.472,249.315823999
181.487,249.227620617
181.502,249.139174753
181.517,249.050488443
181.532,248.961563832
181.547,248.872403195
181.562,248.783008924
181.577,248.693383546
181.592,248.603529716
181.607,248.513450227
181.622,248.423148012
181.637,248.332626149
181.652,248.24188786
181.667,248.150936524
181.682,248.059775676
181.697,247.968409012
181.712,247.876840388
181.727,247.785073841
181.742,247.693113573
181.757,247.600963971
181.772,247.508629603
181.787,247.416115231
181.802,247.323425808
181.817,247.230566488
181.832,247.137542631
181.847,247.044359806
181.862,246.951023801
181.877,246.857540623
181.892,246.76391651
181.907,246.670157933
181.922,246.576271604
181.937,246.48226448
181.952,246.388143772
181.967,246.293916951
181.982,246.199591755
181.997,246.105176195
182.012,246.010678565
182.027,245.916107443
182.042,245.821471705
182.057,245.72678053
182.06,245.707836473
182.072,245.632043411
182.087,245.537270159
182.102,245.44247091
182.117,245.347656142
182.132,245.25283667
182.147,245.158023673
182.162,245.063228689
182.177,244.968463626
182.192,244.873740778
182.207,244.779072833
182.222,244.684472877
182.237,244.589954411
182.252,244.495531363
182.267,244.401218088
182.282,244.307029392
182.297,244.212980536
182.312,244.119087247
182.327,244.025365733
182.342,243.931832694
182.357,243.83850533
182.372,243.745401358
182.387,243.652539019
182.402,243.5599371
182.417,243.46761493
182.432,243.375592409
182.447,243.283890007
182.462,243.192528785
182.477,243.101530405
182.492,243.010917136
182.507,242.920711874
182.522,242.83093815
182.537,242.741620136
182.552,242.652782668
182.567,242.564451245
182.582,242.476652042
182.597,242.389411925
182.612,242.302758454
182.627,242.216719893
182.642,242.131325226
182.657,242.046604152
182.672,241.962587103
182.687,241.879305247
182.702,241.796790503
182.717,241.715075543
182.732,241.634193802
182.747,241.554179493
182.762,241.475067618
182.777,241.396893984
182.792,241.319695226
182.807,241.243508827
182.822,241.168373155
182.837,241.094327507
182.852,241.021412158
182.867,240.949668429
182.882,240.879138772
182.897,240.809866883
182.912,240.741897827
182.927,240.675278212
182.942,240.610056394
182.957,240.546282719
182.972,240.484009842
182.987,240.42329308
183.002,240.364190861
183.017,240.306765233
183.032,240.251082461
183.047,240.19721372
183.062,240.145235852
183.077,240.095232222
183.092,240.047293585
183.107,240.001518986
183.122,239.958016578
183.137,239.91690427
183.152,239.878310091
183.167,239.842372075
183.182,239.809237483
183.197,239.779061147
183.212,239.752002737
183.227,239.728222846
183.242,239.707877844
183.257,239.691113721
183.367,239.685419458
183.382,239.70057853
183.397,239.719285506
183.412,239.741391396
183.427,239.766738345
183.442,239.79516557
183.457,239.826514209
183.472,239.860630946
183.487,239.897370473
183.502,239.936596915
183.517,239.978184436
183.532,240.022017232
183.547,240.067989086
183.562,240.116002678
183.577,240.165968747
183.592,240.217805197
183.607,240.271436228
183.622,240.32679153
183.637,240.383805512
183.652,240.442416662
183.667,240.502566964
183.682,240.564201399
183.697,240.627267536
183.712,240.691715176
183.727,240.757496066
183.742,240.824563655
183.757,240.892872906
183.772,240.962380133
183.787,241.033042876
183.802,241.104819801
183.817,241.177670617
183.832,241.251556014
183.847,241.326437606
183.862,241.402277907
183.877,241.479040283
183.892,241.556688941
183.907,241.635188898
183.922,241.714505975
183.937,241.79460678
183.952,241.875458694
183.967,241.957029871
183.982,242.039289216
183.997,242.122206389
184.012,242.205751785
184.027,242.289896539
184.042,242.374612505
184.057,242.459872252
184.072,242.545649058
184.087,242.631916896
184.102,242.718650424
184.117,242.805824976
184.132,242.893416547
184.147,242.981401794
184.162,243.069758003
184.177,243.158463098
184.192,243.247495624
184.207,243.336834715
184.222,243.426460117
184.237,243.516352142
184.252,243.606491675
184.267,243.696860157
184.282,243.787439566
184.297,243.878212415
184.312,243.969161732
184.327,244.06027105
184.342,244.151524393
184.357,244.242906266
184.372,244.334401645
184.387,244.42599596
184.402,244.51767509
184.417,244.609425345
184.432,244.701233456
184.447,244.793086571
184.462,244.884972238
184.477,244.976878393
184.492,245.068793358
184.507,245.160705823
184.522,245.252604837
184.537,245.344479808
184.552,245.43632048
184.56,245.485284709
184.567,245.528116933
184.582,245.619859572
184.597,245.711539121
184.612,245.803146608
184.627,245.894673361
184.642,245.986111005
184.657,246.077451445
184.672,246.168686864
184.687,246.259809717
184.702,246.350812717
184.717,246.44168884
184.732,246.5324313
184.747,246.623033564
184.762,246.713489329
184.777,246.803792524
184.792,246.893937302
184.807,246.983918031
184.822,247.073729295
184.837,247.16336588
184.852,247.252822776
184.867,247.342095166
184.882,247.431178425
184.897,247.520068115
184.912,247.608759972
184.927,247.697249912
184.942,247.785534022
184.957,247.873608551
184.972,247.961469913
184.987,248.049114675
185.002,248.13653956
185.017,248.223741439
185.032,248.310717325
185.047,248.397464372
185.062,248.48397987
185.077,248.570261246
185.092,248.656306046
185.107,248.742111949
185.122,248.827676752
185.137,248.912998368
185.152,248.998074831
185.167,249.08290428
185.182,249.167484961
185.197,249.251815228
185.212,249.335893535
185.227,249.419718438
185.242,249.50328858
185.257,249.586602701
185.272,249.669659637
185.287,249.752458298
185.302,249.834997688
185.31,249.878912362
185.317,249.917276888
185.332,249.999295061
185.347,250.081051441
185.362,250.162545341
185.377,250.243776145
185.392,250.324743302
185.407,250.405446334
185.422,250.48588482
185.437,250.566058412
185.452,250.645966809
185.467,250.725609778
185.482,250.804987143
185.497,250.884098772
185.512,250.962944598
185.527,251.041524596
185.542,251.119838793
185.557,251.197887262
185.572,251.27567012
185.587,251.353187531
185.602,251.430439699
185.617,251.507426867
185.632,251.58414932
185.647,251.660607377
185.662,251.736801392
185.677,251.81273176
185.692,251.888398902
185.707,251.963803273
185.722,252.038945361
185.737,252.113825679
185.752,252.188444771
185.767,252.262803206
185.782,252.33690158
185.797,252.410740513
185.812,252.484320647
185.827,252.557642648
185.842,252.630707204
185.857,252.703515021
185.872,252.776066826
185.887,252.848363363
185.902,252.920405398
185.917,252.992193705
185.932,253.063729084
185.947,253.135012343
185.96,253.196587869
185.962,253.206044308
185.977,253.276825815
185.992,253.347357715
186.007,253.417640872
186.022,253.487676159
186.037,253.557464463
186.052,253.627006676
186.06,253.663995545
186.067,253.696303702
186.082,253.765356459
186.097,253.834165861
186.112,253.902732842
186.127,253.971058337
186.142,254.039143288
186.157,254.106988644
186.172,254.17459536
186.187,254.241964395
186.202,254.309096714
186.217,254.375993285
186.232,254.442655081
186.247,254.509083075
186.262,254.575278251
186.277,254.641241587
186.292,254.706974068
186.307,254.772476681
186.322,254.837750413
186.337,254.902796251
186.352,254.96761519
186.367,255.032208217
186.382,255.096576323
186.397,255.160720501
186.412,255.224641746
186.427,255.288341041
186.442,255.351819383
186.457,255.415077762
186.472,255.478117163
186.487,255.540938577
186.502,255.603542988
186.517,255.665931385
186.532,255.728104747
186.547,255.790064057
186.562,255.851810294
186.577,255.913344434
186.592,255.974667452
186.607,256.035780319
186.622,256.096684006
186.637,256.157379478
186.652,256.217867699
186.667,256.27814963
186.682,256.338226227
186.697,256.398098443
186.71,256.449823113
186.712,256.457767232
186.727,256.517233538
186.742,256.576498307
186.757,256.635562476
186.772,256.694426983
186.787,256.753092762
186.802,256.811560739
186.817,256.869831837
186.832,256.927906982
186.847,256.985787086
186.862,257.043473062
186.877,257.10096582
186.892,257.158266263
186.907,257.215375289
186.922,257.272293795
186.937,257.329022673
186.952,257.385562805
186.967,257.441915078
186.982,257.498080368
186.997,257.554059549
187.012,257.609853486
187.027,257.665463047
187.042,257.720889088
187.057,257.776132467
187.072,257.831194032
187.087,257.88607463
187.102,257.940775102
187.117,257.995296279
187.132,258.049638999
187.147,258.103804087
187.162,258.157792363
187.177,258.211604645
187.192,258.265241746
187.207,258.318704474
187.222,258.371993632
187.237,258.425110016
187.252,258.478054423
187.267,258.53082764
187.282,258.58343045
187.297,258.635863634
187.312,258.688127965
187.327,258.740224214
187.342,258.792153142
187.357,258.843915515
187.372,258.895512083
187.387,258.946943601
187.402,258.99821081
187.417,259.049314455
187.432,259.100255272
187.447,259.15103399
187.46,259.194911656
187.462,259.201651337
187.477,259.252108036
187.492,259.302404804
187.507,259.352542354
187.522,259.402521393
187.537,259.452342624
187.552,259.502006747
187.567,259.551514455
187.582,259.600866437
187.597,259.650063379
187.612,259.699105959
187.627,259.747994854
187.642,259.796730732
187.657,259.845314263
187.672,259.893746104
187.687,259.942026916
187.702,259.990157346
187.717,260.038138049
187.732,260.085969663
187.747,260.133652826
187.762,260.181188174
187.777,260.228576339
187.792,260.275817941
187.807,260.322913601
187.822,260.369863939
187.837,260.416669563
187.852,260.463331081
187.867,260.509849097
187.882,260.556224207
187.897,260.602457004
187.912,260.648548079
187.927,260.694498018
187.942,260.740307399
187.957,260.7859768
187.972,260.831506793
187.987,260.876897943
188.002,260.922150814
188.017,260.967265967
188.032,261.012243952
188.047,261.057085325
188.062,261.101790627
188.077,261.146360401
188.092,261.190795186
188.107,261.235095512
188.122,261.279261911
188.137,261.323294906
188.152,261.367195019
188.167,261.410962763
188.182,261.454598653
188.197,261.498103197
188.21,261.535701279
188.212,261.541476897
188.227,261.584720254
188.242,261.627833764
188.257,261.670817919
188.272,261.713673203
188.287,261.756400102
188.302,261.798999095
188.317,261.841470656
188.332,261.88381526
188.347,261.926033372
188.362,261.968125453
188.377,262.010091965
188.392,262.051933363
188.407,262.093650097
188.422,262.135242617
188.437,262.176711363
188.452,262.218056777
188.467,262.259279296
188.482,262.300379352
188.497,262.341357368
188.512,262.382213774
188.527,262.422948988
188.542,262.463563428
188.557,262.504057505
188.572,262.544431629
188.587,262.584686204
188.602,262.624821636
188.617,262.664838319
188.632,262.704736647
188.647,262.744517014
188.66,262.778898212
188.662,262.784179803
188.677,262.823725402
188.692,262.863154187
188.707,262.902466536
188.722,262.941662819
188.737,262.980743408
