# 10410 EDZE Essen Observations at 12Z 16 Nov 2019
Frequency [GHz],TB
175.31,258.22838705
175.322,258.277211071
175.337,258.338156719
175.352,258.399007012
175.367,258.459760229
175.382,258.520414636
175.397,258.58096849
175.412,258.641420036
175.427,258.701767508
175.442,258.762009129
175.457,258.822143113
175.472,258.88216766
175.487,258.942080964
175.502,259.001881202
175.517,259.061566545
175.532,259.121135152
175.547,259.180585171
175.562,259.239914739
175.577,259.299121983
175.592,259.358205019
175.607,259.417161952
175.622,259.475990877
175.637,259.534689879
175.652,259.59325703
175.667,259.651690396
175.682,259.709988028
175.697,259.768147968
175.712,259.826168248
175.727,259.88404689
175.742,259.941781906
175.757,259.999371295
175.772,260.056813051
175.787,260.114105153
175.802,260.17124557
175.817,260.228232265
175.832,260.285063187
175.847,260.341736278
175.862,260.398249468
175.877,260.454600677
175.892,260.510787817
175.907,260.56680879
175.922,260.622661488
175.937,260.678343792
175.952,260.733853575
175.967,260.789188702
175.982,260.844347026
175.997,260.899326392
176.012,260.954124635
176.027,261.008739583
176.042,261.063169054
176.057,261.117410856
176.072,261.171462788
176.087,261.225322645
176.102,261.278988206
176.117,261.332457247
176.132,261.385727534
176.147,261.438796823
176.162,261.491662867
176.177,261.544323403
176.192,261.596776168
176.207,261.649018886
176.222,261.701049275
176.237,261.752865046
176.252,261.804463901
176.267,261.855843536
176.282,261.907001641
176.297,261.957935894
176.31,262.001896047
176.312,262.008643972
176.327,262.059123542
176.342,262.109372265
176.357,262.159387796
176.372,262.209167782
176.387,262.258709867
176.402,262.308011684
176.417,262.357070867
176.432,262.405885037
176.447,262.454451816
176.46,262.496341065
176.462,262.502768815
176.477,262.550833642
176.492,262.598643903
176.507,262.646197195
176.522,262.693491113
176.537,262.740523245
176.552,262.787291176
176.567,262.833792488
176.582,262.880024758
176.597,262.925985559
176.612,262.971672462
176.627,263.017083033
176.642,263.062214835
176.657,263.107065429
176.672,263.151632375
176.687,263.195913225
176.702,263.239905536
176.717,263.283606858
176.732,263.32701474
176.747,263.370126731
176.762,263.412940378
176.777,263.455453227
176.792,263.497662822
176.807,263.539566709
176.822,263.581162431
176.837,263.622447532
176.852,263.663419557
176.867,263.70407605
176.882,263.744414557
176.897,263.784432625
176.912,263.824127801
176.927,263.863497633
176.942,263.902539674
176.957,263.941251476
176.972,263.979630595
176.987,264.017674588
177.002,264.055381016
177.017,264.092747444
177.032,264.12977144
177.047,264.166450573
177.062,264.202782421
177.077,264.238764564
177.092,264.274394584
177.107,264.309670074
177.122,264.344588627
177.137,264.379147843
177.152,264.41334533
177.167,264.4471787
177.182,264.480645572
177.197,264.513743574
177.21,264.542128304
177.212,264.546470338
177.227,264.578823505
177.242,264.610800725
177.257,264.642399655
177.272,264.673617959
177.287,264.704453314
177.302,264.734903403
177.31,264.750985123
177.317,264.764965919
177.332,264.794638566
177.347,264.823919057
177.362,264.852805117
177.377,264.881294481
177.392,264.909384895
177.407,264.937074118
177.422,264.96435992
177.437,264.991240083
177.452,265.017712403
177.467,265.043774688
177.482,265.069424759
177.497,265.094660454
177.512,265.119479619
177.527,265.143880122
177.542,265.16785984
177.557,265.191416667
177.572,265.214548514
177.587,265.237253307
177.602,265.259528986
177.617,265.281373513
177.632,265.302784862
177.647,265.323761026
177.66,265.341586814
177.662,265.344300015
177.677,265.364399861
177.692,265.384058609
177.707,265.403274325
177.722,265.422045096
177.737,265.440369026
177.752,265.45824424
177.767,265.475668884
177.782,265.492641121
177.797,265.509159139
177.812,265.525221146
177.827,265.54082537
177.842,265.555970062
177.857,265.570653497
177.872,265.58487397
177.887,265.598629799
177.902,265.611919326
177.917,265.624740919
177.932,265.637092964
177.947,265.648973877
177.96,265.658888366
177.962,265.660382095
177.977,265.671316082
177.992,265.681774324
178.007,265.691755335
178.022,265.701257655
178.037,265.710279848
178.052,265.718820504
178.067,265.726878243
178.082,265.734451707
178.097,265.741539568
178.112,265.748140525
178.127,265.754253304
178.142,265.759876658
178.157,265.765009369
178.172,265.769650247
178.187,265.773798131
178.202,265.777451886
178.217,265.78061041
178.232,265.783272626
178.247,265.785437489
178.262,265.787103982
178.277,265.788271116
178.292,265.788937937
178.307,265.789103513
178.322,265.788766949
178.337,265.787927375
178.352,265.786583956
178.367,265.784735882
178.382,265.782382377
178.397,265.779522695
178.41,265.776634308
178.412,265.776156118
178.427,265.772281963
178.442,265.767899573
178.457,265.763008324
178.472,265.757607622
178.487,265.751696905
178.502,265.745275641
178.517,265.738343326
178.532,265.730899491
178.547,265.722943694
178.562,265.714475525
178.577,265.705494604
178.592,265.696000583
178.607,265.685993141
178.622,265.675471991
178.637,265.664436871
178.652,265.652887554
178.667,265.640823839
178.682,265.628245557
178.697,265.615152565
178.712,265.601544753
178.727,265.587422037
178.742,265.572784363
178.757,265.557631705
178.772,265.541964064
178.787,265.525781471
178.802,265.509083984
178.817,265.491871684
178.832,265.474144686
178.847,265.455903126
178.862,265.437147167
178.877,265.417877001
178.892,265.398092839
178.907,265.377794924
178.922,265.356983519
178.937,265.335658912
178.952,265.313821414
178.967,265.291471361
178.982,265.268609108
178.997,265.245235036
179.012,265.221349544
179.027,265.196953055
179.042,265.17204601
179.057,265.146628871
179.072,265.120702118
179.087,265.09426625
179.102,265.067321785
179.117,265.039869255
179.132,265.011909214
179.147,264.983442226
179.16,264.958361224
179.162,264.954468875
179.177,264.924989756
179.192,264.895005479
179.207,264.864516668
179.222,264.833523958
179.237,264.802027995
179.252,264.770029437
179.267,264.737528951
179.282,264.704527215
179.297,264.671024913
179.312,264.637022736
179.327,264.602521384
179.342,264.567521561
179.357,264.532023977
179.372,264.496029345
179.387,264.459538381
179.402,264.422551805
179.417,264.385070337
179.432,264.347094697
179.447,264.308625605
179.462,264.269663779
179.477,264.230209937
179.492,264.190264791
179.507,264.149829049
179.522,264.108903417
179.537,264.06748859
179.552,264.02558526
179.567,263.983194108
179.582,263.94031581
179.597,263.896951027
179.612,263.853100413
179.627,263.808764609
179.642,263.763944243
179.657,263.718639928
179.672,263.672852266
179.687,263.62658184
179.702,263.579829217
179.717,263.532594948
179.732,263.484879565
179.747,263.43668358
179.762,263.388007485
179.777,263.338851751
179.792,263.289216827
179.807,263.239103141
179.822,263.188511094
179.837,263.137441063
179.852,263.085893403
179.867,263.033868438
179.882,262.981366469
179.897,262.928387767
179.91,262.882087456
179.912,262.874932574
179.927,262.821001105
179.942,262.766593542
179.957,262.711710039
179.972,262.656350716
179.987,262.600515664
180.002,262.544204938
180.017,262.48741856
180.032,262.430156522
180.047,262.372418776
180.062,262.314205243
180.077,262.255515807
180.092,262.196350315
180.107,262.136708579
180.122,262.076590375
180.137,262.015995439
180.152,261.954923471
180.167,261.893374133
180.182,261.83134705
180.197,261.768841807
180.212,261.705857951
180.227,261.642394989
180.242,261.578452393
180.257,261.514029592
180.272,261.449125977
180.287,261.383740903
180.302,261.317873681
180.317,261.251523587
180.332,261.184689858
180.347,261.117371692
180.362,261.049568248
180.377,260.981278648
180.392,260.912501977
180.407,260.843237282
180.422,260.773483571
180.437,260.703239821
180.452,260.632504969
180.467,260.561277917
180.482,260.489557535
180.497,260.417342658
180.512,260.344632086
180.527,260.271424589
180.542,260.197718906
180.557,260.123513743
180.56,260.108612657
180.572,260.048807778
180.587,259.973599661
180.602,259.897888014
180.617,259.821671432
180.632,259.744948487
180.647,259.667717724
180.66,259.60037249
180.662,259.58997767
180.677,259.511726826
180.692,259.432963678
180.707,259.35368669
180.722,259.273894312
180.737,259.193584979
180.752,259.112757111
180.767,259.03140912
180.782,258.949539404
180.797,258.867146359
180.812,258.78422837
180.827,258.700783821
180.842,258.616811095
180.857,258.532308575
180.872,258.447274646
180.887,258.361707701
180.902,258.275606137
180.917,258.188968365
180.932,258.101792805
180.947,258.014077896
180.962,257.925822092
180.977,257.837023869
180.992,257.747681727
181.007,257.657794191
181.022,257.567359817
181.037,257.476377194
181.052,257.384844943
181.067,257.29276173
181.082,257.200126257
181.097,257.106937274
181.112,257.013193583
181.127,256.918894033
181.142,256.824037534
181.157,256.728623053
181.172,256.632649621
181.187,256.536116338
181.202,256.439022375
181.217,256.341366977
181.232,256.243149471
181.247,256.144369266
181.262,256.045025861
181.277,255.945118847
181.292,255.844647911
181.307,255.743612844
181.31,255.723338123
181.322,255.642013541
181.337,255.539850011
181.352,255.437122377
181.367,255.333830884
181.382,255.229975905
181.397,255.125557941
181.412,255.020577632
181.427,254.915035761
181.442,254.808933257
181.457,254.702271204
181.472,254.595050843
181.487,254.487273582
181.502,254.378941
181.517,254.270054851
181.532,254.160617075
181.547,254.050629799
181.562,253.940095349
181.577,253.829016251
181.592,253.717395241
181.607,253.605235272
181.622,253.49253952
181.637,253.379311391
181.652,253.265554527
181.667,253.151272817
181.682,253.0364704
181.697,252.921151677
181.712,252.805321314
181.727,252.688984255
181.742,252.572145726
181.757,252.454811244
181.772,252.336986625
181.787,252.218677996
181.802,252.099891798
181.817,251.980634798
181.832,251.860914097
181.847,251.740737138
181.862,251.620111717
181.877,251.499045989
181.892,251.37754848
181.907,251.255628095
181.922,251.133294128
181.937,251.01055627
181.952,250.887424619
181.967,250.76390969
181.982,250.640022424
181.997,250.515774199
182.012,250.391176836
182.027,250.266242611
182.042,250.140984264
182.057,250.015415009
182.06,249.990265046
182.072,249.88954854
182.087,249.763399043
182.102,249.636981203
182.117,249.510310212
182.132,249.38340178
182.147,249.256272139
182.162,249.128938049
182.177,249.00141681
182.192,248.873726264
182.207,248.745884799
182.222,248.617911356
182.237,248.489825432
182.252,248.361647079
182.267,248.233396908
182.282,248.105096088
182.297,247.976766341
182.312,247.848429941
182.327,247.720109706
182.342,247.591828988
182.357,247.463611666
182.372,247.335482126
182.387,247.207465249
182.402,247.079586384
182.417,246.951871326
182.432,246.824346284
182.447,246.697037847
182.462,246.569972939
182.477,246.443178773
182.492,246.316682797
182.507,246.190512623
182.522,246.064695961
182.537,245.939260527
182.552,245.814233954
182.567,245.689643675
182.582,245.565516801
182.597,245.441879978
182.612,245.318759224
182.627,245.196179741
182.642,245.074165711
182.657,244.952740048
182.672,244.83192413
182.687,244.711737484
182.702,244.592197433
182.717,244.473318683
182.732,244.355112859
182.747,244.237587965
182.762,244.120747765
182.777,244.004591067
182.792,243.889110891
182.807,243.774293507
182.822,243.660117302
182.837,243.546551456
182.852,243.433554385
182.867,243.321071888
182.882,243.209034943
182.897,243.097357067
182.912,242.985931125
182.927,242.874625453
182.942,242.76327911
182.957,242.65169601
182.972,242.539637615
182.987,242.426813724
183.002,242.312870784
183.017,242.197376842
183.032,242.079801994
183.047,241.959492632
183.062,241.835637115
183.077,241.70721936
183.092,241.572955224
183.107,241.431204031
183.122,241.279843627
183.137,241.11609118
183.152,240.936241964
183.167,240.735282158
183.182,240.506304986
183.197,240.239614956
183.212,239.92133158
183.227,239.531190935
183.242,239.039121348
183.257,238.400372638
183.367,238.560305671
183.382,239.152298993
183.397,239.610677043
183.412,239.975945624
183.427,240.275275553
183.442,240.527041083
183.457,240.74388966
183.472,240.93470021
183.487,241.105828806
183.502,241.261910834
183.517,241.406386148
183.532,241.541848867
183.547,241.67028439
183.562,241.793232672
183.577,241.911902515
183.592,242.027252832
183.607,242.140051279
183.622,242.250917198
183.637,242.360353486
183.652,242.46877058
183.667,242.576504731
183.682,242.683832096
183.697,242.790979738
183.712,242.898134295
183.727,243.005448886
183.742,243.113048666
183.757,243.221035336
183.772,243.329490824
183.787,243.438480325
183.802,243.548054824
183.817,243.658253197
183.832,243.769103989
183.847,243.880626902
183.862,243.992834071
183.877,244.105731145
183.892,244.219318218
183.907,244.333590625
183.922,244.448539636
183.937,244.56415305
183.952,244.680415715
183.967,244.797309977
183.982,244.914816079
183.997,245.0329125
184.012,245.151576261
184.027,245.270783184
184.042,245.390508128
184.057,245.510725191
184.072,245.631407889
184.087,245.752529312
184.102,245.874062263
184.117,245.995979381
184.132,246.118253242
184.147,246.240856457
184.162,246.363761752
184.177,246.486942035
184.192,246.610370467
184.207,246.734020504
184.222,246.857865953
184.237,246.981881007
184.252,247.106040279
184.267,247.230318833
184.282,247.354692206
184.297,247.479136431
184.312,247.603628051
184.327,247.728144131
184.342,247.852662274
184.357,247.977160622
184.372,248.101617867
184.387,248.226013251
184.402,248.350326569
184.417,248.474538169
184.432,248.59862895
184.447,248.722580361
184.462,248.846374396
184.477,248.969993588
184.492,249.093421007
184.507,249.216640253
184.522,249.339635445
184.537,249.46239122
184.552,249.58489272
184.56,249.650117906
184.567,249.707125587
184.582,249.829075955
184.597,249.950730436
184.612,250.072076118
184.627,250.19310055
184.642,250.313791739
184.657,250.434138134
184.672,250.554128619
184.687,250.673752507
184.702,250.792999525
184.717,250.91185981
184.732,251.030323894
184.747,251.148382698
184.762,251.266027525
184.777,251.383250044
184.792,251.500042287
184.807,251.616396639
184.822,251.732305824
184.837,251.847762904
184.852,251.962761265
184.867,252.077294609
184.882,252.191356948
184.897,252.304942594
184.912,252.418046149
184.927,252.530662502
184.942,252.642786817
184.957,252.754414525
184.972,252.865541319
184.987,252.976163146
185.002,253.086276198
185.017,253.195876905
185.032,253.304961932
185.047,253.413528166
185.062,253.521572712
185.077,253.629092888
185.092,253.736086217
185.107,253.84255042
185.122,253.948483409
185.137,254.053883284
185.152,254.158748325
185.167,254.263076986
185.182,254.36686789
185.197,254.470119822
185.212,254.572831725
185.227,254.675002695
185.242,254.776631973
185.257,254.877718943
185.272,254.978263125
185.287,255.07826417
185.302,255.177721857
185.31,255.230543745
185.317,255.276636087
185.332,255.375006875
185.347,255.472834354
185.362,255.570118761
185.377,255.66686044
185.392,255.763059833
185.407,255.858717478
185.422,255.953834004
185.437,256.048410129
185.452,256.142446653
185.467,256.235944457
185.482,256.328904497
185.497,256.421327804
185.512,256.513215474
185.527,256.604568672
185.542,256.695388624
185.557,256.785676614
185.572,256.875433983
185.587,256.964662122
185.602,257.053362475
185.617,257.141536529
185.632,257.229185817
185.647,257.31631191
185.662,257.402916419
185.677,257.489000989
185.692,257.574567299
185.707,257.659617055
185.722,257.744151993
185.737,257.828173872
185.752,257.911684476
185.767,257.994685607
185.782,258.077179085
185.797,258.159166748
185.812,258.240650445
185.827,258.321632039
185.842,258.402113401
185.857,258.48209641
185.872,258.561582951
185.887,258.640574913
185.902,258.719074188
185.917,258.797082667
185.932,258.874602241
185.947,258.951634797
185.96,259.018003859
185.962,259.028182219
185.977,259.104246385
185.992,259.179829165
186.007,259.254932422
186.022,259.329558006
186.037,259.403707759
186.052,259.477383509
186.06,259.516484054
186.067,259.550587069
186.082,259.623320241
186.097,259.695584808
186.112,259.767382536
186.127,259.838715175
186.142,259.909584455
186.157,259.979992086
186.172,260.049939757
186.187,260.119429136
186.202,260.188461871
186.217,260.257039583
186.232,260.325163873
186.247,260.392836314
186.262,260.460058458
186.277,260.526831829
186.292,260.593157926
186.307,260.659038221
186.322,260.72447416
186.337,260.78946716
186.352,260.854018613
186.367,260.91812988
186.382,260.981802297
186.397,261.045037167
186.412,261.107835769
186.427,261.170199349
186.442,261.232129127
186.457,261.293626291
186.472,261.354692002
186.487,261.415327391
186.502,261.475533556
186.517,261.535311572
186.532,261.594662479
186.547,261.653587289
186.562,261.712086986
186.577,261.770162525
186.592,261.827814829
186.607,261.885044795
186.622,261.941853289
186.637,261.998241149
186.652,262.054209187
186.667,262.109758183
186.682,262.164888892
186.697,262.21960204
186.71,262.266682883
186.712,262.273898328
186.727,262.327778426
186.742,262.381242981
186.757,262.434292612
186.772,262.486927913
186.787,262.539149454
186.802,262.590957776
186.817,262.6423534
186.832,262.693336819
186.847,262.743908506
186.862,262.794068907
186.877,262.84381845
186.892,262.893157536
186.907,262.942086548
186.922,262.990605846
186.937,263.03871577
186.952,263.08641664
186.967,263.133708757
186.982,263.180592401
186.997,263.227067838
187.012,263.273135311
187.027,263.318795051
187.042,263.364047267
187.057,263.408892157
187.072,263.453329901
187.087,263.497360664
187.102,263.540984599
187.117,263.584201843
187.132,263.627012523
187.147,263.66941675
187.162,263.711414626
187.177,263.753006241
187.192,263.794191676
187.207,263.834971
187.222,263.875344274
187.237,263.91531155
187.252,263.954872874
187.267,263.994028282
187.282,264.032777805
187.297,264.071121467
187.312,264.109059287
187.327,264.146591279
187.342,264.183717453
187.357,264.220437815
187.372,264.256752369
187.387,264.292661114
187.402,264.328164052
187.417,264.363261177
187.432,264.397952489
187.447,264.432237982
187.46,264.461623814
187.462,264.466117656
187.477,264.499591507
187.492,264.532659536
187.507,264.565321744
187.522,264.597578136
187.537,264.62942872
187.552,264.660873506
187.567,264.691912511
187.582,264.722545754
187.597,264.75277326
187.612,264.782595061
187.627,264.812011194
187.642,264.841021703
187.657,264.869626637
187.672,264.897826056
187.687,264.925620027
187.702,264.953008622
187.717,264.979991927
187.732,265.006570034
187.747,265.032743045
187.762,265.058511073
187.777,265.08387424
187.792,265.108832681
187.807,265.133386539
187.822,265.157535971
187.837,265.181281145
187.852,265.204622241
187.867,265.227559453
187.882,265.250092985
187.897,265.272223056
187.912,265.293949898
187.927,265.315273756
187.942,265.336194892
187.957,265.356713576
187.972,265.3768301
187.987,265.396544765
188.002,265.41585789
188.017,265.434769806
188.032,265.453280863
188.047,265.471391424
188.062,265.489101869
188.077,265.506412594
188.092,265.523324009
188.107,265.539836544
188.122,265.555950641
188.137,265.571666763
188.152,265.586985386
188.167,265.601907004
188.182,265.616432128
188.197,265.630561287
188.21,265.642486688
188.212,265.644295027
188.227,265.657633908
188.242,265.670578511
188.257,265.683129432
188.272,265.695287287
188.287,265.707052706
188.302,265.718426339
188.317,265.729408852
188.332,265.740000931
188.347,265.750203275
188.362,265.760016606
188.377,265.76944166
188.392,265.778479191
188.407,265.787129971
188.422,265.795394791
188.437,265.803274456
188.452,265.810769792
188.467,265.817881639
188.482,265.824610858
188.497,265.830958327
188.512,265.836924937
188.527,265.8425116
188.542,265.847719245
188.557,265.852548816
188.572,265.857001277
188.587,265.861077605
188.602,265.864778797
188.617,265.868105866
188.632,265.87105984
188.647,265.873641766
188.66,265.875579308
188.662,265.875852704
188.677,265.877693733
188.692,265.879165948
188.707,265.880270458
188.722,265.881008389
188.737,265.881380883
