# 48698 WSSS Singapore Observations at 12Z 16 Nov 2019
Frequency [GHz],TB
175.31,272.942039416
175.322,272.920717454
175.337,272.894010946
175.352,272.867244235
175.367,272.840417169
175.382,272.813529594
175.397,272.786581357
175.412,272.759572305
175.427,272.732502282
175.442,272.705371134
175.457,272.678178705
175.472,272.65092484
175.487,272.623609382
175.502,272.596232175
175.517,272.56879306
175.532,272.54129188
175.547,272.513728477
175.562,272.486102692
175.577,272.458414366
175.592,272.430663338
175.607,272.402849448
175.622,272.374972535
175.637,272.347032439
175.652,272.319028997
175.667,272.290962046
175.682,272.262831425
175.697,272.234636968
175.712,272.206378513
175.727,272.178055895
175.742,272.149668949
175.757,272.12121751
175.772,272.092701411
175.787,272.064120486
175.802,272.035474567
175.817,272.006763488
175.832,271.97798708
175.847,271.949145174
175.862,271.920237602
175.877,271.891264193
175.892,271.862224777
175.907,271.833119183
175.922,271.803947239
175.937,271.774708775
175.952,271.745403617
175.967,271.716031592
175.982,271.686592527
175.997,271.657086248
176.012,271.627512579
176.027,271.597871345
176.042,271.568162371
176.057,271.538385479
176.072,271.508540494
176.087,271.478627236
176.102,271.448645529
176.117,271.418595193
176.132,271.388476048
176.147,271.358287915
176.162,271.328030613
176.177,271.297703961
176.192,271.267307776
176.207,271.236841877
176.222,271.206306081
176.237,271.175700203
176.252,271.145024059
176.267,271.114277464
176.282,271.083460232
176.297,271.052572178
176.31,271.025745099
176.312,271.021613114
176.327,270.990582853
176.342,270.959481206
176.357,270.928307984
176.372,270.897062998
176.387,270.865746057
176.402,270.83435697
176.417,270.802895546
176.432,270.771361592
176.447,270.739754915
176.46,270.712303487
176.462,270.708075322
176.477,270.676322616
176.492,270.644496604
176.507,270.612597089
176.522,270.580623874
176.537,270.548576761
176.552,270.516455553
176.567,270.48426005
176.582,270.451990052
176.597,270.419645358
176.612,270.387225767
176.627,270.354731076
176.642,270.322161082
176.657,270.289515582
176.672,270.25679437
176.687,270.22399724
176.702,270.191123987
176.717,270.158174401
176.732,270.125148275
176.747,270.0920454
176.762,270.058865566
176.777,270.02560856
176.792,269.992274172
176.807,269.958862187
176.822,269.925372392
176.837,269.891804572
176.852,269.858158511
176.867,269.824433991
176.882,269.790630795
176.897,269.756748704
176.912,269.722787496
176.927,269.688746952
176.942,269.654626848
176.957,269.62042696
176.972,269.586147065
176.987,269.551786936
177.002,269.517346347
177.017,269.482825069
177.032,269.448222872
177.047,269.413539527
177.062,269.378774801
177.077,269.343928461
177.092,269.309000273
177.107,269.273990001
177.122,269.238897407
177.137,269.203722254
177.152,269.168464301
177.167,269.133123308
177.182,269.09769903
177.197,269.062191226
177.21,269.03135004
177.212,269.026599647
177.227,268.990924048
177.242,268.95516418
177.257,268.919319792
177.272,268.883390633
177.287,268.847376449
177.302,268.811276984
177.31,268.791988978
177.317,268.775091983
177.332,268.738821185
177.347,268.702464332
177.362,268.666021161
177.377,268.629491408
177.392,268.592874807
177.407,268.55617109
177.422,268.519379988
177.437,268.48250123
177.452,268.445534541
177.467,268.408479647
177.482,268.371336269
177.497,268.334104128
177.512,268.296782941
177.527,268.259372425
177.542,268.221872294
177.557,268.184282258
177.572,268.146602026
177.587,268.108831306
177.602,268.070969801
177.617,268.033017213
177.632,267.994973242
177.647,267.956837584
177.66,267.923712279
177.662,267.918609933
177.677,267.880289981
177.692,267.841877415
177.707,267.803371923
177.722,267.764773187
177.737,267.726080888
177.752,267.687294702
177.767,267.648414304
177.782,267.609439365
177.797,267.570369553
177.812,267.531204533
177.827,267.491943967
177.842,267.452587514
177.857,267.413134827
177.872,267.373585558
177.887,267.333939356
177.902,267.294195866
177.917,267.254354727
177.932,267.214415577
177.947,267.17437805
177.96,267.139598996
177.962,267.134241774
177.977,267.094006375
177.992,267.053671475
178.007,267.01323669
178.022,266.972701635
178.037,266.932065918
178.052,266.891329143
178.067,266.850490911
178.082,266.809550817
178.097,266.768508453
178.112,266.727363404
178.127,266.686115251
178.142,266.644763573
178.157,266.603307939
178.172,266.561747916
178.187,266.520083067
178.202,266.478312947
178.217,266.436437106
178.232,266.394455089
178.247,266.352366437
178.262,266.310170683
178.277,266.267867354
178.292,266.225455974
178.307,266.182936058
178.322,266.140307116
178.337,266.097568651
178.352,266.05472016
178.367,266.011761135
178.382,265.968691059
178.397,265.925509409
178.41,265.887994652
178.412,265.882215656
178.427,265.838809262
178.442,265.795289684
178.457,265.75165637
178.472,265.707908763
178.487,265.664046294
178.502,265.620068391
178.517,265.575974471
178.532,265.531763944
178.547,265.487436212
178.562,265.442990668
178.577,265.398426698
178.592,265.353743677
178.607,265.308940973
178.622,265.264017945
178.637,265.218973941
178.652,265.173808302
178.667,265.128520359
178.682,265.083109431
178.697,265.03757483
178.712,264.991915858
178.727,264.946131804
178.742,264.900221949
178.757,264.854185563
178.772,264.808021904
178.787,264.761730221
178.802,264.715309751
178.817,264.668759718
178.832,264.622079337
178.847,264.57526781
178.862,264.528324327
178.877,264.481248065
178.892,264.434038191
178.907,264.386693856
178.922,264.3392142
178.937,264.291598351
178.952,264.243845421
178.967,264.195954512
178.982,264.147924707
178.997,264.09975508
179.012,264.051444689
179.027,264.002992575
179.042,263.954397768
179.057,263.905659281
179.072,263.856776112
179.087,263.807747243
179.102,263.75857164
179.117,263.709248255
179.132,263.65977602
179.147,263.610153854
179.16,263.567025848
179.162,263.560380656
179.177,263.51045531
179.192,263.460376681
179.207,263.410143618
179.222,263.359754949
179.237,263.309209487
179.252,263.258506022
179.267,263.20764333
179.282,263.156620163
179.297,263.105435256
179.312,263.054087324
179.327,263.002575061
179.342,262.95089714
179.357,262.899052212
179.372,262.84703891
179.387,262.794855843
179.402,262.742501597
179.417,262.689974738
179.432,262.637273808
179.447,262.584397324
179.462,262.531343784
179.477,262.478111659
179.492,262.424699395
179.507,262.371105416
179.522,262.317328119
179.537,262.263365876
179.552,262.209217034
179.567,262.154879913
179.582,262.100352806
179.597,262.04563398
179.612,261.990721673
179.627,261.935614097
179.642,261.880309435
179.657,261.824805841
179.672,261.769101439
179.687,261.713194324
179.702,261.657082562
179.717,261.600764187
179.732,261.544237201
179.747,261.487499579
179.762,261.430549258
179.777,261.373384147
179.792,261.31600212
179.807,261.258401018
179.822,261.200578648
179.837,261.142532784
179.852,261.084261162
179.867,261.025761486
179.882,260.967031421
179.897,260.908068597
179.91,260.856777347
179.912,260.848870607
179.927,260.789435006
179.942,260.729759312
179.957,260.669841002
179.972,260.609677515
179.987,260.549266251
180.002,260.488604568
180.017,260.427689785
180.032,260.366519178
180.047,260.30508998
180.062,260.243399384
180.077,260.181444536
180.092,260.119222542
180.107,260.056730461
180.122,259.993965306
180.137,259.930924048
180.152,259.867603606
180.167,259.804000856
180.182,259.740112626
180.197,259.675935694
180.212,259.611466788
180.227,259.54670259
180.242,259.481639728
180.257,259.416274781
180.272,259.350604274
180.287,259.284624682
180.302,259.218332425
180.317,259.15172387
180.332,259.08479533
180.347,259.01754306
180.362,258.949963262
180.377,258.882052079
180.392,258.813805598
180.407,258.745219847
180.422,258.676290795
180.437,258.607014351
180.452,258.537386364
180.467,258.467402622
180.482,258.39705885
180.497,258.326350711
180.512,258.255273804
180.527,258.183823665
180.542,258.111995762
180.557,258.0397855
180.56,258.025297156
180.572,257.967188217
180.587,257.894199183
180.602,257.820813598
180.617,257.747026597
180.632,257.672833243
180.647,257.598228528
180.66,257.53323444
180.662,257.523207374
180.677,257.447764631
180.692,257.371895076
180.707,257.295593412
180.722,257.218854269
180.737,257.141672201
180.752,257.064041686
180.767,256.985957128
180.782,256.907412852
180.797,256.828403106
180.812,256.748922058
180.827,256.668963798
180.842,256.588522338
180.857,256.507591607
180.872,256.426165455
180.887,256.344237649
180.902,256.261801875
180.917,256.178851736
180.932,256.095380752
180.947,256.01138236
180.962,255.92684991
180.977,255.841776673
180.992,255.75615583
181.007,255.669980481
181.022,255.583243637
181.037,255.495938226
181.052,255.408057088
181.067,255.319592981
181.082,255.230538571
181.097,255.140886444
181.112,255.050629095
181.127,254.959758937
181.142,254.868268294
181.157,254.776149407
181.172,254.683394431
181.187,254.589995434
181.202,254.495944403
181.217,254.40123324
181.232,254.305853763
181.247,254.209797708
181.262,254.113056731
181.277,254.015622406
181.292,253.917486228
181.307,253.818639614
181.31,253.798784278
181.322,253.719073904
181.337,253.618780362
181.352,253.51775018
181.367,253.415974476
181.382,253.313444299
181.397,253.21015063
181.412,253.106084385
181.427,253.001236414
181.442,252.89559751
181.457,252.789158403
181.472,252.681909774
181.487,252.573842246
181.502,252.464946398
181.517,252.355212762
181.532,252.24463183
181.547,252.133194055
181.562,252.020889859
181.577,251.907709636
181.592,251.793643756
181.607,251.678682569
181.622,251.562816416
181.637,251.446035626
181.652,251.328330532
181.667,251.209691468
181.682,251.090108781
181.697,250.969572836
181.712,250.848074025
181.727,250.725602773
181.742,250.602149547
181.757,250.477704862
181.772,250.352259294
181.787,250.225803486
181.802,250.098328159
181.817,249.96982412
181.832,249.840282278
181.847,249.709693647
181.862,249.578049363
181.877,249.445340697
181.892,249.311559061
181.907,249.17669603
181.922,249.040743346
181.937,248.90369294
181.952,248.765536944
181.967,248.626267705
181.982,248.485877804
181.997,248.34436007
182.012,248.201707601
182.027,248.057913778
182.042,247.912972288
182.057,247.766877145
182.06,247.737519175
182.072,247.619622706
182.087,247.471203698
182.102,247.321615239
182.117,247.170852863
182.132,247.018912545
182.147,246.865790729
182.162,246.711484359
182.177,246.555990901
182.192,246.399308385
182.207,246.241435432
182.222,246.082371292
182.237,245.922115884
182.252,245.760669832
182.267,245.598034514
182.282,245.434212106
182.297,245.269205631
182.312,245.103019013
182.327,244.935657137
182.342,244.767125907
182.357,244.597432316
182.372,244.426584519
182.387,244.254591906
182.402,244.081465194
182.417,243.907216514
182.432,243.731859514
182.447,243.555409464
182.462,243.377883377
182.477,243.199300138
182.492,243.019680639
182.507,242.839047936
182.522,242.657427413
182.537,242.474846958
182.552,242.291337166
182.567,242.106931544
182.582,241.921666744
182.597,241.735582817
182.612,241.548723479
182.627,241.361136405
182.642,241.172873552
182.657,240.983991491
182.672,240.794551786
182.687,240.604621382
182.702,240.414273035
182.717,240.223585762
182.732,240.032645331
182.747,239.841544775
182.762,239.650384939
182.777,239.459275062
182.792,239.268333388
182.807,239.077687808
182.822,238.88747653
182.837,238.697848784
182.852,238.508965543
182.867,238.321000274
182.882,238.134139707
182.897,237.948584616
182.912,237.764550615
182.927,237.582268955
182.942,237.401987313
182.957,237.223970577
182.972,237.048501605
182.987,236.875881943
183.002,236.706432504
183.017,236.540494162
183.032,236.378428266
183.047,236.22061701
183.062,236.067463644
183.077,235.919392443
183.092,235.776848372
183.107,235.640296337
183.122,235.51021989
183.137,235.387119226
183.152,235.271508272
183.167,235.163910642
183.182,235.064854224
183.197,234.974864202
183.212,234.89445436
183.227,234.824116667
183.242,234.764309334
183.257,234.715443796
183.367,234.7124445
183.382,234.760363846
183.397,234.819140539
183.412,234.888352393
183.427,234.96753349
183.442,235.056186988
183.457,235.153796705
183.472,235.259837127
183.487,235.373781682
183.502,235.495109331
183.517,235.623309641
183.532,235.75788654
183.547,235.898361014
183.562,236.044272928
183.577,236.195182201
183.592,236.350669451
183.607,236.510336268
183.622,236.673805194
183.637,236.840719483
183.652,237.010742701
183.667,237.18355821
183.682,237.35886855
183.697,237.536394772
183.712,237.715875704
183.727,237.897067201
183.742,238.079741363
183.757,238.263685749
183.772,238.448702581
183.787,238.634607962
183.802,238.821231097
183.817,239.00841353
183.832,239.196008406
183.847,239.383879752
183.862,239.571901782
183.877,239.759958238
183.892,239.947941749
183.907,240.135753231
183.922,240.323301314
183.937,240.510501798
183.952,240.697277145
183.967,240.883556001
183.982,241.069272742
183.997,241.25436706
184.012,241.438783567
184.027,241.622471434
184.042,241.805384053
184.057,241.98747872
184.072,242.168716348
184.087,242.349061197
184.102,242.528480628
184.117,242.706944872
184.132,242.884426823
184.147,243.060901842
184.162,243.236347579
184.177,243.410743808
184.192,243.584072281
184.207,243.756316582
184.222,243.927462009
184.237,244.097495446
184.252,244.266405265
184.267,244.434181221
184.282,244.600814363
184.297,244.766296948
184.312,244.930622368
184.327,245.093785071
184.342,245.255780499
184.357,245.416605029
184.372,245.576255909
184.387,245.73473121
184.402,245.892029778
184.417,246.048151182
184.432,246.203095678
184.447,246.356864163
184.462,246.509458142
184.477,246.660879689
184.492,246.811131417
184.507,246.960216445
184.522,247.108138366
184.537,247.254901226
184.552,247.400509491
184.56,247.477696795
184.567,247.544968024
184.582,247.688282064
184.597,247.830457198
184.612,247.971499344
184.627,248.111414731
184.642,248.250209875
184.657,248.387891564
184.672,248.52446684
184.687,248.65994298
184.702,248.794327482
184.717,248.927628048
184.732,249.059852571
184.747,249.191009119
184.762,249.32110592
184.777,249.450151353
184.792,249.578153934
184.807,249.705122301
184.822,249.831065209
184.837,249.95599151
184.852,250.079910152
184.867,250.202830163
184.882,250.324760642
184.897,250.445710754
184.912,250.565689716
184.927,250.684706791
184.942,250.80277128
184.957,250.919892515
184.972,251.03607985
184.987,251.151342658
185.002,251.265690317
185.017,251.379132211
185.032,251.491677722
185.047,251.603336223
185.062,251.714117073
185.077,251.824029613
185.092,251.933083159
185.107,252.041287
185.122,252.148650394
185.137,252.25518256
185.152,252.360892678
185.167,252.465789885
185.182,252.569883268
185.197,252.673181866
185.212,252.775694664
185.227,252.87743059
185.242,252.978398515
185.257,253.078607245
185.272,253.178065526
185.287,253.276782037
185.302,253.37476539
185.31,253.426726349
185.317,253.472024125
185.332,253.568566714
185.347,253.664401556
185.362,253.759536973
185.377,253.853981215
185.392,253.947742455
185.407,254.040828786
185.422,254.133248226
185.437,254.225008713
185.452,254.316118102
185.467,254.406584171
185.482,254.496414617
185.497,254.585617051
185.512,254.674199008
185.527,254.762167937
185.542,254.849531205
185.557,254.936296097
185.572,255.022469815
185.587,255.108059479
185.602,255.193072126
185.617,255.277514709
185.632,255.3613941
185.647,255.44471709
185.662,255.527490384
185.677,255.609720609
185.692,255.691414309
185.707,255.772577946
185.722,255.853217904
185.737,255.933340483
185.752,256.012951907
185.767,256.092058318
185.782,256.17066578
185.797,256.248780279
185.812,256.326407723
185.827,256.403553943
185.842,256.480224692
185.857,256.55642565
185.872,256.632162419
185.887,256.707440528
185.902,256.78226543
185.917,256.856642508
185.932,256.930577069
185.947,257.00407435
185.96,257.067422277
185.962,257.077139516
185.977,257.149777663
185.992,257.221993814
186.007,257.293792926
186.022,257.365179887
186.037,257.436159516
186.052,257.506736567
186.06,257.544214671
186.067,257.576915726
186.082,257.646701615
186.097,257.716098791
186.112,257.785111748
186.127,257.853744915
186.142,257.92200266
186.157,257.989889289
186.172,258.057409046
186.187,258.124566117
186.202,258.191364628
186.217,258.257808644
186.232,258.323902174
186.247,258.389649171
186.262,258.455053529
186.277,258.520119087
186.292,258.584849629
186.307,258.649248885
186.322,258.713320532
186.337,258.777068192
186.352,258.840495436
186.367,258.903605783
186.382,258.966402702
186.397,259.028889611
186.412,259.091069879
186.427,259.152946824
186.442,259.214523719
186.457,259.275803788
186.472,259.336790207
186.487,259.397486107
186.502,259.457894573
186.517,259.518018645
186.532,259.577861319
186.547,259.637425547
186.562,259.696714237
186.577,259.755730255
186.592,259.814476426
186.607,259.872955532
186.622,259.931170315
186.637,259.989123476
186.652,260.046817679
186.667,260.104255544
186.682,260.161439658
186.697,260.218372566
186.71,260.267513162
186.712,260.275056777
186.727,260.331494763
186.742,260.38768896
186.757,260.443641767
186.772,260.499355549
186.787,260.554832635
186.802,260.61007532
186.817,260.665085866
186.832,260.719866501
186.847,260.77441942
186.862,260.828746785
186.877,260.882850727
186.892,260.936733347
186.907,260.990396711
186.922,261.043842859
186.937,261.097073798
186.952,261.150091506
186.967,261.202897932
186.982,261.255494997
186.997,261.307884592
187.012,261.360068582
187.027,261.412048802
187.042,261.463827064
187.057,261.515405148
187.072,261.566784812
187.087,261.617967787
187.102,261.668955777
187.117,261.719750463
187.132,261.7703535
187.147,261.820766519
187.162,261.870991127
187.177,261.921028908
187.192,261.970881422
187.207,262.020550205
187.222,262.070036773
187.237,262.119342618
187.252,262.168469212
187.267,262.217418002
187.282,262.266190417
187.297,262.314787865
187.312,262.363211731
187.327,262.411463382
187.342,262.459544165
187.357,262.507455406
187.372,262.555198413
187.387,262.602774475
187.402,262.650184861
187.417,262.697430823
187.432,262.744513594
187.447,262.79143439
187.46,262.831968986
187.462,262.838194408
187.477,262.884794831
187.492,262.931236821
187.507,262.977521525
187.522,263.023650074
187.537,263.069623583
187.552,263.115443149
187.567,263.161109857
187.582,263.206624772
187.597,263.251988948
187.612,263.297203421
187.627,263.342269214
187.642,263.387187335
187.657,263.431958779
187.672,263.476584525
187.687,263.521065538
187.702,263.565402772
187.717,263.609597167
187.732,263.653649647
187.747,263.697561127
187.762,263.741332506
187.777,263.784964674
187.792,263.828458506
187.807,263.871814865
187.822,263.915034604
187.837,263.958118563
187.852,264.00106757
187.867,264.043882444
187.882,264.08656399
187.897,264.129113004
187.912,264.171530271
187.927,264.213816564
187.942,264.255972649
187.957,264.297999277
187.972,264.339897194
187.987,264.381667132
188.002,264.423309815
188.017,264.464825958
188.032,264.506216266
188.047,264.547481436
188.062,264.588622153
188.077,264.629639095
188.092,264.670532932
188.107,264.711304324
188.122,264.751953924
188.137,264.792482374
188.152,264.832890311
188.167,264.873178362
188.182,264.913347146
188.197,264.953397276
188.21,264.988011877
188.212,264.993329355
188.227,265.03314398
188.242,265.072841741
188.257,265.11242322
188.272,265.15188899
188.287,265.191239622
188.302,265.230475674
188.317,265.269597703
188.332,265.308606254
188.347,265.34750187
188.362,265.386285085
188.377,265.424956428
188.392,265.463516419
188.407,265.501965577
188.422,265.54030441
188.437,265.578533423
188.452,265.616653114
188.467,265.654663976
188.482,265.692566495
188.497,265.730361155
188.512,265.76804843
188.527,265.805628792
188.542,265.843102706
188.557,265.880470633
188.572,265.917733029
188.587,265.954890345
188.602,265.991943025
188.617,266.028891511
188.632,266.06573624
188.647,266.102477643
188.66,266.134236943
188.662,266.139116147
188.677,266.175652175
188.692,266.212086146
188.707,266.248418473
188.722,266.284649566
188.737,266.320779831
