# 48698 WSSS Singapore Observations at 12Z 26 Aug 2020
Frequency [GHz],TB
175.31,273.931701373
175.322,273.908714879
175.337,273.879908393
175.352,273.851020094
175.367,273.822049673
175.382,273.792996808
175.397,273.763861178
175.412,273.734642466
175.427,273.705340348
175.442,273.675954498
175.457,273.646484589
175.472,273.616930292
175.487,273.587291273
175.502,273.557567205
175.517,273.527757748
175.532,273.497862568
175.547,273.467881325
175.562,273.437813676
175.577,273.407659277
175.592,273.377417787
175.607,273.347088855
175.622,273.316672134
175.637,273.286167269
175.652,273.255573909
175.667,273.224891697
175.682,273.194120275
175.697,273.163259282
175.712,273.132308358
175.727,273.101267134
175.742,273.070135249
175.757,273.038912328
175.772,273.007598003
175.787,272.976191899
175.802,272.944693642
175.817,272.913102853
175.832,272.88141915
175.847,272.849642154
175.862,272.817771476
175.877,272.785806734
175.892,272.753747532
175.907,272.721593482
175.922,272.689344188
175.937,272.656999256
175.952,272.624558284
175.967,272.592020871
175.982,272.559386615
175.997,272.526655109
176.012,272.493825944
176.027,272.460898705
176.042,272.427872985
176.057,272.394748363
176.072,272.361524424
176.087,272.328200743
176.102,272.294776899
176.117,272.261252464
176.132,272.227627012
176.147,272.19390011
176.162,272.160071322
176.177,272.126140215
176.192,272.092106347
176.207,272.057969281
176.222,272.023728568
176.237,271.98938376
176.252,271.954934413
176.267,271.920380072
176.282,271.885720279
176.297,271.850954581
176.31,271.820738289
176.312,271.816082516
176.327,271.78110362
176.342,271.746017427
176.357,271.710823472
176.372,271.675521277
176.387,271.640110373
176.402,271.604590281
176.417,271.568960522
176.432,271.533220613
176.447,271.497370069
176.46,271.46620973
176.462,271.461408403
176.477,271.425335122
176.492,271.389149732
176.507,271.352851735
176.522,271.316440635
176.537,271.279915927
176.552,271.243277103
176.567,271.206523658
176.582,271.169655079
176.597,271.132670851
176.612,271.095570459
176.627,271.058353378
176.642,271.021019089
176.657,270.983567062
176.672,270.945996768
176.687,270.908307678
176.702,270.870499251
176.717,270.832570949
176.732,270.794522233
176.747,270.756352559
176.762,270.718061373
176.777,270.679648127
176.792,270.641112267
176.807,270.602453233
176.822,270.56367047
176.837,270.524763407
176.852,270.485731481
176.867,270.44657412
176.882,270.407290749
176.897,270.367880794
176.912,270.328343674
176.927,270.288678806
176.942,270.248885602
176.957,270.208963473
176.972,270.168911826
176.987,270.128730062
177.002,270.088417583
177.017,270.047973788
177.032,270.007398065
177.047,269.966689809
177.062,269.925848404
177.077,269.884873234
177.092,269.843763681
177.107,269.802519117
177.122,269.761138918
177.137,269.719622454
177.152,269.677969089
177.167,269.636178189
177.182,269.594249109
177.197,269.552181207
177.21,269.515609569
177.212,269.509973838
177.227,269.467626349
177.242,269.425138083
177.257,269.382508383
177.272,269.339736591
177.287,269.296822038
177.302,269.253764056
177.31,269.230740921
177.317,269.210561973
177.332,269.167215114
177.347,269.123722798
177.362,269.080084343
177.377,269.036299064
177.392,268.99236627
177.407,268.948285268
177.422,268.904055357
177.437,268.859675842
177.452,268.815146015
177.467,268.770465168
177.482,268.725632592
177.497,268.680647568
177.512,268.635509382
177.527,268.590217308
177.542,268.544770621
177.557,268.499168591
177.572,268.453410485
177.587,268.407495569
177.602,268.361423097
177.617,268.315192327
177.632,268.268802514
177.647,268.222252903
177.66,268.181780068
177.662,268.175542742
177.677,268.12867127
177.692,268.081637726
177.707,268.034441343
177.722,267.987081352
177.737,267.939556979
177.752,267.89186745
177.767,267.844011981
177.782,267.795989791
177.797,267.74780009
177.812,267.699442089
177.827,267.650914991
177.842,267.602217999
177.857,267.553350311
177.872,267.504311123
177.887,267.455099622
177.902,267.405714999
177.917,267.356156435
177.932,267.306423112
177.947,267.256514207
177.96,267.213117157
177.962,267.206428893
177.977,267.156166339
177.992,267.105725713
178.007,267.055106176
178.022,267.004306889
178.037,266.953327006
178.052,266.902165682
178.067,266.850822064
178.082,266.799295299
178.097,266.74758453
178.112,266.695688894
178.127,266.643607529
178.142,266.591339565
178.157,266.538884135
178.172,266.486240362
178.187,266.43340737
178.202,266.380384277
178.217,266.327170203
178.232,266.273764258
178.247,266.220165554
178.262,266.166373196
178.277,266.11238629
178.292,266.058203939
178.307,266.003825236
178.322,265.949249282
178.337,265.894475165
178.352,265.839501976
178.367,265.784328801
178.382,265.728954725
178.397,265.67337883
178.41,265.62504909
178.412,265.617600192
178.427,265.561617888
178.442,265.505430992
178.457,265.449038574
178.472,265.392439702
178.487,265.335633443
178.502,265.278618858
178.517,265.22139501
178.532,265.163960956
178.547,265.106315756
178.562,265.048458462
178.577,264.990388125
178.592,264.932103796
178.607,264.873604525
178.622,264.814889356
178.637,264.755957335
178.652,264.696807504
178.667,264.637438904
178.682,264.577850574
178.697,264.518041554
178.712,264.458010876
178.727,264.397757578
178.742,264.337280693
178.757,264.276579253
178.772,264.215652289
178.787,264.15449883
178.802,264.093117908
178.817,264.031508547
178.832,263.969669779
178.847,263.907600626
178.862,263.845300117
178.877,263.782767275
178.892,263.720001127
178.907,263.657000697
178.922,263.593765008
178.937,263.530293088
178.952,263.466583956
178.967,263.40263664
178.982,263.338450163
178.997,263.274023552
179.012,263.209355828
179.027,263.14444602
179.042,263.079293153
179.057,263.013896257
179.072,262.948254356
179.087,262.882366483
179.102,262.816231665
179.117,262.749848936
179.132,262.683217328
179.147,262.616335876
179.16,262.55816911
179.162,262.549203616
179.177,262.481819587
179.192,262.414182827
179.207,262.34629238
179.222,262.278147289
179.237,262.209746602
179.252,262.141089369
179.267,262.072174639
179.282,262.003001471
179.297,261.93356892
179.312,261.863876049
179.327,261.79392192
179.342,261.723705603
179.357,261.653226169
179.372,261.582482692
179.387,261.511474252
179.402,261.440199933
179.417,261.368658821
179.432,261.29685001
179.447,261.224772595
179.462,261.152425678
179.477,261.079808367
179.492,261.00691977
179.507,260.933759005
179.522,260.860325197
179.537,260.786617469
179.552,260.712634957
179.567,260.638376802
179.582,260.563842148
179.597,260.489030147
179.612,260.413939957
179.627,260.338570744
179.642,260.26292168
179.657,260.186991943
179.672,260.110780719
179.687,260.034287202
179.702,259.957510593
179.717,259.880450098
179.732,259.803104936
179.747,259.72547433
179.762,259.647557512
179.777,259.569353721
179.792,259.490862208
179.807,259.412082229
179.822,259.333013051
179.837,259.253653946
179.852,259.1740042
179.867,259.094063105
179.882,259.013829961
179.897,258.933304082
179.91,258.863277668
179.912,258.852484784
179.927,258.771371401
179.942,258.68996327
179.957,258.608259739
179.972,258.526260168
179.987,258.443963924
180.002,258.361370385
180.017,258.278478938
180.032,258.195288983
180.047,258.111799924
180.062,258.02801118
180.077,257.943922177
180.092,257.859532352
180.107,257.774841151
180.122,257.689848031
180.137,257.604552456
180.152,257.518953902
180.167,257.433051854
180.182,257.346845805
180.197,257.260335258
180.212,257.173519724
180.227,257.086398725
180.242,256.998971788
180.257,256.911238452
180.272,256.823198261
180.287,256.73485077
180.302,256.646195537
180.317,256.557232129
180.332,256.467960121
180.347,256.378379094
180.362,256.288488633
180.377,256.198288329
180.392,256.107777779
180.407,256.016956583
180.422,255.925824344
180.437,255.834380671
180.452,255.742625171
180.467,255.650557458
180.482,255.558177142
180.497,255.465483838
180.512,255.372477154
180.527,255.279156702
180.542,255.185522091
180.557,255.091572924
180.56,255.072745308
180.572,254.9973088
180.587,254.902729315
180.602,254.807834056
180.617,254.712622604
180.632,254.617094529
180.647,254.521249392
180.66,254.43792679
180.662,254.425086742
180.677,254.328606115
180.692,254.231807033
180.707,254.134689001
180.722,254.037251508
180.737,253.939494022
180.752,253.841415993
180.767,253.743016843
180.782,253.644295976
180.797,253.545252765
180.812,253.445886557
180.827,253.346196668
180.842,253.246182382
180.857,253.145842948
180.872,253.04517758
180.887,252.944185449
180.902,252.84286569
180.917,252.74121739
180.932,252.639239594
180.947,252.536931295
180.962,252.434291436
180.977,252.331318908
180.992,252.228012542
181.007,252.124371113
181.022,252.020393334
181.037,251.916077852
181.052,251.811423247
181.067,251.706428027
181.082,251.601090631
181.097,251.495409418
181.112,251.389382667
181.127,251.283008578
181.142,251.176285263
181.157,251.069210747
181.172,250.961782963
181.187,250.853999748
181.202,250.745858845
181.217,250.637357893
181.232,250.528494429
181.247,250.419265882
181.262,250.309669572
181.277,250.199702707
181.292,250.089362379
181.307,249.978645562
181.31,249.956456744
181.322,249.867549107
181.337,249.756069744
181.352,249.644204075
181.367,249.531948575
181.382,249.419299584
181.397,249.306253313
181.412,249.192805834
181.427,249.078953083
181.442,248.964690857
181.457,248.850014811
181.472,248.734920457
181.487,248.619403165
181.502,248.503458158
181.517,248.387080516
181.532,248.27026517
181.547,248.153006907
181.562,248.035300364
181.577,247.917140034
181.592,247.798520265
181.607,247.679435256
181.622,247.559879066
181.637,247.439845609
181.652,247.319328659
181.667,247.198321852
181.682,247.076818687
181.697,246.954812532
181.712,246.832296623
181.727,246.709264073
181.742,246.585707871
181.757,246.461620892
181.772,246.336995899
181.787,246.211825548
181.802,246.086102398
181.817,245.959818913
181.832,245.832967474
181.847,245.705540383
181.862,245.577529876
181.877,245.448928125
181.892,245.319727256
181.907,245.189919352
181.922,245.05949647
181.937,244.92845065
181.952,244.796773924
181.967,244.664458335
181.982,244.531495949
181.997,244.397878868
182.012,244.263599245
182.027,244.128649304
182.042,243.993021354
182.057,243.856707808
182.06,243.829362169
182.072,243.719701203
182.087,243.581994217
182.102,243.443579695
182.117,243.304450668
182.132,243.164600376
182.147,243.024022295
182.162,242.882710161
182.177,242.740657999
182.192,242.597860151
182.207,242.454311306
182.222,242.310006533
182.237,242.164941311
182.252,242.019111573
182.267,241.872513732
182.282,241.72514473
182.297,241.577002075
182.312,241.428083886
182.327,241.278388939
182.342,241.127916713
182.357,240.976667448
182.372,240.824642194
182.387,240.671842867
182.402,240.518272313
182.417,240.363934369
182.432,240.20883393
182.447,240.052977017
182.462,239.896370853
182.477,239.739023937
182.492,239.580946124
182.507,239.422148713
182.522,239.262644526
182.537,239.102448005
182.552,238.941575303
182.567,238.78004438
182.582,238.6178751
182.597,238.455089335
182.612,238.291711064
182.627,238.127766475
182.642,237.963284069
182.657,237.798294757
182.672,237.632831955
182.687,237.466931674
182.702,237.300632602
182.717,237.133976168
182.732,236.9670066
182.747,236.79977095
182.762,236.632319102
182.777,236.464703737
182.792,236.296980258
182.807,236.129206655
182.822,235.961443307
182.837,235.793752686
182.852,235.626198954
182.867,235.45884743
182.882,235.291763876
182.897,235.125013575
182.912,234.958660137
182.927,234.792763979
182.942,234.627380376
182.957,234.462556985
182.972,234.298330705
182.987,234.134723672
183.002,233.971738177
183.017,233.809350175
183.032,233.647500982
183.047,233.486086626
183.062,233.324944123
183.077,233.163833735
183.092,233.002415991
183.107,232.840221911
183.122,232.676614603
183.137,232.51074044
183.152,232.341468973
183.167,232.167324501
183.182,231.986423149
183.197,231.796458883
183.212,231.594858408
183.227,231.379415135
183.242,231.150146928
183.257,230.91385823
183.367,230.963113162
183.382,231.195499844
183.397,231.418146002
183.412,231.626631491
183.427,231.821791251
183.442,232.006026737
183.457,232.181869816
183.472,232.351518584
183.487,232.516744241
183.502,232.678924438
183.517,232.839109871
183.532,232.998091151
183.547,233.156455968
183.562,233.314635051
183.577,233.472938136
183.592,233.631581812
183.607,233.790710999
183.622,233.95041555
183.637,234.110743085
183.652,234.271708985
183.667,234.433304167
183.682,234.59550118
183.697,234.758258985
183.712,234.921526705
183.727,235.085246588
183.742,235.249356325
183.757,235.413790883
183.772,235.57848393
183.787,235.74336895
183.802,235.908380108
183.817,236.073452909
183.832,236.238524697
183.847,236.403535024
183.862,236.568425915
183.877,236.73314205
183.892,236.897630881
183.907,237.06184269
183.922,237.225730615
183.937,237.389250633
183.952,237.552361524
183.967,237.715024812
183.982,237.877204693
183.997,238.038867948
184.012,238.199983853
184.027,238.360524082
184.042,238.520462603
184.057,238.679775577
184.072,238.838441255
184.087,238.996439875
184.102,239.153753563
184.117,239.31036623
184.132,239.46626348
184.147,239.621432514
184.162,239.775862041
184.177,239.929542192
184.192,240.082464436
184.207,240.2346215
184.222,240.386007294
184.237,240.536616838
184.252,240.686446193
184.267,240.835492395
184.282,240.983753393
184.297,241.131227989
184.312,241.277915781
184.327,241.423817113
184.342,241.568933021
184.357,241.713265186
184.372,241.856815889
184.387,241.999587968
184.402,242.141584777
184.417,242.282810147
184.432,242.423268352
184.447,242.56296407
184.462,242.701902353
184.477,242.840088598
184.492,242.977528513
184.507,243.114228091
184.522,243.250193585
184.537,243.385431482
184.552,243.519948479
184.56,243.591398478
184.567,243.653751458
184.582,243.786847472
184.597,243.919243715
184.612,244.05094751
184.627,244.181966289
184.642,244.312307574
184.657,244.441978962
184.672,244.57098811
184.687,244.699342718
184.702,244.827050517
184.717,244.954119257
184.732,245.080556692
184.747,245.206370569
184.762,245.331568618
184.777,245.456158539
184.792,245.580147997
184.807,245.703544608
184.822,245.826355932
184.837,245.948589465
184.852,246.070252632
184.867,246.191352781
184.882,246.311897172
184.897,246.431892976
184.912,246.551347267
184.927,246.670267018
184.942,246.788659093
184.957,246.90653025
184.972,247.023887129
184.987,247.140736252
185.002,247.257084022
185.017,247.372936719
185.032,247.488300494
185.047,247.603181373
185.062,247.71758525
185.077,247.831517891
185.092,247.944984928
185.107,248.057991859
185.122,248.170544051
185.137,248.282646737
185.152,248.394305016
185.167,248.505523854
185.182,248.616308083
185.197,248.726662404
185.212,248.836591386
185.227,248.946099468
185.242,249.05519096
185.257,249.163870044
185.272,249.272140776
185.287,249.380007087
185.302,249.487472785
185.31,249.544625296
185.317,249.594541557
185.332,249.701216974
185.347,249.807502485
185.362,249.91340143
185.377,250.018917032
185.392,250.124052407
185.407,250.228810563
185.422,250.333194403
185.437,250.437206727
185.452,250.540850235
185.467,250.644127529
185.482,250.747041119
185.497,250.849593421
185.512,250.95178676
185.527,251.053623378
185.542,251.15510543
185.557,251.256234989
185.572,251.357014053
185.587,251.457444539
185.602,251.557528295
185.617,251.657267093
185.632,251.756662642
185.647,251.855716582
185.662,251.95443049
185.677,252.052805882
185.692,252.150844215
185.707,252.248546893
185.722,252.345915263
185.737,252.442950623
185.752,252.539654219
185.767,252.636027254
185.782,252.732070883
185.797,252.82778622
185.812,252.923174339
185.827,253.018236274
185.842,253.112973024
185.857,253.207385553
185.872,253.301474793
185.887,253.395241643
185.902,253.488686974
185.917,253.581811632
185.932,253.674616435
185.947,253.767102175
185.96,253.846998995
185.962,253.859269626
185.977,253.951119537
185.992,254.04265264
186.007,254.133869648
186.022,254.224771256
186.037,254.315358146
186.052,254.405630982
186.06,254.453648309
186.067,254.49559042
186.082,254.585237098
186.097,254.674571648
186.112,254.76359469
186.127,254.852306837
186.142,254.940708693
186.157,255.028800853
186.172,255.116583911
186.187,255.204058452
186.202,255.291225058
186.217,255.378084306
186.232,255.464636775
186.247,255.550883035
186.262,255.63682366
186.277,255.72245922
186.292,255.807790289
186.307,255.892817435
186.322,255.977541231
186.337,256.061962251
186.352,256.146081072
186.367,256.229898269
186.382,256.313414424
186.397,256.39663012
186.412,256.479545944
186.427,256.562162487
186.442,256.644480343
186.457,256.726500111
186.472,256.808222395
186.487,256.889647803
186.502,256.970776949
186.517,257.051610451
186.532,257.132148934
186.547,257.212393028
186.562,257.292343367
186.577,257.372000595
186.592,257.451365357
186.607,257.530438309
186.622,257.609220108
186.637,257.687711423
186.652,257.765912923
186.667,257.84382529
186.682,257.921449208
186.697,257.998785366
186.71,258.065577814
186.712,258.075834466
186.727,258.15259721
186.742,258.22907431
186.757,258.305266483
186.772,258.381174452
186.787,258.456798948
186.802,258.532140706
186.817,258.60720047
186.832,258.681978987
186.847,258.756477014
186.862,258.830695311
186.877,258.904634645
186.892,258.978295788
186.907,259.051679521
186.922,259.124786627
186.937,259.197617896
186.952,259.270174125
186.967,259.342456114
186.982,259.414464671
186.997,259.486200606
187.012,259.557664737
187.027,259.628857888
187.042,259.699780883
187.057,259.770434555
187.072,259.84081974
187.087,259.910937279
187.102,259.98078802
187.117,260.05037281
187.132,260.119692503
187.147,260.188747959
187.162,260.257540039
187.177,260.326069609
187.192,260.39433754
187.207,260.462344703
187.222,260.530091976
187.237,260.597580239
187.252,260.664810375
187.267,260.731783271
187.282,260.798499815
187.297,260.864960901
187.312,260.931167422
187.327,260.997120277
187.342,261.062820364
187.357,261.128268588
187.372,261.19346585
187.387,261.258413059
187.402,261.323111125
187.417,261.387560954
187.432,261.451763462
187.447,261.51571956
187.46,261.57094957
187.462,261.579430166
187.477,261.642896196
187.492,261.706118566
187.507,261.769098197
187.522,261.83183601
187.537,261.894332925
187.552,261.956589864
187.567,262.018607749
187.582,262.080387506
187.597,262.141930057
187.612,262.203236327
187.627,262.264307241
187.642,262.325143724
187.657,262.385746701
187.672,262.446117096
187.687,262.506255838
187.702,262.566163848
187.717,262.625842054
187.732,262.685291377
187.747,262.744512745
187.762,262.803507079
187.777,262.862275303
187.792,262.920818341
187.807,262.979137112
187.822,263.037232538
187.837,263.095105538
187.852,263.152757035
187.867,263.210187942
187.882,263.267399178
187.897,263.32439166
187.912,263.381166301
187.927,263.437724014
187.942,263.494065713
187.957,263.550192305
187.972,263.606104701
187.987,263.661803808
188.002,263.717290531
188.017,263.772565775
188.032,263.827630441
188.047,263.882485429
188.062,263.937131639
188.077,263.991569966
188.092,264.045801307
188.107,264.09982655
188.122,264.15364659
188.137,264.207262313
188.152,264.260674606
188.167,264.313884353
188.182,264.366892435
188.197,264.419699731
188.21,264.465304319
188.212,264.472307118
188.227,264.524715473
188.242,264.576925664
188.257,264.628938564
188.272,264.680755042
188.287,264.732375957
188.302,264.783802176
188.317,264.835034554
188.332,264.886073951
188.347,264.936921221
188.362,264.987577215
188.377,265.038042781
188.392,265.088318765
188.407,265.138406009
188.422,265.188305357
188.437,265.238017644
188.452,265.287543703
188.467,265.336884368
188.482,265.386040466
188.497,265.435012824
188.512,265.483802264
188.527,265.532409607
188.542,265.580835667
188.557,265.629081261
188.572,265.677147197
188.587,265.725034287
188.602,265.77274333
188.617,265.820275131
188.632,265.867630485
188.647,265.914810192
188.66,265.9555578
188.662,265.961815039
188.677,266.008645818
188.692,266.055303315
188.707,266.101788311
188.722,266.148101586
188.737,266.194243916
