# 48698 WSSS Singapore Observations at 12Z 07 Aug 2019
Frequency [GHz],TB
175.31,277.878821047
175.322,277.857978711
175.337,277.831855211
175.352,277.805652968
175.367,277.779371596
175.382,277.753010755
175.397,277.726570053
175.412,277.700049148
175.427,277.673447637
175.442,277.646765184
175.457,277.62000138
175.472,277.593155875
175.487,277.566228253
175.502,277.539218152
175.517,277.512125188
175.532,277.484948955
175.547,277.457689067
175.562,277.430345126
175.577,277.402916734
175.592,277.375403492
175.607,277.347805003
175.622,277.320120819
175.637,277.29235057
175.652,277.264493826
175.667,277.236550173
175.682,277.208519185
175.697,277.180400456
175.712,277.152193533
175.727,277.12389801
175.742,277.095513438
175.757,277.067039398
175.772,277.038475416
175.787,277.009821092
175.802,276.98107595
175.817,276.952239556
175.832,276.923311465
175.847,276.894291195
175.862,276.865178323
175.877,276.835972348
175.892,276.806672822
175.907,276.777279291
175.922,276.747791262
175.937,276.718208265
175.952,276.688529823
175.967,276.658755442
175.982,276.628884658
175.997,276.598916958
176.012,276.568851851
176.027,276.538688859
176.042,276.508427465
176.057,276.478067175
176.072,276.447607454
176.087,276.417047827
176.102,276.386387747
176.117,276.355626725
176.132,276.324764206
176.147,276.293799693
176.162,276.262732629
176.177,276.231562501
176.192,276.200288756
176.207,276.168910854
176.222,276.137428243
176.237,276.105840377
176.252,276.074146717
176.267,276.042346683
176.282,276.010439726
176.297,275.978425276
176.31,275.950592019
176.312,275.946302749
176.327,275.914071593
176.342,275.881731204
176.357,275.849281019
176.372,275.816720447
176.387,275.784048884
176.402,275.75126575
176.417,275.718370432
176.432,275.685362327
176.447,275.652240842
176.46,275.623443342
176.462,275.619005344
176.477,275.585655211
176.492,275.552189836
176.507,275.518608599
176.522,275.484910844
176.537,275.45109595
176.552,275.417163277
176.567,275.38311218
176.582,275.348942001
176.597,275.314652095
176.612,275.280241804
176.627,275.245710444
176.642,275.211057374
176.657,275.176281896
176.672,275.141383366
176.687,275.106361059
176.702,275.071214311
176.717,275.03594244
176.732,275.000544715
176.747,274.965020464
176.762,274.929368953
176.777,274.893589489
176.792,274.857681361
176.807,274.821643821
176.822,274.785476155
176.837,274.749177618
176.852,274.712747496
176.867,274.676185035
176.882,274.63948946
176.897,274.602660058
176.912,274.565696048
176.927,274.528596654
176.942,274.491361135
176.957,274.453988683
176.972,274.416478546
176.987,274.378829923
177.002,274.341042015
177.017,274.30311405
177.032,274.265045187
177.047,274.226834649
177.062,274.188481615
177.077,274.149985239
177.092,274.111344728
177.107,274.072559247
177.122,274.033627941
177.137,273.994549968
177.152,273.955324505
177.167,273.915950652
177.182,273.876427596
177.197,273.836754435
177.21,273.802248973
177.212,273.796930337
177.227,273.756954367
177.242,273.716825678
177.257,273.676543384
177.272,273.636106562
177.287,273.595514329
177.302,273.554765759
177.31,273.532968952
177.317,273.513859951
177.332,273.472795984
177.347,273.431572914
177.362,273.39018984
177.377,273.348645785
177.392,273.306939811
177.407,273.265070976
177.422,273.223038319
177.437,273.180840861
177.452,273.13847766
177.467,273.095947697
177.482,273.053250011
177.497,273.01038361
177.512,272.967347482
177.527,272.924140628
177.542,272.880762051
177.557,272.837210702
177.572,272.793485585
177.587,272.749585649
177.602,272.70550988
177.617,272.661257207
177.632,272.616826583
177.647,272.572216952
177.66,272.533409665
177.662,272.527427255
177.677,272.482456415
177.692,272.437303357
177.707,272.391966972
177.722,272.346446195
177.737,272.300739914
177.752,272.254847024
177.767,272.208766408
177.782,272.162496936
177.797,272.116037499
177.812,272.069386952
177.827,272.022544154
177.842,271.975507953
177.857,271.92827719
177.872,271.880850701
177.887,271.833227328
177.902,271.785405876
177.917,271.737385169
177.932,271.68916401
177.947,271.640741208
177.96,271.598610726
177.962,271.592115549
177.977,271.543285824
177.992,271.494250788
178.007,271.445009256
178.022,271.395559955
178.037,271.345901673
178.052,271.296033121
178.067,271.245953084
178.082,271.19566026
178.097,271.145153405
178.112,271.094431222
178.127,271.043492435
178.142,270.992335749
178.157,270.940959852
178.172,270.889363445
178.187,270.837545206
178.202,270.785503828
178.217,270.733237965
178.232,270.680746289
178.247,270.628027445
178.262,270.575080087
178.277,270.521902873
178.292,270.468494401
178.307,270.414853329
178.322,270.36097827
178.337,270.306867826
178.352,270.25252061
178.367,270.197935229
178.382,270.143110262
178.397,270.088044286
178.41,270.040124413
178.412,270.032735904
178.427,269.977183669
178.442,269.921386147
178.457,269.865341903
178.472,269.809049472
178.487,269.752507418
178.502,269.695714259
178.517,269.638668526
178.532,269.581368768
178.547,269.523813464
178.562,269.466001154
178.577,269.407930328
178.592,269.349599492
178.607,269.291007125
178.622,269.232151718
178.637,269.173031743
178.652,269.113645702
178.667,269.05399202
178.682,268.99406918
178.697,268.933875649
178.712,268.873409842
178.727,268.812670232
178.742,268.75165524
178.757,268.690363295
178.772,268.628792845
178.787,268.566942288
178.802,268.504810046
178.817,268.442394532
178.832,268.379694157
178.847,268.316707313
178.862,268.253432402
178.877,268.189867799
178.892,268.126011913
178.907,268.061863112
178.922,267.997419767
178.937,267.932680267
178.952,267.867642966
178.967,267.802306251
178.982,267.736668458
178.997,267.67072795
179.012,267.6044831
179.027,267.537932222
179.042,267.471073698
179.057,267.403905844
179.072,267.336427034
179.087,267.26863558
179.102,267.200529816
179.117,267.132108089
179.132,267.063368712
179.147,266.994310037
179.16,266.934199603
179.162,266.924930371
179.177,266.855228049
179.192,266.785201383
179.207,266.7148487
179.222,266.644168323
179.237,266.573158566
179.252,266.501817754
179.267,266.430144205
179.282,266.358136223
179.297,266.285792132
179.312,266.213110262
179.327,266.140088903
179.342,266.066726403
179.357,265.993021034
179.372,265.918971168
179.387,265.844575092
179.402,265.769831133
179.417,265.694737609
179.432,265.619292846
179.447,265.543495175
179.462,265.467342913
179.477,265.390834398
179.492,265.313967948
179.507,265.236741901
179.522,265.159154616
179.537,265.081204403
179.552,265.002889626
179.567,264.924208608
179.582,264.845159723
179.597,264.76574132
179.612,264.685951752
179.627,264.605789385
179.642,264.525252578
179.657,264.444339719
179.672,264.363049164
179.687,264.281379317
179.702,264.199328549
179.717,264.116895259
179.732,264.03407785
179.747,263.950874693
179.762,263.867284252
179.777,263.783304885
179.792,263.698935077
179.807,263.614173205
179.822,263.529017716
179.837,263.443467058
179.852,263.357519682
179.867,263.271174037
179.882,263.184428589
179.897,263.097281802
179.91,263.021428775
179.912,263.009732166
179.927,262.921778138
179.942,262.833418232
179.957,262.744650935
179.972,262.655474752
179.987,262.565888193
180.002,262.475889778
180.017,262.385478053
180.032,262.294651527
180.047,262.203408742
180.062,262.111748249
180.077,262.019668604
180.092,261.927168378
180.107,261.83424612
180.122,261.740900417
180.137,261.647129827
180.152,261.552932964
180.167,261.458308415
180.182,261.36325476
180.197,261.267770605
180.212,261.171854561
180.227,261.075505247
180.242,260.978721265
180.257,260.881501228
180.272,260.783843781
180.287,260.685747526
180.302,260.587211099
180.317,260.488233122
180.332,260.388812232
180.347,260.288947043
180.362,260.188636197
180.377,260.087878325
180.392,259.986672028
180.407,259.885015959
180.422,259.782908719
180.437,259.68034893
180.452,259.577335197
180.467,259.473866123
180.482,259.369940316
180.497,259.265556354
180.512,259.160712816
180.527,259.055408289
180.542,258.94964131
180.557,258.843410427
180.56,258.822108467
180.572,258.736714195
180.587,258.629551122
180.602,258.52191967
180.617,258.413818373
180.632,258.30524568
180.647,258.196200025
180.66,258.101310009
180.662,258.086679834
180.677,257.976683505
180.692,257.866209406
180.707,257.755255905
180.722,257.643821293
180.737,257.531903874
180.752,257.419501905
180.767,257.306613613
180.782,257.193237159
180.797,257.079370738
180.812,256.965012434
180.827,256.850160336
180.842,256.734812461
180.857,256.618966805
180.872,256.502621317
180.887,256.385773872
180.902,256.268422344
180.917,256.150564506
180.932,256.032198089
180.947,255.913320804
180.962,255.793930259
180.977,255.674024043
180.992,255.553599642
181.007,255.432654523
181.022,255.311186055
181.037,255.189191577
181.052,255.066668316
181.067,254.94361347
181.082,254.820024144
181.097,254.695897372
181.112,254.571230137
181.127,254.446019317
181.142,254.320261749
181.157,254.193954157
181.172,254.067093206
181.187,253.939675481
181.202,253.811697497
181.217,253.683155663
181.232,253.554046354
181.247,253.424365812
181.262,253.294110233
181.277,253.163275724
181.292,253.031858319
181.307,252.899853945
181.31,252.873382276
181.322,252.767258488
181.337,252.634067728
181.352,252.500277391
181.367,252.365883107
181.382,252.230880448
181.397,252.095264911
181.412,251.959031905
181.427,251.822176809
181.442,251.684694911
181.457,251.546581454
181.472,251.4078316
181.487,251.268440497
181.502,251.128403196
181.517,250.987714753
181.532,250.846370141
181.547,250.70436433
181.562,250.561692256
181.577,250.418348807
181.592,250.274328898
181.607,250.129627408
181.622,249.984239196
181.637,249.838159192
181.652,249.69138225
181.667,249.543903329
181.682,249.395717369
181.697,249.246819382
181.712,249.097204415
181.727,248.946867567
181.742,248.795804045
181.757,248.644009091
181.772,248.49147809
181.787,248.338206515
181.802,248.184189926
181.817,248.029424087
181.832,247.873904854
181.847,247.717628251
181.862,247.560590503
181.877,247.402787987
181.892,247.244217334
181.907,247.08487533
181.922,246.924759071
181.937,246.763865851
181.952,246.60219325
181.967,246.439739147
181.982,246.276501719
181.997,246.112479455
182.012,245.947671208
182.027,245.782076169
182.042,245.615693908
182.057,245.44852444
182.06,245.414996105
182.072,245.280568128
182.087,245.111825859
182.102,244.942298905
182.117,244.771989079
182.132,244.600898683
182.147,244.429030539
182.162,244.256388062
182.177,244.082975209
182.192,243.908796581
182.207,243.7338574
182.222,243.558163544
182.237,243.381721614
182.252,243.204538929
182.267,243.026623545
182.282,242.847984363
182.297,242.668631083
182.312,242.488574288
182.327,242.307825504
182.342,242.126397186
182.357,241.944302824
182.372,241.761556973
182.387,241.578175304
182.402,241.394174671
182.417,241.209573192
182.432,241.02439029
182.447,240.838646763
182.462,240.652364926
182.477,240.46556864
182.492,240.278283384
182.507,240.090536461
182.522,239.902356975
182.537,239.713776052
182.552,239.524826901
182.567,239.33554498
182.582,239.1459681
182.597,238.956136618
182.612,238.766093549
182.627,238.57588476
182.642,238.385559123
182.657,238.195168726
182.672,238.004768991
182.687,237.814418907
182.702,237.624181248
182.717,237.434122706
182.732,237.24431408
182.747,237.05483053
182.762,236.865751659
182.777,236.677161702
182.792,236.489149682
182.807,236.301809454
182.822,236.115239828
182.837,235.929544477
182.852,235.744831976
182.867,235.561215568
182.882,235.378812898
182.897,235.197745603
182.912,235.018138698
182.927,234.840119752
182.942,234.663817757
182.957,234.489361566
182.972,234.316878055
182.987,234.146489347
183.002,233.978309553
183.017,233.81244036
183.032,233.648965198
183.047,233.487941818
183.062,233.329392364
183.077,233.173290421
183.092,233.019543866
183.107,232.867972175
183.122,232.718276387
183.137,232.569999417
183.152,232.422474237
183.167,232.274757478
183.182,232.125549001
183.197,231.973105388
183.212,231.815180257
183.227,231.649090522
183.242,231.472189853
183.257,231.28349156
183.367,231.318846033
183.382,231.501220763
183.397,231.671740363
183.412,231.832077742
183.427,231.984974463
183.442,232.133022218
183.457,232.278337072
183.472,232.422541205
183.487,232.566834988
183.502,232.712083551
183.517,232.858893989
183.532,233.00767781
183.547,233.158699549
183.562,233.312113688
183.577,233.467992702
183.592,233.626348161
183.607,233.787146699
183.622,233.950322155
183.637,234.115784728
183.652,234.283428096
183.667,234.453134723
183.682,234.624779963
183.697,234.798235337
183.712,234.973370829
183.727,235.150056814
183.742,235.328165473
183.757,235.507571793
183.772,235.688154338
183.787,235.869795887
183.802,236.052383715
183.817,236.235809915
183.832,236.419971481
183.847,236.604770402
183.862,236.790113609
183.877,236.975912936
183.892,237.162084999
183.907,237.348551035
183.922,237.53523681
183.937,237.722072367
183.952,237.90899189
183.967,238.095933484
183.982,238.282838998
183.997,238.469653855
184.012,238.656326799
184.027,238.84280981
184.042,239.029057811
184.057,239.215028566
184.072,239.400682525
184.087,239.585982619
184.102,239.770894151
184.117,239.955384638
184.132,240.139423676
184.147,240.322982828
184.162,240.506035504
184.177,240.688556847
184.192,240.870523655
184.207,241.051914239
184.222,241.232708383
184.237,241.412887231
184.252,241.592433233
184.267,241.771330069
184.282,241.949562556
184.297,242.127116652
184.312,242.303979313
184.327,242.480138506
184.342,242.655583163
184.357,242.830303044
184.372,243.004288833
184.387,243.177532003
184.402,243.350024771
184.417,243.521760134
184.432,243.692731774
184.447,243.862934046
184.462,244.032361973
184.477,244.201011141
184.492,244.368877786
184.507,244.535958674
184.522,244.702251105
184.537,244.867752899
184.552,245.032462382
184.56,245.119983027
184.567,245.196378319
184.582,245.359499963
184.597,245.521826946
184.612,245.683359341
184.627,245.8440976
184.642,246.004042537
184.657,246.163195311
184.672,246.321557429
184.687,246.479130708
184.702,246.635917262
184.717,246.791919469
184.732,246.947139981
184.747,247.101581723
184.762,247.255247816
184.777,247.408141614
184.792,247.560266685
184.807,247.711626772
184.822,247.862225797
184.837,248.012067849
184.852,248.161157172
184.867,248.309498119
184.882,248.457095198
184.897,248.603953009
184.912,248.750076271
184.927,248.895469791
184.942,249.040138425
184.957,249.184087143
184.972,249.327320946
184.987,249.469844885
185.002,249.611664068
185.017,249.752783623
185.032,249.893208709
185.047,250.032944501
185.062,250.171996166
185.077,250.31036891
185.092,250.448067884
185.107,250.585098271
185.122,250.721465222
185.137,250.857173851
185.152,250.992229268
185.167,251.126636541
185.182,251.260400688
185.197,251.393526698
185.212,251.526019504
185.227,251.65788401
185.242,251.789125041
185.257,251.919747389
185.272,252.049755755
185.287,252.179154826
185.302,252.307949182
185.31,252.376393816
185.317,252.436143366
185.332,252.56374183
185.347,252.690748984
185.362,252.817169143
185.377,252.94300656
185.392,253.068265426
185.407,253.192949842
185.422,253.317063857
185.437,253.440611417
185.452,253.563596411
185.467,253.686022657
185.482,253.807893913
185.497,253.929213821
185.512,254.049985983
185.527,254.170213927
185.542,254.289901092
185.557,254.409050869
185.572,254.52766654
185.587,254.645751386
185.602,254.763308537
185.617,254.880341127
185.632,254.996852174
185.647,255.112844651
185.662,255.228321469
185.677,255.34328548
185.692,255.457739462
185.707,255.571686127
185.722,255.68512818
185.737,255.798068199
185.752,255.910508745
185.767,256.022452337
185.782,256.133901406
185.797,256.244858358
185.812,256.355325543
185.827,256.465305266
185.842,256.574799779
185.857,256.683811314
185.872,256.792342014
185.887,256.900394028
185.902,257.007969443
185.917,257.115070297
185.932,257.221698626
185.947,257.3278564
185.96,257.419480678
185.962,257.433545545
185.977,257.538768014
185.992,257.643525669
186.007,257.747820363
186.022,257.851653926
186.037,257.95502815
186.052,258.057944819
186.06,258.11264723
186.067,258.160405685
186.082,258.262412462
186.097,258.363966869
186.112,258.465070585
186.127,258.565725276
186.142,258.665932583
186.157,258.765694149
186.172,258.865011586
186.187,258.96388649
186.202,259.062320441
186.217,259.160315022
186.232,259.2578718
186.247,259.354992313
186.262,259.451678102
186.277,259.547930706
186.292,259.643751629
186.307,259.739142401
186.322,259.834104529
186.337,259.9286395
186.352,260.022748817
186.367,260.116433985
186.382,260.209696446
186.397,260.302537728
186.412,260.394959275
186.427,260.486962584
186.442,260.578549116
186.457,260.66972034
186.472,260.760477738
186.487,260.850822758
186.502,260.940756878
186.517,261.030281575
186.532,261.1193983
186.547,261.208108537
186.562,261.296413737
186.577,261.384315393
186.592,261.471814947
186.607,261.558913895
186.622,261.645613697
186.637,261.731915843
186.652,261.817821782
186.667,261.903333036
186.682,261.988451057
186.697,262.073177342
186.71,262.146291074
186.712,262.157513372
186.727,262.241460644
186.742,262.325020658
186.757,262.408194912
186.772,262.490984887
186.787,262.573392081
186.802,262.655418031
186.817,262.737064213
186.832,262.818332177
186.847,262.899223397
186.862,262.979739403
186.877,263.059881725
186.892,263.139651887
186.907,263.219051411
186.922,263.298081812
186.937,263.376744645
186.952,263.455041428
186.967,263.532973712
186.982,263.610543034
186.997,263.687750923
187.012,263.764598936
187.027,263.84108862
187.042,263.917221515
187.057,263.992999192
187.072,264.068423178
187.087,264.14349505
187.102,264.218216359
187.117,264.292588652
187.132,264.366613503
187.147,264.440292465
187.162,264.513627111
187.177,264.586618985
187.192,264.659269672
187.207,264.731580732
187.222,264.803553713
187.237,264.87519021
187.252,264.946491773
187.267,265.017459975
187.282,265.088096378
187.297,265.158402548
187.312,265.22838006
187.327,265.29803047
187.342,265.367355354
187.357,265.436356271
187.372,265.505034794
187.387,265.573392476
187.402,265.641430886
187.417,265.709151587
187.432,265.77655613
187.447,265.843646085
187.46,265.901537456
187.462,265.910423008
187.477,265.976888445
187.492,266.043043954
187.507,266.108891095
187.522,266.1744314
187.537,266.239666428
187.552,266.304597729
187.567,266.369226834
187.582,266.433555276
187.597,266.497584612
187.612,266.561316369
187.627,266.624752074
187.642,266.687893241
187.657,266.750741417
187.672,266.813298118
187.687,266.875564848
187.702,266.937543132
187.717,266.999234479
187.732,267.060640396
187.747,267.121762388
187.762,267.18260194
187.777,267.243160556
187.792,267.303439728
187.807,267.363440942
187.822,267.423165672
187.837,267.482615399
187.852,267.541791599
187.867,267.60069573
187.882,267.659329267
187.897,267.717693662
187.912,267.775790376
187.927,267.833620834
187.942,267.8911865
187.957,267.948488809
187.972,268.005529195
187.987,268.062309072
188.002,268.118829867
188.017,268.175093026
188.032,268.231099927
188.047,268.286851966
188.062,268.342350583
188.077,268.397597155
188.092,268.452593062
188.107,268.507339693
188.122,268.561838433
188.137,268.616090629
188.152,268.67009769
188.167,268.723860935
188.182,268.777381733
188.197,268.830661443
188.21,268.876643206
188.212,268.883701395
188.227,268.936502921
188.242,268.989067358
188.257,269.041396031
188.272,269.093490256
188.287,269.145351343
188.302,269.196980595
188.317,269.24837932
188.332,269.299548791
188.347,269.350490323
188.362,269.401205165
188.377,269.451694619
188.392,269.501959938
188.407,269.552002381
188.422,269.601823212
188.437,269.651423658
188.452,269.700804991
188.467,269.749968423
188.482,269.798915201
188.497,269.847646528
188.512,269.896163642
188.527,269.944467718
188.542,269.992560006
188.557,270.040441675
188.572,270.088113918
188.587,270.13557791
188.602,270.182834851
188.617,270.229885888
188.632,270.276732205
188.647,270.323374945
188.66,270.363634878
188.662,270.369815271
188.677,270.416054321
188.692,270.462093224
188.707,270.507933137
188.722,270.553575172
188.737,270.599020449
