# 01004 ENAS Ny-Alesund Ii Observations at 12Z 24 May 2019
Frequency [GHz],TB
175.31,242.351867188
175.322,242.413336159
175.337,242.490181325
175.352,242.567035088
175.367,242.643895994
175.382,242.720762561
175.397,242.797633303
175.412,242.874506719
175.427,242.951381286
175.442,243.028255474
175.457,243.105127734
175.472,243.1819965
175.487,243.258860195
175.502,243.335717226
175.517,243.412565982
175.532,243.48940484
175.547,243.56623216
175.562,243.643046286
175.577,243.719845551
175.592,243.796628261
175.607,243.87339272
175.622,243.950137207
175.637,244.02685999
175.652,244.103559321
175.667,244.18023343
175.682,244.256880542
175.697,244.333498854
175.712,244.410086555
175.727,244.486641814
175.742,244.563162787
175.757,244.639647612
175.772,244.716094407
175.787,244.792501279
175.802,244.868866322
175.817,244.9451876
175.832,245.021463172
175.847,245.097691079
175.862,245.173869341
175.877,245.249995967
175.892,245.326068944
175.907,245.402086243
175.922,245.478045823
175.937,245.55394562
175.952,245.629783559
175.967,245.705557542
175.982,245.78126546
175.997,245.856905184
176.012,245.932474567
176.027,246.007971446
176.042,246.083393642
176.057,246.158738961
176.072,246.234005185
176.087,246.309190085
176.102,246.384291412
176.117,246.459306904
176.132,246.534234275
176.147,246.609071228
176.162,246.683815447
176.177,246.758464595
176.192,246.833016326
176.207,246.907468268
176.222,246.981818039
176.237,247.056063237
176.252,247.130201439
176.267,247.204230214
176.282,247.278147103
176.297,247.35194964
176.31,247.415817417
176.312,247.425635337
176.327,247.499201687
176.342,247.572646169
176.357,247.645966247
176.372,247.719159363
176.387,247.792222945
176.402,247.865154406
176.417,247.937951138
176.432,248.010610517
176.447,248.083129907
176.46,248.145864754
176.462,248.15550665
176.477,248.227738072
176.492,248.299821487
176.507,248.371754184
176.522,248.443533448
176.537,248.515156535
176.552,248.586620692
176.567,248.657923148
176.582,248.729061117
176.597,248.800031794
176.612,248.870832362
176.627,248.941459986
176.642,249.011911813
176.657,249.082184982
176.672,249.152276606
176.687,249.222183789
176.702,249.291903626
176.717,249.361433179
176.732,249.430769513
176.747,249.499909668
176.762,249.568850674
176.777,249.637589543
176.792,249.706123274
176.807,249.774448851
176.822,249.842563248
176.837,249.91046342
176.852,249.978146308
176.867,250.045608843
176.882,250.112847942
176.897,250.179860507
176.912,250.246643427
176.927,250.313193579
176.942,250.379507825
176.957,250.445583021
176.972,250.511416002
176.987,250.577003599
177.002,250.642342626
177.017,250.707429887
177.032,250.772262174
177.047,250.836836271
177.062,250.901148947
177.077,250.965196963
177.092,251.028977069
177.107,251.092486005
177.122,251.1557205
177.137,251.218677278
177.152,251.281353048
177.167,251.343744512
177.182,251.405848365
177.197,251.467661295
177.21,251.520994607
177.212,251.529179977
177.227,251.590401083
177.242,251.651321277
177.257,251.711937211
177.272,251.772245539
177.287,251.832242902
177.302,251.891925938
177.31,251.923627201
177.317,251.951291277
177.332,252.010335547
177.347,252.06905537
177.362,252.127447364
177.377,252.18550814
177.392,252.24323431
177.407,252.300622479
177.422,252.357669251
177.437,252.414371228
177.452,252.470725009
177.467,252.526727193
177.482,252.582374378
177.497,252.637663155
177.512,252.692590127
177.527,252.747151885
177.542,252.801345033
177.557,252.855166164
177.572,252.908611878
177.587,252.961678782
177.602,253.01436348
177.617,253.066662579
177.632,253.118572695
177.647,253.170090441
177.66,253.214419162
177.662,253.221212444
177.677,253.271935326
177.692,253.322255725
177.707,253.372170278
177.722,253.421675634
177.737,253.470768448
177.752,253.519445381
177.767,253.567703105
177.782,253.615538302
177.797,253.662947664
177.812,253.709927893
177.827,253.7564757
177.842,253.802587812
177.857,253.848260966
177.872,253.893491913
177.887,253.938277419
177.902,253.98261426
177.917,254.026499232
177.932,254.069929144
177.947,254.112900823
177.96,254.149769843
177.962,254.155411111
177.977,254.19745687
177.992,254.23903498
178.007,254.280142338
178.022,254.320775864
178.037,254.360932495
178.052,254.400609193
178.067,254.439802939
178.082,254.478510739
178.097,254.51672962
178.112,254.554456634
178.127,254.59168886
178.142,254.628423398
178.157,254.664657377
178.172,254.700387953
178.187,254.735612312
178.202,254.770327663
178.217,254.804531249
178.232,254.838220339
178.247,254.87139224
178.262,254.90404428
178.277,254.936173828
178.292,254.967778281
178.307,254.998855072
178.322,255.02940167
178.337,255.059415575
178.352,255.088894327
178.367,255.117835501
178.382,255.146236707
178.397,255.174095599
178.41,255.197799513
178.412,255.201409866
178.427,255.228177239
178.442,255.254395487
178.457,255.280062422
178.472,255.305175899
178.487,255.329733812
178.502,255.353734106
178.517,255.377174762
178.532,255.400053809
178.547,255.422369323
178.562,255.444119428
178.577,255.465302288
178.592,255.485916126
178.607,255.505959202
178.622,255.525429833
178.637,255.544326384
178.652,255.562647272
178.667,255.580390958
178.682,255.597555966
178.697,255.614140863
178.712,255.630144277
178.727,255.645564886
178.742,255.660401423
178.757,255.674652675
178.772,255.688317486
178.787,255.701394758
178.802,255.713883446
178.817,255.725782567
178.832,255.737091191
178.847,255.747808451
178.862,255.757933538
178.877,255.767465701
178.892,255.776404248
178.907,255.784748554
178.922,255.792498045
178.937,255.799652219
178.952,255.806210626
178.967,255.812172887
178.982,255.817538676
178.997,255.82230774
179.012,255.826479883
179.027,255.830054974
179.042,255.833032945
179.057,255.835413794
179.072,255.837197581
179.087,255.838384433
179.102,255.83897454
179.117,255.838968157
179.132,255.838365606
179.147,255.837167273
179.16,255.83564714
179.162,255.835373605
179.177,255.832985122
179.192,255.830002405
179.207,255.826426101
179.222,255.82225692
179.237,255.817495643
179.252,255.81214311
179.267,255.806200229
179.282,255.799667976
179.297,255.792547384
179.312,255.784839559
179.327,255.776545665
179.342,255.767666934
179.357,255.758204659
179.372,255.748160199
179.387,255.737534974
179.402,255.726330468
179.417,255.714548226
179.432,255.702189856
179.447,255.689257028
179.462,255.675751468
179.477,255.661674968
179.492,255.647029378
179.507,255.631816605
179.522,255.616038615
179.537,255.599697434
179.552,255.58279514
179.567,255.565333872
179.582,255.54731582
179.597,255.528743232
179.612,255.509618409
179.627,255.489943698
179.642,255.469721509
179.657,255.448954292
179.672,255.427644554
179.687,255.405794846
179.702,255.383407769
179.717,255.360485968
179.732,255.337032137
179.747,255.313049007
179.762,255.288539361
179.777,255.263506017
179.792,255.237951833
179.807,255.21187971
179.822,255.18529258
179.837,255.15819342
179.852,255.130585235
179.867,255.102471063
179.882,255.07385398
179.897,255.044737085
179.91,255.019100571
179.912,255.015123511
179.927,254.985016416
179.942,254.95441898
179.957,254.923334416
179.972,254.891765951
179.987,254.859716837
180.002,254.827190346
180.017,254.794189761
180.032,254.760718388
180.047,254.726779546
180.062,254.692376561
180.077,254.657512774
180.092,254.622191537
180.107,254.5864162
180.122,254.550190128
180.137,254.513516683
180.152,254.476399234
180.167,254.43884114
180.182,254.40084577
180.197,254.362416481
180.212,254.323556627
180.227,254.284269553
180.242,254.244558598
180.257,254.204427087
180.272,254.163878328
180.287,254.122915621
180.302,254.081542247
180.317,254.039761467
180.332,253.997576522
180.347,253.954990635
180.362,253.912006995
180.377,253.868628778
180.392,253.824859122
180.407,253.780701144
180.422,253.736157922
180.437,253.69123251
180.452,253.645927924
180.467,253.600247138
180.482,253.554193102
180.497,253.507768714
180.512,253.460976841
180.527,253.413820304
180.542,253.366301877
180.557,253.3184243
180.56,253.308805922
180.572,253.270190251
180.587,253.221602375
180.602,253.172663262
180.617,253.123375449
180.632,253.073741427
180.647,253.023763634
180.66,252.980173314
180.662,252.97344445
180.677,252.922786203
180.692,252.871791167
180.707,252.820461558
180.722,252.768799534
180.737,252.716807196
180.752,252.664486585
180.767,252.611839682
180.782,252.558868411
180.797,252.505574631
180.812,252.451960142
180.827,252.39802668
180.842,252.343775925
180.857,252.289209487
180.872,252.234328921
180.887,252.179135715
180.902,252.123631294
180.917,252.067817022
180.932,252.011694204
180.947,251.95526408
180.962,251.89852783
180.977,251.841486569
180.992,251.784141356
181.007,251.726493191
181.022,251.668543011
181.037,251.610291697
181.052,251.551740076
181.067,251.492888912
181.082,251.433738922
181.097,251.374290763
181.112,251.314545045
181.127,251.254502327
181.142,251.194163112
181.157,251.133527869
181.172,251.07259701
181.187,251.01137091
181.202,250.949849905
181.217,250.888034289
181.232,250.82592432
181.247,250.763520227
181.262,250.700822204
181.277,250.637830421
181.292,250.574545024
181.307,250.510966134
181.31,250.498215146
181.322,250.447093857
181.337,250.382928285
181.352,250.3184695
181.367,250.253717581
181.382,250.188672596
181.397,250.123334624
181.412,250.057703745
181.427,249.991780055
181.442,249.925563662
181.457,249.859054699
181.472,249.792253324
181.487,249.725159725
181.502,249.657774133
181.517,249.590096819
181.532,249.522128105
181.547,249.453868371
181.562,249.385318056
181.577,249.316477676
181.592,249.247347817
181.607,249.177929155
181.622,249.108222457
181.637,249.038228587
181.652,248.96794852
181.667,248.897383351
181.682,248.826534296
181.697,248.755402706
181.712,248.683990081
181.727,248.612298067
181.742,248.540328483
181.757,248.468083313
181.772,248.39556473
181.787,248.322775103
181.802,248.249717004
181.817,248.176393228
181.832,248.102806792
181.847,248.028960965
181.862,247.954859262
181.877,247.880505467
181.892,247.805903647
181.907,247.731058159
181.922,247.65597367
181.937,247.580655164
181.952,247.505107967
181.967,247.429337749
181.982,247.353350547
181.997,247.277152783
182.012,247.200751268
182.027,247.124153226
182.042,247.047366314
182.057,246.970398624
182.06,246.954984137
182.072,246.893258716
182.087,246.815955622
182.102,246.738498871
182.117,246.660898502
182.132,246.58316508
182.147,246.505309717
182.162,246.427344088
182.177,246.349280445
182.192,246.271131643
182.207,246.192911144
182.222,246.114633047
182.237,246.036312101
182.252,245.957963718
182.267,245.879603993
182.282,245.80124972
182.297,245.722918411
182.312,245.644628306
182.327,245.566398392
182.342,245.48824842
182.357,245.410198909
182.372,245.332271171
182.387,245.254487321
182.402,245.17687028
182.417,245.099443798
182.432,245.022232455
182.447,244.945261671
182.462,244.868557715
182.477,244.792147709
182.492,244.716059638
182.507,244.640322341
182.522,244.564965521
182.537,244.490019741
182.552,244.41551642
182.567,244.341487832
182.582,244.267967095
182.597,244.194988157
182.612,244.122585792
182.627,244.050795582
182.642,243.979653893
182.657,243.909197864
182.672,243.839465377
182.687,243.770495029
182.702,243.702326107
182.717,243.634998549
182.732,243.568552908
182.747,243.503030314
182.762,243.438472422
182.777,243.374921372
182.792,243.312419735
182.807,243.251010445
182.822,243.190736754
182.837,243.131642159
182.852,243.073770338
182.867,243.017165066
182.882,242.961870157
182.897,242.907929366
182.912,242.855386313
182.927,242.804284392
182.942,242.754666683
182.957,242.706575851
182.972,242.66005405
182.987,242.615142823
183.002,242.571882993
183.017,242.530314566
183.032,242.490476615
183.047,242.452407171
183.062,242.416143115
183.077,242.381720069
183.092,242.34917228
183.107,242.318532517
183.122,242.28983196
183.137,242.263100096
183.152,242.238364613
183.167,242.215651306
183.182,242.194983984
183.197,242.176384374
183.212,242.15987205
183.227,242.145464349
183.242,242.133176306
183.257,242.123020595
183.367,242.114302579
183.382,242.122079174
183.397,242.131987061
183.412,242.144013365
183.427,242.15814286
183.442,242.174358035
183.457,242.192639161
183.472,242.212964363
183.487,242.235309715
183.502,242.259649315
183.517,242.285955391
183.532,242.314198395
183.547,242.344347104
183.562,242.37636873
183.577,242.410229029
183.592,242.445892398
183.607,242.483322005
183.622,242.522479879
183.637,242.563327031
183.652,242.60582356
183.667,242.649928764
183.682,242.695601237
183.697,242.742798978
183.712,242.791479493
183.727,242.841599884
183.742,242.893116952
183.757,242.945987282
183.772,243.000167334
183.787,243.055613522
183.802,243.112282297
183.817,243.17013022
183.832,243.229114036
183.847,243.289190742
183.862,243.350317641
183.877,243.412452415
183.892,243.475553173
183.907,243.539578505
183.922,243.604487523
183.937,243.670239913
183.952,243.736795976
183.967,243.804116654
183.982,243.872163575
183.997,243.940899073
184.012,244.010286223
184.027,244.080288856
184.042,244.150871587
184.057,244.221999827
184.072,244.293639799
184.087,244.365758552
184.102,244.43832397
184.117,244.511304774
184.132,244.584670536
184.147,244.658391675
184.162,244.732439461
184.177,244.806786013
184.192,244.8814043
184.207,244.956268129
184.222,245.031352147
184.237,245.10663183
184.252,245.18208348
184.267,245.257684205
184.282,245.333411923
184.297,245.409245336
184.312,245.485163928
184.327,245.561147949
184.342,245.637178399
184.357,245.713237019
184.372,245.78930627
184.387,245.865369321
184.402,245.941410036
184.417,246.01741295
184.432,246.093363262
184.447,246.169246814
184.462,246.24505007
184.477,246.320760112
184.492,246.396364604
184.507,246.471851797
184.522,246.547210497
184.537,246.62243005
184.552,246.69750033
184.56,246.737473437
184.567,246.772411722
184.582,246.8471551
184.597,246.921721819
184.612,246.996103689
184.627,247.070292968
184.642,247.144282343
184.657,247.21806491
184.672,247.291634167
184.687,247.364983995
184.702,247.438108637
184.717,247.511002701
184.732,247.583661123
184.747,247.656079172
184.762,247.728252427
184.777,247.800176769
184.792,247.871848362
184.807,247.943263645
184.822,248.014419314
184.837,248.085312323
184.852,248.155939859
184.867,248.226299335
184.882,248.296388379
184.897,248.366204823
184.912,248.4357467
184.927,248.50501222
184.942,248.573999768
184.957,248.642707896
184.972,248.711135313
184.987,248.779280868
185.002,248.847143554
185.017,248.914722493
185.032,248.982016927
185.047,249.049026211
185.062,249.115749809
185.077,249.182187279
185.092,249.248338272
185.107,249.314202529
185.122,249.379779864
185.137,249.44507016
185.152,249.510073373
185.167,249.574789514
185.182,249.63921865
185.197,249.703360894
185.212,249.767216405
185.227,249.830785381
185.242,249.89406805
185.257,249.95706467
185.272,250.019775525
185.287,250.082200916
185.302,250.144341162
185.31,250.177366147
185.317,250.206196592
185.332,250.267767546
185.347,250.329054363
185.362,250.390057388
185.377,250.450776962
185.392,250.511213421
185.407,250.571367089
185.422,250.631238283
185.437,250.690827303
185.452,250.750134434
185.467,250.80915994
185.482,250.867904064
185.497,250.926367025
185.512,250.984549017
185.527,251.042450208
185.542,251.100070728
185.557,251.157410687
185.572,251.214470153
185.587,251.271249163
185.602,251.327747717
185.617,251.38396578
185.632,251.439903273
185.647,251.495560082
185.662,251.550936053
185.677,251.606030984
185.692,251.660844635
185.707,251.715376724
185.722,251.769626921
185.737,251.823594851
185.752,251.8772801
185.767,251.930682202
185.782,251.983800645
185.797,252.036634873
185.812,252.089184284
185.827,252.141448227
185.842,252.193426005
185.857,252.245116874
185.872,252.296520042
185.887,252.347634673
185.902,252.398459879
185.917,252.44899473
185.932,252.499238251
185.947,252.549189415
185.96,252.592243116
185.962,252.598847154
185.977,252.648210356
185.992,252.697277858
186.007,252.74604846
186.022,252.794520913
186.037,252.842693929
186.052,252.890566174
186.06,252.915974583
186.067,252.938136275
186.082,252.985402814
186.097,253.032364341
186.112,253.079019357
186.127,253.125366332
186.142,253.171403691
186.157,253.217129828
186.172,253.262543102
186.187,253.30764183
186.202,253.352424304
186.217,253.396888776
186.232,253.441033468
186.247,253.484856573
186.262,253.528356255
186.277,253.571530646
186.292,253.614377853
186.307,253.656895956
186.322,253.699083007
186.337,253.740937043
186.352,253.782456069
186.367,253.823638072
186.382,253.864481018
186.397,253.904982855
186.412,253.945141513
186.427,253.984954903
186.442,254.024420926
186.457,254.063537463
186.472,254.102302387
186.487,254.140713556
186.502,254.17876882
186.517,254.21646602
186.532,254.253802988
186.547,254.290777549
186.562,254.327387528
186.577,254.363630739
186.592,254.399504997
186.607,254.435008116
186.622,254.470137911
186.637,254.504892196
186.652,254.53926879
186.667,254.57326551
186.682,254.606880185
186.697,254.640110647
186.71,254.668597925
186.712,254.672954736
186.727,254.705410299
186.742,254.737475194
186.757,254.76914729
186.772,254.800424468
186.787,254.831304624
186.802,254.861785665
186.817,254.891865514
186.832,254.921542115
186.847,254.950813422
186.862,254.979677415
186.877,255.008132091
186.892,255.036175467
186.907,255.063805582
186.922,255.0910205
186.937,255.117818306
186.952,255.14419711
186.967,255.170155049
186.982,255.195690288
186.997,255.220801015
187.012,255.245485451
187.027,255.26974184
187.042,255.293568465
187.057,255.316963633
187.072,255.339925683
187.087,255.362452988
187.102,255.384543955
187.117,255.406197022
187.132,255.427410662
187.147,255.448183388
187.162,255.468513741
187.177,255.488400303
187.192,255.507841694
187.207,255.526836565
187.222,255.545383614
187.237,255.563481572
187.252,255.581129209
187.267,255.598325337
187.282,255.615068807
187.297,255.63135851
187.312,255.647193379
187.327,255.662572386
187.342,255.677494547
187.357,255.691958917
187.372,255.705964597
187.387,255.719510731
187.402,255.7325965
187.417,255.745221133
187.432,255.757383902
187.447,255.769084119
187.46,255.778849659
187.462,255.780321145
187.477,255.79109438
187.492,255.801403271
187.507,255.811247307
187.522,255.820626024
187.537,255.829539001
187.552,255.837985859
187.567,255.845966267
187.582,255.853479935
187.597,255.860526623
187.612,255.867106129
187.627,255.873218299
187.642,255.878863025
187.657,255.884040238
187.672,255.888749916
187.687,255.892992083
187.702,255.896766803
187.717,255.900074191
187.732,255.902914396
187.747,255.905287617
187.762,255.907194095
187.777,255.908634116
187.792,255.909608002
187.807,255.91011613
187.822,255.910158907
187.837,255.90973679
187.852,255.908850273
187.867,255.907499898
187.882,255.905686245
187.897,255.903409932
187.912,255.900671624
187.927,255.897472021
187.942,255.893811869
187.957,255.889691949
187.972,255.885113082
187.987,255.880076132
188.002,255.874581998
188.017,255.86863162
188.032,255.862225974
188.047,255.855366074
188.062,255.848052972
188.077,255.840287758
188.092,255.832071554
188.107,255.823405526
188.122,255.814290866
188.137,255.804728808
188.152,255.794720619
188.167,255.784267598
188.182,255.773371081
188.197,255.762032436
188.21,255.751849059
188.212,255.750253065
188.227,255.738034398
188.242,255.725377903
188.257,255.712285075
188.272,255.698757446
188.287,255.684796568
188.302,255.670404035
188.317,255.655581462
188.332,255.640330496
188.347,255.624652813
188.362,255.608550117
188.377,255.592024139
188.392,255.575076638
188.407,255.557709395
188.422,255.539924226
188.437,255.521722967
188.452,255.503107476
188.467,255.484079642
188.482,255.464641374
188.497,255.444794607
188.512,255.424541298
188.527,255.403883427
188.542,255.382822993
188.557,255.361362022
188.572,255.339502557
188.587,255.317246662
188.602,255.294596424
188.617,255.271553946
188.632,255.248121353
188.647,255.224300785
188.66,255.203344136
188.662,255.200094407
188.677,255.175504391
188.692,255.150532935
188.707,255.125182252
188.722,255.099454568
188.737,255.073352128
