# 48698 WSSS Singapore Observations at 12Z 18 Apr 2019
Frequency [GHz],TB
175.31,277.514558494
175.322,277.495992242
175.337,277.472733205
175.352,277.449417075
175.367,277.426043658
175.382,277.402612763
175.397,277.379124193
175.412,277.355577754
175.427,277.331973248
175.442,277.30831048
175.457,277.284589251
175.472,277.260809359
175.487,277.236970606
175.502,277.213072793
175.517,277.189115714
175.532,277.165099167
175.547,277.14102295
175.562,277.116886856
175.577,277.092690681
175.592,277.068434217
175.607,277.044117256
175.622,277.01973959
175.637,276.99530101
175.652,276.970801304
175.667,276.94624026
175.682,276.921617668
175.697,276.896933313
175.712,276.872186981
175.727,276.847378456
175.742,276.822507522
175.757,276.797573963
175.772,276.772577559
175.787,276.747518092
175.802,276.722395343
175.817,276.697209088
175.832,276.671959107
175.847,276.646645177
175.862,276.621267075
175.877,276.595824576
175.892,276.570317451
175.907,276.544745477
175.922,276.519108426
175.937,276.493406068
175.952,276.467638173
175.967,276.441804513
175.982,276.415904855
175.997,276.389938967
176.012,276.363906616
176.027,276.337807567
176.042,276.311641585
176.057,276.285408435
176.072,276.259107881
176.087,276.232739681
176.102,276.2063036
176.117,276.179799398
176.132,276.153226832
176.147,276.126585662
176.162,276.099875645
176.177,276.073096538
176.192,276.046248097
176.207,276.019330076
176.222,275.992342229
176.237,275.96528431
176.252,275.938156069
176.267,275.91095726
176.282,275.883687632
176.297,275.856346934
176.31,275.83259398
176.312,275.828934915
176.327,275.801451321
176.342,275.773895902
176.357,275.746268403
176.372,275.718568567
176.387,275.690796141
176.402,275.662950865
176.417,275.635032485
176.432,275.607040741
176.447,275.578975374
176.46,275.554592302
176.462,275.550836124
176.477,275.52262273
176.492,275.49433493
176.507,275.465972462
176.522,275.437535064
176.537,275.409022469
176.552,275.380434414
176.567,275.351770634
176.582,275.323030861
176.597,275.294214827
176.612,275.265322267
176.627,275.236352908
176.642,275.207306485
176.657,275.178182724
176.672,275.148981354
176.687,275.119702106
176.702,275.090344705
176.717,275.060908878
176.732,275.031394351
176.747,275.00180085
176.762,274.972128099
176.777,274.942375821
176.792,274.91254374
176.807,274.882631578
176.822,274.852639057
176.837,274.822565898
176.852,274.792411821
176.867,274.762176546
176.882,274.731859792
176.897,274.701461277
176.912,274.67098072
176.927,274.640417837
176.942,274.609772345
176.957,274.57904396
176.972,274.548232397
176.987,274.517337371
177.002,274.486358596
177.017,274.455295786
177.032,274.424148652
177.047,274.392916911
177.062,274.36160027
177.077,274.330198443
177.092,274.298711141
177.107,274.267138073
177.122,274.23547895
177.137,274.20373348
177.152,274.171901373
177.167,274.139982337
177.182,274.10797608
177.197,274.075882309
177.21,274.047996692
177.212,274.043700731
177.227,274.011431053
177.242,273.979072981
177.257,273.946626219
177.272,273.914090475
177.287,273.881465453
177.302,273.848750856
177.31,273.831266343
177.317,273.815946389
177.332,273.783051756
177.347,273.75006666
177.362,273.716990804
177.377,273.68382389
177.392,273.650565621
177.407,273.617215699
177.422,273.583773825
177.437,273.550239699
177.452,273.516613025
177.467,273.482893501
177.482,273.44908083
177.497,273.415174709
177.512,273.38117484
177.527,273.347080921
177.542,273.312892654
177.557,273.278609735
177.572,273.244231864
177.587,273.20975874
177.602,273.175190061
177.617,273.140525525
177.632,273.10576483
177.647,273.070907673
177.66,273.040619877
177.662,273.035953752
177.677,273.000902765
177.692,272.965754409
177.707,272.93050838
177.722,272.895164375
177.737,272.859722091
177.752,272.824181223
177.767,272.78854147
177.782,272.752802525
177.797,272.716964086
177.812,272.681025847
177.827,272.644987505
177.842,272.608848755
177.857,272.572609291
177.872,272.53626881
177.887,272.499827006
177.902,272.463283574
177.917,272.426638208
177.932,272.389890604
177.947,272.353040453
177.96,272.321020473
177.962,272.316087452
177.977,272.279031295
177.992,272.241871674
178.007,272.204608283
178.022,272.167240816
178.037,272.129768966
178.052,272.092192426
178.067,272.054510888
178.082,272.016724045
178.097,271.97883159
178.112,271.940833214
178.127,271.902728609
178.142,271.864517466
178.157,271.826199477
178.172,271.787774333
178.187,271.749241724
178.202,271.71060134
178.217,271.671852872
178.232,271.632996008
178.247,271.594030438
178.262,271.55495585
178.277,271.515771933
178.292,271.476478374
178.307,271.43707486
178.322,271.397561078
178.337,271.357936716
178.352,271.318201455
178.367,271.278354984
178.382,271.238396985
178.397,271.198327143
178.41,271.163509231
178.412,271.158145138
178.427,271.117850655
178.442,271.077443373
178.457,271.036922973
178.472,270.996289135
178.487,270.955541535
178.502,270.914679853
178.517,270.873703764
178.532,270.832612942
178.547,270.791407064
178.562,270.750085799
178.577,270.70864882
178.592,270.667095797
178.607,270.625426398
178.622,270.58364029
178.637,270.541737139
178.652,270.499716609
178.667,270.45757836
178.682,270.415322054
178.697,270.372947348
178.712,270.330453899
178.727,270.287841362
178.742,270.245109387
178.757,270.202257624
178.772,270.159285722
178.787,270.116193324
178.802,270.072980074
178.817,270.029645609
178.832,269.986189568
178.847,269.942611585
178.862,269.898911288
178.877,269.855088308
178.892,269.811142266
178.907,269.767072785
178.922,269.722879482
178.937,269.67856197
178.952,269.634119859
178.967,269.589552754
178.982,269.544860258
178.997,269.500041966
179.012,269.455097473
179.027,269.410026365
179.042,269.364828227
179.057,269.319502636
179.072,269.274049165
179.087,269.228467381
179.102,269.182756849
179.117,269.136917121
179.132,269.090947751
179.147,269.04484828
179.16,269.004789813
179.162,268.998618249
179.177,268.952257186
179.192,268.905764616
179.207,268.859140058
179.222,268.812383019
179.237,268.765493004
179.252,268.718469505
179.267,268.671312009
179.282,268.624019995
179.297,268.576592932
179.312,268.52903028
179.327,268.48133149
179.342,268.433496004
179.357,268.385523256
179.372,268.337412666
179.387,268.289163645
179.402,268.240775597
179.417,268.192247909
179.432,268.143579962
179.447,268.09477112
179.462,268.045820741
179.477,267.996728165
179.492,267.947492724
179.507,267.898113732
179.522,267.848590495
179.537,267.7989223
179.552,267.749108422
179.567,267.699148124
179.582,267.649040647
179.597,267.598785223
179.612,267.548381066
179.627,267.497827373
179.642,267.447123323
179.657,267.396268081
179.672,267.345260793
179.687,267.294100584
179.702,267.242786564
179.717,267.191317822
179.732,267.139693429
179.747,267.087912432
179.762,267.035973863
179.777,266.983876728
179.792,266.931620014
179.807,266.879202684
179.822,266.826623679
179.837,266.773881916
179.852,266.720976291
179.867,266.667905672
179.882,266.614668903
179.897,266.561264803
179.91,266.514844964
179.912,266.507692164
179.927,266.453949751
179.942,266.400036303
179.957,266.34595053
179.972,266.291691112
179.987,266.237256703
180.002,266.182645922
180.017,266.127857364
180.032,266.072889586
180.047,266.017741117
180.062,265.962410454
180.077,265.906896057
180.092,265.851196356
180.107,265.795309743
180.122,265.739234578
180.137,265.682969182
180.152,265.626511841
180.167,265.569860803
180.182,265.513014277
180.197,265.455970436
180.212,265.398727408
180.227,265.341283287
180.242,265.28363612
180.257,265.225783918
180.272,265.167724645
180.287,265.109456223
180.302,265.05097653
180.317,264.9922834
180.332,264.93337462
180.347,264.874247932
180.362,264.81490103
180.377,264.755331562
180.392,264.695537125
180.407,264.635515269
180.422,264.575263491
180.437,264.514779242
180.452,264.454059917
180.467,264.393102861
180.482,264.331905367
180.497,264.27046467
180.512,264.208777958
180.527,264.146842357
180.542,264.08465494
180.557,264.022212724
180.56,264.009693438
180.572,263.959512669
180.587,263.896551677
180.602,263.833326589
180.617,263.769834192
180.632,263.706071208
180.647,263.642034303
180.66,263.586311455
180.662,263.577720079
180.677,263.513125077
180.692,263.448245777
180.707,263.383078595
180.722,263.317619886
180.737,263.251865937
180.752,263.185812975
180.767,263.11945716
180.782,263.052794587
180.797,262.985821284
180.812,262.918533216
180.827,262.850926279
180.842,262.782996303
180.857,262.714739049
180.872,262.646150213
180.887,262.57722542
180.902,262.50796023
180.917,262.438350133
180.932,262.368390549
180.947,262.298076831
180.962,262.227404263
180.977,262.156368057
180.992,262.08496336
181.007,262.013185246
181.022,261.941028722
181.037,261.868488725
181.052,261.795560121
181.067,261.72223771
181.082,261.64851622
181.097,261.574390312
181.112,261.499854576
181.127,261.424903537
181.142,261.34953165
181.157,261.2737333
181.172,261.197502808
181.187,261.120834426
181.202,261.043722341
181.217,260.966160671
181.232,260.888143472
181.247,260.809664732
181.262,260.730718377
181.277,260.651298269
181.292,260.571398207
181.307,260.491011927
181.31,260.474875769
181.322,260.410133105
181.337,260.328755358
181.352,260.246872241
181.367,260.164477254
181.382,260.081563837
181.397,259.998125377
181.412,259.914155204
181.427,259.829646596
181.442,259.744592779
181.457,259.658986929
181.472,259.572822171
181.487,259.486091585
181.502,259.398788204
181.517,259.310905016
181.532,259.222434971
181.547,259.133370973
181.562,259.043705893
181.577,258.953432562
181.592,258.86254378
181.607,258.771032314
181.622,258.678890903
181.637,258.586112257
181.652,258.492689066
181.667,258.398613997
181.682,258.303879698
181.697,258.208478803
181.712,258.112403937
181.727,258.015647712
181.742,257.918202741
181.757,257.820061631
181.772,257.721216997
181.787,257.621661458
181.802,257.521387649
181.817,257.42038822
181.832,257.318655841
181.847,257.216183213
181.862,257.112963069
181.877,257.00898818
181.892,256.904251362
181.907,256.798745484
181.922,256.692463474
181.937,256.585398325
181.952,256.477543108
181.967,256.368890972
181.982,256.259435162
181.997,256.149169023
182.012,256.038086012
182.027,255.926179707
182.042,255.813443821
182.057,255.699872212
182.06,255.677057074
182.072,255.585458897
182.087,255.470198067
182.102,255.354084098
182.117,255.237111568
182.132,255.119275274
182.147,255.000570251
182.162,254.880991786
182.177,254.760535441
182.192,254.639197074
182.207,254.516972857
182.222,254.393859305
182.237,254.269853297
182.252,254.144952101
182.267,254.019153407
182.282,253.892455349
182.297,253.764856543
182.312,253.636356114
182.327,253.506953733
182.342,253.376649654
182.357,253.245444749
182.372,253.113340551
182.387,252.980339296
182.402,252.846443963
182.417,252.711658327
182.432,252.575987
182.447,252.439435487
182.462,252.302010235
182.477,252.163718688
182.492,252.024569345
182.507,251.884571813
182.522,251.743736874
182.537,251.602076539
182.552,251.459604112
182.567,251.316334253
182.582,251.172283039
182.597,251.027468023
182.612,250.881908299
182.627,250.73562455
182.642,250.588639108
182.657,250.440975994
182.672,250.292660956
182.687,250.143721493
182.702,249.994186869
182.717,249.844088098
182.732,249.693457911
182.747,249.54233069
182.762,249.390742359
182.777,249.238730225
182.792,249.086332751
182.807,248.933589253
182.822,248.780539488
182.837,248.627223116
182.852,248.473678999
182.867,248.319944292
182.882,248.166053281
182.897,248.012035888
182.912,247.857915768
182.927,247.703707877
182.942,247.549415376
182.957,247.395025672
182.972,247.240505366
182.987,247.085793787
183.002,246.930794683
183.017,246.775365531
183.032,246.619303726
183.047,246.462328662
183.062,246.304058426
183.077,246.143979351
183.092,245.981406167
183.107,245.815429817
183.122,245.644849282
183.137,245.468083345
183.152,245.283058751
183.167,245.087074868
183.182,244.87665685
183.197,244.647442278
183.212,244.394231043
183.227,244.111533929
183.242,243.795412224
183.257,243.44822593
183.367,243.52368936
183.382,243.860283391
183.397,244.164265544
183.412,244.435551015
183.427,244.678756035
183.442,244.899391851
183.457,245.102464868
183.472,245.292104318
183.487,245.471573583
183.502,245.643399188
183.517,245.809516843
183.532,245.971401107
183.547,246.130170929
183.562,246.286672352
183.577,246.441542214
183.592,246.59525688
183.607,246.748169442
183.622,246.900538159
183.637,247.052548259
183.652,247.204328705
183.667,247.355965144
183.682,247.507509934
183.697,247.658989939
183.712,247.810412616
183.727,247.961770761
183.742,248.113046232
183.757,248.264212869
183.772,248.415238778
183.787,248.566088128
183.802,248.716722551
183.817,248.867102243
183.832,249.017186808
183.847,249.166935925
183.862,249.316309842
183.877,249.465269766
183.892,249.613778143
183.907,249.761798868
183.922,249.909297423
183.937,250.056240985
183.952,250.202598472
183.967,250.348340582
183.982,250.493439788
183.997,250.637870327
184.012,250.781608173
184.027,250.924630994
184.042,251.066918108
184.057,251.208450424
184.072,251.349210391
184.087,251.489181932
184.102,251.628350385
184.117,251.766702442
184.132,251.904226082
184.147,252.040910512
184.162,252.176746105
184.177,252.311724341
184.192,252.445837749
184.207,252.579079851
184.222,252.711445106
184.237,252.84292886
184.252,252.973527294
184.267,253.103237377
184.282,253.232056818
184.297,253.359984025
184.312,253.487018059
184.327,253.613158599
184.342,253.738405899
184.357,253.862760754
184.372,253.986224468
184.387,254.108798816
184.402,254.230486018
184.417,254.351288709
184.432,254.471209907
184.447,254.590252994
184.462,254.708421686
184.477,254.825720011
184.492,254.942152289
184.507,255.057723106
184.522,255.172437303
184.537,255.286299949
184.552,255.399316328
184.56,255.459247586
184.567,255.511491922
184.582,255.622832397
184.597,255.733343584
184.612,255.843031471
184.627,255.951902186
184.642,256.059961986
184.657,256.167217248
184.672,256.273674454
184.687,256.379340185
184.702,256.484221109
184.717,256.588323974
184.732,256.691655595
184.747,256.794222855
184.762,256.896032687
184.777,256.997092076
184.792,257.097408047
184.807,257.19698766
184.822,257.295838006
184.837,257.393966199
184.852,257.491379373
184.867,257.588084673
184.882,257.684089258
184.897,257.779400289
184.912,257.874024929
184.927,257.967970337
184.942,258.061243667
184.957,258.153852062
184.972,258.245802652
184.987,258.337102549
185.002,258.427758848
185.017,258.517778621
185.032,258.607168914
185.047,258.695936748
185.062,258.784089111
185.077,258.871632962
185.092,258.958575226
185.107,259.044922789
185.122,259.130682502
185.137,259.215861176
185.152,259.300465577
185.167,259.384502432
185.182,259.467978422
185.197,259.550900181
185.212,259.633274297
185.227,259.715107306
185.242,259.796405698
185.257,259.877175908
185.272,259.957424321
185.287,260.037157268
185.302,260.116381025
185.31,260.158427643
185.317,260.195101812
185.332,260.273325795
185.347,260.351059081
185.362,260.428307719
185.377,260.5050777
185.392,260.581374956
185.407,260.65720536
185.422,260.732574722
185.437,260.807488792
185.452,260.881953261
185.467,260.955973754
185.482,261.029555836
185.497,261.10270501
185.512,261.175426714
185.527,261.247726325
185.542,261.319609153
185.557,261.391080448
185.572,261.462145395
185.587,261.532809113
185.602,261.603076659
185.617,261.672953025
185.632,261.742443139
185.647,261.811551864
185.662,261.880284
185.677,261.948644283
185.692,262.016637381
185.707,262.084267905
185.722,262.151540395
185.737,262.218459332
185.752,262.285029132
185.767,262.351254147
185.782,262.417138667
185.797,262.48268692
185.812,262.547903068
185.827,262.612791216
185.842,262.677355403
185.857,262.741599608
185.872,262.805527748
185.887,262.869143682
185.902,262.932451206
185.917,262.995454057
185.932,263.058155911
185.947,263.120560388
185.96,263.174406476
185.962,263.182671048
185.977,263.244491392
185.992,263.306024864
186.007,263.367274852
186.022,263.428244688
186.037,263.488937645
186.052,263.549356944
186.06,263.581469769
186.067,263.609505748
186.082,263.669387169
186.097,263.729004263
186.112,263.788360034
186.127,263.847457433
186.142,263.90629936
186.157,263.964888661
186.172,264.023228136
186.187,264.081320531
186.202,264.139168544
186.217,264.196774823
186.232,264.254141972
186.247,264.311272542
186.262,264.368169041
186.277,264.424833928
186.292,264.48126962
186.307,264.537478485
186.322,264.593462851
186.337,264.649224998
186.352,264.704767167
186.367,264.760091554
186.382,264.815200315
186.397,264.870095563
186.412,264.924779373
186.427,264.97925378
186.442,265.033520778
186.457,265.087582323
186.472,265.141440336
186.487,265.195096697
186.502,265.248553254
186.517,265.301811813
186.532,265.354874152
186.547,265.407742008
186.562,265.460417088
186.577,265.512901064
186.592,265.565195574
186.607,265.617302227
186.622,265.669222599
186.637,265.720958233
186.652,265.772510645
186.667,265.823881319
186.682,265.87507171
186.697,265.926083245
186.71,265.970149648
186.712,265.976917321
186.727,266.027575312
186.742,266.07805856
186.757,266.128368382
186.772,266.178506071
186.787,266.228472893
186.802,266.278270089
186.817,266.327898876
186.832,266.377360447
186.847,266.426655973
186.862,266.4757866
186.877,266.524753454
186.892,266.573557637
186.907,266.62220023
186.922,266.670682296
186.937,266.719004872
186.952,266.767168982
186.967,266.815175623
186.982,266.86302578
186.997,266.910720414
187.012,266.95826047
187.027,267.005646875
187.042,267.05288054
187.057,267.099962356
187.072,267.1468932
187.087,267.193673931
187.102,267.240305394
187.117,267.286788416
187.132,267.333123813
187.147,267.379312382
187.162,267.425354908
187.177,267.471252162
187.192,267.517004901
187.207,267.562613868
187.222,267.608079794
187.237,267.653403397
187.252,267.698585382
187.267,267.743626444
187.282,267.788527264
187.297,267.833288514
187.312,267.877910851
187.327,267.922394925
187.342,267.966741375
187.357,268.010950828
187.372,268.055023901
187.387,268.098961204
187.402,268.142763334
187.417,268.186430881
187.432,268.229964427
187.447,268.273364541
187.46,268.310870478
187.462,268.316631787
187.477,268.359766721
187.492,268.40276989
187.507,268.445641832
187.522,268.488383079
187.537,268.530994155
187.552,268.573475578
187.567,268.615827856
187.582,268.658051494
187.597,268.700146987
187.612,268.742114827
187.627,268.783955497
187.642,268.825669473
187.657,268.86725723
187.672,268.908719234
187.687,268.950055944
187.702,268.991267815
187.717,269.0323553
187.732,269.073318842
187.747,269.114158882
187.762,269.154875854
187.777,269.195470191
187.792,269.235942317
187.807,269.276292655
187.822,269.316521623
187.837,269.356629634
187.852,269.396617097
187.867,269.436484418
187.882,269.476232
187.897,269.51586024
187.912,269.555369533
187.927,269.59476027
187.942,269.634032841
187.957,269.673187628
187.972,269.712225015
187.987,269.751145379
188.002,269.789949097
188.017,269.828636541
188.032,269.867208081
188.047,269.905664087
188.062,269.94400492
188.077,269.982230945
188.092,270.020342522
188.107,270.058340008
188.122,270.096223758
188.137,270.133994125
188.152,270.171651462
188.167,270.209196115
188.182,270.246628434
188.197,270.283948763
188.21,270.316202724
188.212,270.321157443
188.227,270.358254818
188.242,270.395241226
188.257,270.432117005
188.272,270.468882492
188.287,270.505538021
188.302,270.542083925
188.317,270.578520536
188.332,270.614848183
188.347,270.651067194
188.362,270.687177899
188.377,270.723180621
188.392,270.759075685
188.407,270.794863416
188.422,270.830544134
188.437,270.866118161
188.452,270.901585816
188.467,270.936947418
188.482,270.972203284
188.497,271.007353732
188.512,271.042399076
188.527,271.07733963
188.542,271.112175708
188.557,271.146907623
188.572,271.181535686
188.587,271.216060207
188.602,271.250481496
188.617,271.284799862
188.632,271.319015614
188.647,271.353129058
188.66,271.382611524
188.662,271.3871405
188.677,271.421050247
188.692,271.454858603
188.707,271.488565873
188.722,271.522172359
188.737,271.555678364
