# 10410 EDZE Essen Observations at 12Z 16 Aug 2019
Frequency [GHz],TB
175.31,272.763395439
175.322,272.746470836
175.337,272.725182485
175.352,272.703746659
175.367,272.682163188
175.382,272.660431932
175.397,272.638552731
175.412,272.616525437
175.427,272.594349897
175.442,272.572025956
175.457,272.549553479
175.472,272.526932324
175.487,272.504162338
175.502,272.481243384
175.517,272.458175326
175.532,272.434958024
175.547,272.411591345
175.562,272.388075159
175.577,272.364409323
175.592,272.340593712
175.607,272.316628198
175.622,272.292512649
175.637,272.268246954
175.652,272.243830969
175.667,272.21926458
175.682,272.194547666
175.697,272.169680109
175.712,272.144661785
175.727,272.119492588
175.742,272.094172388
175.757,272.068701073
175.772,272.043078537
175.787,272.017304664
175.802,271.991379349
175.817,271.965302472
175.832,271.939073929
175.847,271.912693618
175.862,271.886161427
175.877,271.859477253
175.892,271.83264099
175.907,271.805652533
175.922,271.778511784
175.937,271.75121864
175.952,271.723772998
175.967,271.696174762
175.982,271.668423831
175.997,271.640520106
176.012,271.612463488
176.027,271.584253881
176.042,271.555891193
176.057,271.527375317
176.072,271.498706168
176.087,271.469883645
176.102,271.440907655
176.117,271.4117781
176.132,271.382494887
176.147,271.353057925
176.162,271.323467114
176.177,271.293722366
176.192,271.263823586
176.207,271.233770678
176.222,271.203563544
176.237,271.173202098
176.252,271.142686241
176.267,271.112015878
176.282,271.081190914
176.297,271.050211259
176.31,271.023237019
176.312,271.019076808
176.327,270.98778747
176.342,270.956343151
176.357,270.924743748
176.372,270.892989167
176.387,270.861079308
176.402,270.829014066
176.417,270.796793344
176.432,270.764417048
176.447,270.731885067
176.46,270.703564673
176.462,270.699197298
176.477,270.666353639
176.492,270.63335398
176.507,270.600198218
176.522,270.566886246
176.537,270.533417951
176.552,270.499793222
176.567,270.466011942
176.582,270.432074003
176.597,270.397979285
176.612,270.363727672
176.627,270.329319045
176.642,270.29475328
176.657,270.260030252
176.672,270.225149836
176.687,270.190111904
176.702,270.154916328
176.717,270.119562976
176.732,270.084051709
176.747,270.048382396
176.762,270.01255489
176.777,269.976569052
176.792,269.940424735
176.807,269.904121798
176.822,269.867660085
176.837,269.831039442
176.852,269.794259716
176.867,269.757320747
176.882,269.720222373
176.897,269.682964426
176.912,269.645546736
176.927,269.607969137
176.942,269.570231445
176.957,269.532333488
176.972,269.494275079
176.987,269.45605604
177.002,269.417676166
177.017,269.379135277
177.032,269.340433168
177.047,269.301569641
177.062,269.262544489
177.077,269.2233575
177.092,269.184008467
177.107,269.144497165
177.122,269.104823376
177.137,269.064986866
177.152,269.024987416
177.167,268.984824781
177.182,268.944498728
177.197,268.904009004
177.21,268.868785328
177.212,268.863355365
177.227,268.822537551
177.242,268.781555312
177.257,268.740408375
177.272,268.699096472
177.287,268.657619334
177.302,268.615976679
177.31,268.593699488
177.317,268.574168223
177.332,268.532193675
177.347,268.490052736
177.362,268.447745111
177.377,268.405270492
177.392,268.362628569
177.407,268.319819024
177.422,268.276841534
177.437,268.233695774
177.452,268.190381404
177.467,268.146898087
177.482,268.10324548
177.497,268.059423224
177.512,268.015430968
177.527,267.971268347
177.542,267.92693499
177.557,267.88243052
177.572,267.83775456
177.587,267.792906719
177.602,267.747886605
177.617,267.702693817
177.632,267.65732794
177.647,267.611788574
177.66,267.572180461
177.662,267.566075289
177.677,267.520187665
177.692,267.47412527
177.707,267.427887662
177.722,267.381474393
177.737,267.334885017
177.752,267.288119074
177.767,267.241176096
177.782,267.194055615
177.797,267.146757149
177.812,267.099280217
177.827,267.051624322
177.842,267.00378897
177.857,266.955773657
177.872,266.907577869
177.887,266.859201087
177.902,266.810642785
177.917,266.761902431
177.932,266.712979489
177.947,266.663873414
177.96,266.621166253
177.962,266.614583652
177.977,266.565109644
177.992,266.515450825
178.007,266.465606616
178.022,266.415576453
178.037,266.365359734
178.052,266.314955876
178.067,266.264364281
178.082,266.213584337
178.097,266.162615434
178.112,266.111456957
178.127,266.060108269
178.142,266.008568753
178.157,265.956837768
178.172,265.904914658
178.187,265.852798778
178.202,265.800489474
178.217,265.747986077
178.232,265.695287919
178.247,265.642394318
178.262,265.589304592
178.277,265.536018062
178.292,265.482534021
178.307,265.428851776
178.322,265.374970616
178.337,265.32088983
178.352,265.266608692
178.367,265.21212649
178.382,265.157442479
178.397,265.102555937
178.41,265.054823193
178.412,265.04746611
178.427,264.992172261
178.442,264.936673631
178.457,264.880969467
178.472,264.825059006
178.487,264.768941477
178.502,264.712616105
178.517,264.656082125
178.532,264.599338737
178.547,264.542385164
178.562,264.485220615
178.577,264.427844284
178.592,264.370255385
178.607,264.312453103
178.622,264.254436632
178.637,264.196205162
178.652,264.137757872
178.667,264.079093936
178.682,264.020212543
178.697,263.961112856
178.712,263.901794052
178.727,263.84225529
178.742,263.78249573
178.757,263.722514544
178.772,263.662310877
178.787,263.601883892
178.802,263.541232744
178.817,263.480356572
178.832,263.419254533
178.847,263.357925765
178.862,263.296369423
178.877,263.234584641
178.892,263.17257057
178.907,263.11032634
178.922,263.047851101
178.937,262.98514398
178.952,262.922204121
178.967,262.859030658
178.982,262.795622734
178.997,262.731979482
179.012,262.668100039
179.027,262.603983544
179.042,262.539629132
179.057,262.475035945
179.072,262.410203119
179.087,262.345129801
179.102,262.279815128
179.117,262.214258243
179.132,262.148458294
179.147,262.082414431
179.16,262.024978456
179.162,262.016125798
179.177,261.949591553
179.192,261.882810849
179.207,261.815782842
179.222,261.748506699
179.237,261.680981578
179.252,261.613206653
179.267,261.545181088
179.282,261.476904062
179.297,261.408374771
179.312,261.339592378
179.327,261.270556083
179.342,261.201265088
179.357,261.131718583
179.372,261.061915773
179.387,260.991855877
179.402,260.92153811
179.417,260.850961697
179.432,260.780125873
179.447,260.709029865
179.462,260.637672926
179.477,260.566054304
179.492,260.494173261
179.507,260.422029063
179.522,260.349620985
179.537,260.276948314
179.552,260.204010335
179.567,260.130806353
179.582,260.057335677
179.597,259.983597626
179.612,259.909591527
179.627,259.835316716
179.642,259.760772548
179.657,259.685958373
179.672,259.610873555
179.687,259.535517485
179.702,259.459889544
179.717,259.383989133
179.732,259.307815658
179.747,259.231368549
179.762,259.15464724
179.777,259.077651168
179.792,259.000379797
179.807,258.922832595
179.822,258.845009033
179.837,258.76690862
179.852,258.68853085
179.867,258.609875247
179.882,258.530941339
179.897,258.451728669
179.91,258.382851858
179.912,258.372236791
179.927,258.292465279
179.942,258.21241371
179.957,258.132081684
179.972,258.051468804
179.987,257.970574691
180.002,257.889398983
180.017,257.807941323
180.032,257.726201372
180.047,257.644178809
180.062,257.561873313
180.077,257.479284585
180.092,257.396412341
180.107,257.313256303
180.122,257.229816211
180.137,257.146091808
180.152,257.062082867
180.167,256.977789163
180.182,256.893210477
180.197,256.808346604
180.212,256.723197373
180.227,256.637762588
180.242,256.552042091
180.257,256.466035726
180.272,256.379743346
180.287,256.293164816
180.302,256.206300012
180.317,256.11914882
180.332,256.031711132
180.347,255.943986848
180.362,255.85597588
180.377,255.767678144
180.392,255.679093572
180.407,255.590222081
180.422,255.501063624
180.437,255.411618131
180.452,255.32188556
180.467,255.231865853
180.482,255.141558974
180.497,255.050964867
180.512,254.960083509
180.527,254.868914846
180.542,254.777458844
180.557,254.68571546
180.56,254.667332298
180.572,254.593684661
180.587,254.501366394
180.602,254.408760611
180.617,254.31586727
180.632,254.222686304
180.647,254.129217652
180.66,254.047978729
180.662,254.035461248
180.677,253.941417014
180.692,253.847084851
180.707,253.75246467
180.722,253.657556352
180.737,253.562359777
180.752,253.466874804
180.767,253.371101281
180.782,253.275039035
180.797,253.178687873
180.812,253.082047593
180.827,252.985117954
180.842,252.887898715
180.857,252.790389593
180.872,252.692590291
180.887,252.594500475
180.902,252.496119797
180.917,252.397447864
180.932,252.298484265
180.947,252.199228552
180.962,252.09968025
180.977,251.99983883
180.992,251.899703743
181.007,251.799274393
181.022,251.698550155
181.037,251.597530354
181.052,251.49621427
181.067,251.394601146
181.082,251.292690183
181.097,251.190480527
181.112,251.08797127
181.127,250.985161473
181.142,250.882050126
181.157,250.77863618
181.172,250.674918531
181.187,250.570896025
181.202,250.46656743
181.217,250.361931481
181.232,250.256986845
181.247,250.151732135
181.262,250.0461659
181.277,249.940286632
181.292,249.834092756
181.307,249.727582635
181.31,249.706242514
181.322,249.62075458
181.337,249.513606833
181.352,249.406137571
181.367,249.298344903
181.382,249.190226888
181.397,249.081781509
181.412,248.973006694
181.427,248.863900305
181.442,248.75446014
181.457,248.644683938
181.472,248.534569376
181.487,248.424114071
181.502,248.313315577
181.517,248.202171409
181.532,248.090679004
181.547,247.978835755
181.562,247.866639008
181.577,247.754086046
181.592,247.641174128
181.607,247.527900457
181.622,247.414262192
181.637,247.300256454
181.652,247.185880343
181.667,247.071130934
181.682,246.956005255
181.697,246.840500339
181.712,246.724613196
181.727,246.608340826
181.742,246.491680228
181.757,246.374628414
181.772,246.257182401
181.787,246.139339237
181.802,246.021095978
181.817,245.902449737
181.832,245.783397663
181.847,245.663936957
181.862,245.544064907
181.877,245.423778864
181.892,245.303076264
181.907,245.181954649
181.922,245.060411682
181.937,244.938445162
181.952,244.816053014
181.967,244.693233338
181.982,244.569984401
181.997,244.446304679
182.012,244.322192845
182.027,244.197647813
182.042,244.072668758
182.057,243.947255113
182.06,243.922120203
182.072,243.821406623
182.087,243.695123343
182.102,243.568405683
182.117,243.44125444
182.132,243.313670786
182.147,243.185656336
182.162,243.05721317
182.177,242.928343861
182.192,242.799051503
182.207,242.669339758
182.222,242.539212883
182.237,242.40867577
182.252,242.277733989
182.267,242.146393838
182.282,242.014662358
182.297,241.882547411
182.312,241.750057691
182.327,241.617202809
182.342,241.483993316
182.357,241.35044077
182.372,241.216557758
182.387,241.082357997
182.402,240.947856336
182.417,240.813068849
182.432,240.678012878
182.447,240.54270708
182.462,240.407171477
182.477,240.271427553
182.492,240.135498253
182.507,239.999408049
182.522,239.863183019
182.537,239.726850854
182.552,239.590440924
182.567,239.45398429
182.582,239.317513745
182.597,239.181063846
182.612,239.044670889
182.627,238.908372924
182.642,238.772209733
182.657,238.636222791
182.672,238.500455189
182.687,238.364951558
182.702,238.229757957
182.717,238.094921691
182.732,237.960491139
182.747,237.826515485
182.762,237.693044411
182.777,237.560127732
182.792,237.427814915
182.807,237.296154543
182.822,237.165193626
182.837,237.034976818
182.852,236.905545452
182.867,236.776936384
182.882,236.649180677
182.897,236.522301924
182.912,236.396314367
182.927,236.271220572
182.942,236.147008691
182.957,236.023649208
182.972,235.901090983
182.987,235.779256564
183.002,235.658036514
183.017,235.537282601
183.032,235.41679955
183.047,235.296335095
183.062,235.175567989
183.077,235.054093557
183.092,234.931406502
183.107,234.806880756
183.122,234.679746624
183.137,234.549066467
183.152,234.413712502
183.167,234.272355017
183.182,234.123479354
183.197,233.965470715
183.212,233.796847306
183.227,233.616801757
183.242,233.426343806
183.257,233.230482233
183.367,233.268603232
183.382,233.460905053
183.397,233.645996012
183.412,233.820161136
183.427,233.983007865
183.442,234.135591637
183.457,234.279462483
183.472,234.416223325
183.487,234.547345638
183.502,234.674107356
183.517,234.79758576
183.532,234.918673172
183.547,235.038100164
183.562,235.15645976
183.577,235.274229638
183.592,235.391791505
183.607,235.509447594
183.622,235.627434422
183.637,235.745934229
183.652,235.865084465
183.667,235.98498563
183.682,236.105707779
183.697,236.227295931
183.712,236.349774541
183.727,236.473151275
183.742,236.597420113
183.757,236.722563978
183.772,236.848556953
183.787,236.975366089
183.802,237.102952987
183.817,237.23127508
183.832,237.360286722
183.847,237.489940132
183.862,237.620186114
183.877,237.750974744
183.892,237.882255855
183.907,238.013979522
183.922,238.146096388
183.937,238.278557972
183.952,238.411316892
183.967,238.544327087
183.982,238.677543931
183.997,238.810924354
184.012,238.944426933
184.027,239.078011938
184.042,239.211641382
184.057,239.345279013
184.072,239.478890354
184.087,239.612442648
184.102,239.745904876
184.117,239.879247715
184.132,240.012443503
184.147,240.145466178
184.162,240.278291264
184.177,240.410895811
184.192,240.543258339
184.207,240.675358776
184.222,240.807178432
184.237,240.938699911
184.252,241.069907082
184.267,241.200785022
184.282,241.331319932
184.297,241.461499124
184.312,241.591310954
184.327,241.720744751
184.342,241.8497908
184.357,241.978440267
184.372,242.106685177
184.387,242.234518335
184.402,242.361933313
184.417,242.488924404
184.432,242.615486568
184.447,242.741615385
184.462,242.867307045
184.477,242.992558306
184.492,243.11736643
184.507,243.241729195
184.522,243.365644825
184.537,243.48911199
184.552,243.612129739
184.56,243.677555248
184.567,243.734697529
184.582,243.856815141
184.597,243.978482696
184.612,244.099700613
184.627,244.220469573
184.642,244.340790553
184.657,244.46066473
184.672,244.580093525
184.687,244.699078555
184.702,244.817621596
184.717,244.935724632
184.732,245.053389766
184.747,245.17061926
184.762,245.287415478
184.777,245.403780913
184.792,245.519718151
184.807,245.635229852
184.822,245.750318774
184.837,245.864987722
184.852,245.979239566
184.867,246.093077217
184.882,246.206503624
184.897,246.319521772
184.912,246.432134657
184.927,246.544345308
184.942,246.656156743
184.957,246.767571997
184.972,246.878594092
184.987,246.989226048
185.002,247.099470868
185.017,247.209331532
185.032,247.31881101
185.047,247.42791224
185.062,247.536638121
185.077,247.644991528
185.092,247.752975302
185.107,247.86059223
185.122,247.967845074
185.137,248.074736547
185.152,248.181269311
185.167,248.28744598
185.182,248.393269124
185.197,248.498741256
185.212,248.603864844
185.227,248.708642292
185.242,248.813075961
185.257,248.917168153
185.272,249.020921107
185.287,249.124337017
185.302,249.227418006
185.31,249.282258318
185.317,249.330166166
185.332,249.432583505
185.347,249.534671994
185.362,249.636433527
185.377,249.737869966
185.392,249.838983099
185.407,249.93977466
185.422,250.040246348
185.437,250.140399785
185.452,250.240236544
185.467,250.339758152
185.482,250.438966078
185.497,250.537861745
185.512,250.636446517
185.527,250.734721721
185.542,250.832688625
185.557,250.930348456
185.572,251.027702384
185.587,251.124751559
185.602,251.221497051
185.617,251.317939916
185.632,251.414081151
185.647,251.509921727
185.662,251.605462567
185.677,251.700704548
185.692,251.795648531
185.707,251.890295318
185.722,251.984645689
185.737,252.078700392
185.752,252.172460144
185.767,252.265925614
185.782,252.359097466
185.797,252.451976325
185.812,252.544562772
185.827,252.636857389
185.842,252.728860723
185.857,252.820573293
185.872,252.911995595
185.887,253.003128115
185.902,253.093971305
185.917,253.184525602
185.932,253.274791433
185.947,253.364769199
185.96,253.442517218
185.962,253.454459288
185.977,253.543862076
185.992,253.632977914
186.007,253.721807163
186.022,253.810350149
186.037,253.898607192
186.052,253.986578621
186.06,254.033380028
186.067,254.074264725
186.082,254.161665813
186.097,254.248782171
186.112,254.335614079
186.127,254.42216182
186.142,254.508425667
186.157,254.59440589
186.172,254.680102752
186.187,254.765516514
186.202,254.850647446
186.217,254.935495805
186.232,255.020061847
186.247,255.10434584
186.262,255.188348034
186.277,255.272068705
186.292,255.355508101
186.307,255.4386665
186.322,255.521544168
186.337,255.60414137
186.352,255.686458393
186.367,255.768495516
186.382,255.850253015
186.397,255.931731185
186.412,256.012930327
186.427,256.093850732
186.442,256.174492711
186.457,256.254856587
186.472,256.334942665
186.487,256.414751285
186.502,256.494282774
186.517,256.573537478
186.532,256.652515749
186.547,256.731217938
186.562,256.809644416
186.577,256.887795556
186.592,256.965671742
186.607,257.043273362
186.622,257.12060082
186.637,257.19765452
186.652,257.274434882
186.667,257.350942335
186.682,257.427177314
186.697,257.50314026
186.71,257.568755126
186.712,257.578831632
186.727,257.654251897
186.742,257.729401518
186.757,257.804280981
186.772,257.878890774
186.787,257.953231408
186.802,258.027303381
186.817,258.101107223
186.832,258.174643448
186.847,258.247912603
186.862,258.320915229
186.877,258.393651888
186.892,258.466123139
186.907,258.538329556
186.922,258.610271721
186.937,258.681950223
186.952,258.753365665
186.967,258.824518655
186.982,258.895409803
186.997,258.966039738
187.012,259.036409092
187.027,259.106518502
187.042,259.176368617
187.057,259.245960095
187.072,259.315293603
187.087,259.384369807
187.102,259.453189386
187.117,259.521753027
187.132,259.590061422
187.147,259.658115274
187.162,259.725915286
187.177,259.793462169
187.192,259.860756644
187.207,259.927799439
187.222,259.994591289
187.237,260.061132918
187.252,260.127425083
187.267,260.193468531
187.282,260.259264011
187.297,260.324812288
187.312,260.390114125
187.327,260.455170288
187.342,260.51998156
187.357,260.584548714
187.372,260.648872537
187.387,260.71295381
187.402,260.77679333
187.417,260.840391897
187.432,260.903750306
187.447,260.966869359
187.46,261.021379551
187.462,261.029749868
187.477,261.092392642
187.492,261.154798484
187.507,261.216968219
187.522,261.278902667
187.537,261.340602642
187.552,261.40206898
187.567,261.463302494
187.582,261.524304016
187.597,261.585074383
187.612,261.645614414
187.627,261.705924956
187.642,261.766006838
187.657,261.825860891
187.672,261.885487962
187.687,261.94488888
187.702,262.004064497
187.717,262.063015646
187.732,262.121743166
187.747,262.1802479
187.762,262.238530692
187.777,262.296592379
187.792,262.35443381
187.807,262.41205582
187.822,262.469459257
187.837,262.526644958
187.852,262.583613768
187.867,262.640366519
187.882,262.696904065
187.897,262.753227232
187.912,262.809336858
187.927,262.865233787
187.942,262.920918858
187.957,262.976392894
187.972,263.031656737
187.987,263.08671121
188.002,263.14155715
188.017,263.196195386
188.032,263.25062674
188.047,263.304852038
188.062,263.358872105
188.077,263.412687758
188.092,263.466299815
188.107,263.519709099
188.122,263.572916418
188.137,263.625922582
188.152,263.678728401
188.167,263.731334682
188.182,263.783742228
188.197,263.835951842
188.21,263.88104068
188.212,263.887964315
188.227,263.939780452
188.242,263.991401033
188.257,264.042826856
188.272,264.094058701
188.287,264.145097352
188.302,264.195943591
188.317,264.246598194
188.332,264.297061926
188.347,264.347335563
188.362,264.397419869
188.377,264.447315604
188.392,264.497023529
188.407,264.546544396
188.422,264.595878956
188.437,264.645027959
188.452,264.693992148
188.467,264.742772256
188.482,264.791369034
188.497,264.839783192
188.512,264.888015476
188.527,264.936066597
188.542,264.983937287
188.557,265.031628252
188.572,265.079140205
188.587,265.126473858
188.602,265.173629909
188.617,265.22060906
188.632,265.267412006
188.647,265.314039432
188.66,265.35430843
188.662,265.360492029
188.677,265.406770483
188.692,265.452875467
188.707,265.498807654
188.722,265.544567709
188.737,265.590156303
