# 48698 WSSS Singapore Observations at 12Z 16 Aug 2019
Frequency [GHz],TB
175.31,279.082333252
175.322,279.064545352
175.337,279.042266764
175.352,279.019939491
175.367,278.997563405
175.382,278.975138379
175.397,278.952664282
175.412,278.930140986
175.427,278.907568359
175.442,278.884946269
175.457,278.862274583
175.472,278.839553165
175.487,278.816781881
175.502,278.793960592
175.517,278.771089162
175.532,278.74816745
175.547,278.725195317
175.562,278.70217262
175.577,278.679099216
175.592,278.655974961
175.607,278.63279971
175.622,278.609573316
175.637,278.586295631
175.652,278.562966505
175.667,278.539585789
175.682,278.51615333
175.697,278.492668974
175.712,278.469132568
175.727,278.445543956
175.742,278.421902979
175.757,278.39820948
175.772,278.3744633
175.787,278.350664275
175.802,278.326812244
175.817,278.302907042
175.832,278.278948504
175.847,278.254936463
175.862,278.230870751
175.877,278.206751196
175.892,278.182577629
175.907,278.158349875
175.922,278.134067762
175.937,278.109731112
175.952,278.085339749
175.967,278.060893493
175.982,278.036392164
175.997,278.01183558
176.012,277.987223557
176.027,277.96255591
176.042,277.937832453
176.057,277.913052996
176.072,277.88821735
176.087,277.863325323
176.102,277.838376722
176.117,277.813371351
176.132,277.788309014
176.147,277.763189513
176.162,277.738012647
176.177,277.712778214
176.192,277.687486011
176.207,277.662135833
176.222,277.636727473
176.237,277.61126072
176.252,277.585735366
176.267,277.560151196
176.282,277.534507998
176.297,277.508805554
176.31,277.486482011
176.312,277.483043646
176.327,277.457222055
176.342,277.431340559
176.357,277.405398933
176.372,277.379396953
176.387,277.35333439
176.402,277.327211015
176.417,277.301026596
176.432,277.2747809
176.447,277.248473691
176.46,277.225624168
176.462,277.222104731
176.477,277.19567378
176.492,277.169180598
176.507,277.142624939
176.522,277.116006558
176.537,277.089325207
176.552,277.062580636
176.567,277.035772592
176.582,277.00890082
176.597,276.981965065
176.612,276.954965066
176.627,276.927900563
176.642,276.900771292
176.657,276.873576987
176.672,276.84631738
176.687,276.818992201
176.702,276.791601177
176.717,276.764144033
176.732,276.736620491
176.747,276.709030272
176.762,276.681373093
176.777,276.65364867
176.792,276.625856714
176.807,276.597996937
176.822,276.570069047
176.837,276.542072747
176.852,276.514007742
176.867,276.485873731
176.882,276.457670411
176.897,276.429397478
176.912,276.401054623
176.927,276.372641535
176.942,276.344157903
176.957,276.315603409
176.972,276.286977736
176.987,276.258280561
177.002,276.229511559
177.017,276.200670405
177.032,276.171756768
177.047,276.142770314
177.062,276.113710709
177.077,276.084577613
177.092,276.055370684
177.107,276.026089579
177.122,275.996733948
177.137,275.967303441
177.152,275.937797704
177.167,275.90821638
177.182,275.878559108
177.197,275.848825526
177.21,275.822994411
177.212,275.819015266
177.227,275.789127959
177.242,275.759163231
177.257,275.729120706
177.272,275.699000004
177.287,275.668800742
177.302,275.638522533
177.31,275.622341739
177.317,275.608164987
177.332,275.57772771
177.347,275.547210306
177.362,275.516612373
177.377,275.485933507
177.392,275.455173301
177.407,275.424331343
177.422,275.393407218
177.437,275.362400506
177.452,275.331310785
177.467,275.300137628
177.482,275.268880605
177.497,275.237539281
177.512,275.206113219
177.527,275.174601975
177.542,275.143005103
177.557,275.111322154
177.572,275.079552671
177.587,275.047696198
177.602,275.01575227
177.617,274.983720421
177.632,274.95160018
177.647,274.919391069
177.66,274.891404251
177.662,274.88709261
177.677,274.854704318
177.692,274.822225703
177.707,274.789656273
177.722,274.756995527
177.737,274.724242965
177.752,274.691398078
177.767,274.658460353
177.782,274.625429274
177.797,274.592304319
177.812,274.55908496
177.827,274.525770667
177.842,274.492360901
177.857,274.458855122
177.872,274.425252781
177.887,274.391553326
177.902,274.357756201
177.917,274.323860841
177.932,274.289866678
177.947,274.25577314
177.96,274.226144574
177.962,274.221579645
177.977,274.187285611
177.992,274.152890444
178.007,274.118393551
178.022,274.083794328
178.037,274.049092167
178.052,274.014286455
178.067,273.979376571
178.082,273.94436189
178.097,273.909241778
178.112,273.874015599
178.127,273.838682707
178.142,273.803242451
178.157,273.767694173
178.172,273.732037208
178.187,273.696270887
178.202,273.660394531
178.217,273.624407457
178.232,273.588308971
178.247,273.552098377
178.262,273.515774969
178.277,273.479338033
178.292,273.442786851
178.307,273.406120694
178.322,273.369338827
178.337,273.332440509
178.352,273.295424989
178.367,273.258291509
178.382,273.221039304
178.397,273.183667599
178.41,273.151181521
178.412,273.146175612
178.427,273.108562553
178.442,273.070827623
178.457,273.032970016
178.472,272.994988915
178.487,272.956883496
178.502,272.918652927
178.517,272.880296364
178.532,272.841812956
178.547,272.803201842
178.562,272.764462154
178.577,272.72559301
178.592,272.686593523
178.607,272.647462792
178.622,272.60819991
178.637,272.568803957
178.652,272.529274004
178.667,272.489609111
178.682,272.449808328
178.697,272.409870695
178.712,272.369795239
178.727,272.329580977
178.742,272.289226916
178.757,272.248732049
178.772,272.208095361
178.787,272.167315821
178.802,272.126392389
178.817,272.085324012
178.832,272.044109625
178.847,272.00274815
178.862,271.961238495
178.877,271.919579558
178.892,271.877770222
178.907,271.835809356
178.922,271.793695816
178.937,271.751428446
178.952,271.709006072
178.967,271.66642751
178.982,271.623691558
178.997,271.580797001
179.012,271.537742608
179.027,271.494527133
179.042,271.451149316
179.057,271.407607878
179.072,271.363901526
179.087,271.320028951
179.102,271.275988826
179.117,271.231779806
179.132,271.187400532
179.147,271.142849625
179.16,271.104098927
179.162,271.098125687
179.177,271.053227305
179.192,271.008153044
179.207,270.962901453
179.222,270.91747106
179.237,270.871860374
179.252,270.826067882
179.267,270.780092055
179.282,270.733931338
179.297,270.687584159
179.312,270.641048923
179.327,270.594324012
179.342,270.547407786
179.357,270.500298584
179.372,270.452994719
179.387,270.405494484
179.402,270.357796143
179.417,270.30989794
179.432,270.261798091
179.447,270.213494788
179.462,270.164986195
179.477,270.116270452
179.492,270.06734567
179.507,270.018209932
179.522,269.968861295
179.537,269.919297785
179.552,269.8695174
179.567,269.819518107
179.582,269.769297844
179.597,269.718854517
179.612,269.668185999
179.627,269.617290133
179.642,269.566164727
179.657,269.514807556
179.672,269.463216361
179.687,269.411388846
179.702,269.359322681
179.717,269.3070155
179.732,269.254464897
179.747,269.201668431
179.762,269.148623618
179.777,269.095327939
179.792,269.041778831
179.807,268.98797369
179.822,268.933909872
179.837,268.879584688
179.852,268.824995405
179.867,268.770139245
179.882,268.715013384
179.897,268.659614953
179.91,268.611380244
179.912,268.603941032
179.927,268.547988654
179.942,268.491754803
179.957,268.43523641
179.972,268.378430355
179.987,268.321333465
180.002,268.263942511
180.017,268.206254212
180.032,268.148265227
180.047,268.08997216
180.062,268.031371553
180.077,267.972459891
180.092,267.913233595
180.107,267.853689024
180.122,267.793822474
180.137,267.733630173
180.152,267.673108284
180.167,267.612252902
180.182,267.55106005
180.197,267.489525682
180.212,267.427645679
180.227,267.365415846
180.242,267.302831913
180.257,267.239889535
180.272,267.176584283
180.287,267.112911653
180.302,267.048867053
180.317,266.984445811
180.332,266.919643167
180.347,266.854454274
180.362,266.788874196
180.377,266.722897904
180.392,266.656520278
180.407,266.589736099
180.422,266.522540056
180.437,266.454926734
180.452,266.38689062
180.467,266.318426096
180.482,266.24952744
180.497,266.18018882
180.512,266.110404297
180.527,266.040167818
180.542,265.969473217
180.557,265.898314212
180.56,265.884026121
180.572,265.826684399
180.587,265.754577257
180.602,265.681986138
180.617,265.608904271
180.632,265.535324753
180.647,265.461240552
180.66,265.396620476
180.662,265.386644502
180.677,265.311529301
180.692,265.235887509
180.707,265.159711542
180.722,265.082993674
180.737,265.005726032
180.752,264.927900593
180.767,264.84950918
180.782,264.770543463
180.797,264.690994954
180.812,264.610855003
180.827,264.530114795
180.842,264.448765351
180.857,264.366797521
180.872,264.284201982
180.887,264.200969236
180.902,264.117089605
180.917,264.032553232
180.932,263.947350074
180.947,263.861469899
180.962,263.774902286
180.977,263.68763662
180.992,263.59966209
181.007,263.510967684
181.022,263.421542187
181.037,263.331374179
181.052,263.240452033
181.067,263.148763908
181.082,263.05629775
181.097,262.963041286
181.112,262.868982024
181.127,262.77410725
181.142,262.678404024
181.157,262.581859177
181.172,262.48445931
181.187,262.38619079
181.202,262.287039751
181.217,262.186992087
181.232,262.086033454
181.247,261.984149265
181.262,261.881324689
181.277,261.777544653
181.292,261.672793835
181.307,261.567056667
181.31,261.545789483
181.322,261.460317329
181.337,261.352559756
181.352,261.243767629
181.367,261.133924381
181.382,261.023013194
181.397,260.911017
181.412,260.797918483
181.427,260.683700075
181.442,260.568343966
181.457,260.451832098
181.472,260.334146172
181.487,260.215267648
181.502,260.095177751
181.517,259.973857472
181.532,259.851287576
181.547,259.727448603
181.562,259.602320877
181.577,259.475884512
181.592,259.348119415
181.607,259.219005303
181.622,259.088521703
181.637,258.956647966
181.652,258.823363276
181.667,258.688646667
181.682,258.552477026
181.697,258.414833118
181.712,258.275693592
181.727,258.135037003
181.742,257.992841828
181.757,257.849086485
181.772,257.703749354
181.787,257.5568088
181.802,257.408243195
181.817,257.258030945
181.832,257.106150516
181.847,256.952580466
181.862,256.797299474
181.877,256.640286372
181.892,256.481520185
181.907,256.320980165
181.922,256.158645833
181.937,255.994497021
181.952,255.828513916
181.967,255.660677111
181.982,255.490967655
181.997,255.319367104
182.012,255.145857581
182.027,254.970421835
182.042,254.793043303
182.057,254.613706181
182.06,254.577602392
182.072,254.432395487
182.087,254.249097143
182.102,254.063798046
182.117,253.876486154
182.132,253.68715057
182.147,253.495781631
182.162,253.302371005
182.177,253.106911786
182.192,252.909398599
182.207,252.709827706
182.222,252.508197121
182.237,252.304506725
182.252,252.098758387
182.267,251.890956094
182.282,251.68110608
182.297,251.469216965
182.312,251.255299895
182.327,251.039368694
182.342,250.821440008
182.357,250.601533474
182.372,250.379671873
182.387,250.155881304
182.402,249.930191354
182.417,249.702635279
182.432,249.473250185
182.447,249.242077218
182.462,249.009161753
182.477,248.774553597
182.492,248.538307185
182.507,248.300481786
182.522,248.061141718
182.537,247.820356554
182.552,247.578201339
182.567,247.334756814
182.582,247.090109631
182.597,246.844352579
182.612,246.597584808
182.627,246.349912056
182.642,246.101446874
182.657,245.852308855
182.672,245.602624856
182.687,245.35252923
182.702,245.102164045
182.717,244.851679309
182.732,244.601233191
182.747,244.350992241
182.762,244.101131608
182.777,243.85183525
182.792,243.603296156
182.807,243.355716552
182.822,243.10930812
182.837,242.864292216
182.852,242.620900087
182.867,242.379373107
182.882,242.139963023
182.897,241.902932217
182.912,241.668554001
182.927,241.437112951
182.942,241.208905288
182.957,240.984239329
182.972,240.763436018
182.987,240.546829578
183.002,240.334768275
183.017,240.127615364
183.032,239.925750209
183.047,239.729569624
183.062,239.539489449
183.077,239.355946356
183.092,239.179399875
183.107,239.01033454
183.122,238.849262045
183.137,238.696723126
183.152,238.55328881
183.167,238.419560466
183.182,238.296167907
183.197,238.183764646
183.212,238.083019276
183.227,237.994602071
183.242,237.919166205
183.257,237.857323735
183.367,237.852286285
183.382,237.912532501
183.397,237.986233025
183.412,238.072764311
183.427,238.171467947
183.442,238.281673445
183.457,238.402715678
183.472,238.533947054
183.487,238.674745097
183.502,238.824516436
183.517,238.982698158
183.532,239.14875743
183.547,239.322190069
183.562,239.502518579
183.577,239.68929
183.592,239.88207378
183.607,240.080459815
183.622,240.284056696
183.637,240.492490195
183.652,240.705401977
183.667,240.92244852
183.682,241.143300213
183.697,241.36764061
183.712,241.595165808
183.727,241.825583921
183.742,242.058614645
183.757,242.293988874
183.772,242.531448368
183.787,242.770745463
183.802,243.011642796
183.817,243.253913053
183.832,243.497338738
183.847,243.741711938
183.862,243.986834101
183.877,244.232515812
183.892,244.478576581
183.907,244.724844612
183.922,244.971156591
183.937,245.217357458
183.952,245.463300189
183.967,245.708845567
183.982,245.953861955
183.997,246.198225075
184.012,246.441817777
184.027,246.684529811
184.042,246.9262576
184.057,247.166904018
184.072,247.406378159
184.087,247.644595118
184.102,247.881475767
184.117,248.116946537
184.132,248.350939203
184.147,248.583390669
184.162,248.814242759
184.177,249.043442012
184.192,249.27093948
184.207,249.49669053
184.222,249.720654651
184.237,249.942795267
184.252,250.163079549
184.267,250.381478243
184.282,250.597965489
184.297,250.812518659
184.312,251.025118185
184.327,251.23574741
184.342,251.444392428
184.357,251.651041936
184.372,251.855687095
184.387,252.058321388
184.402,252.258940489
184.417,252.457542134
184.432,252.654126
184.447,252.848693582
184.462,253.041248087
184.477,253.231794317
184.492,253.420338573
184.507,253.606888546
184.522,253.791453233
184.537,253.974042834
184.552,254.154668674
184.56,254.250203725
184.567,254.333343117
184.582,254.510079484
184.597,254.684891984
184.612,254.857795636
184.627,255.028806206
184.642,255.197940138
184.657,255.365214498
184.672,255.530646909
184.687,255.694255502
184.702,255.856058861
184.717,256.016075974
184.732,256.174326186
184.747,256.330829156
184.762,256.485604816
184.777,256.638673329
184.792,256.790055056
184.807,256.939770518
184.822,257.087840368
184.837,257.234285354
184.852,257.379126296
184.867,257.522384059
184.882,257.664079524
184.897,257.804233568
184.912,257.942867041
184.927,258.080000748
184.942,258.215655425
184.957,258.349851728
184.972,258.482610212
184.987,258.613951319
185.002,258.743895362
185.017,258.872462514
185.032,258.999672794
185.047,259.125546061
185.062,259.250101998
185.077,259.373360109
185.092,259.495339706
185.107,259.616059907
185.122,259.735539623
185.137,259.853797558
185.152,259.970852202
185.167,260.086721825
185.182,260.201424472
185.197,260.314977965
185.212,260.427399894
185.227,260.53870762
185.242,260.648918265
185.257,260.758048721
185.272,260.866115639
185.287,260.973135434
185.302,261.079124283
185.31,261.13523564
185.317,261.184098125
185.332,261.288072658
185.347,261.391063344
185.362,261.493085409
185.377,261.594153838
185.392,261.694283385
185.407,261.793488566
185.422,261.891783666
185.437,261.989182738
185.452,262.085699605
185.467,262.181347864
185.482,262.276140883
185.497,262.370091808
185.512,262.463213565
185.527,262.555518858
185.542,262.647020177
185.557,262.737729794
185.572,262.827659773
185.587,262.916821966
185.602,263.005228021
185.617,263.092889379
185.632,263.179817283
185.647,263.266022776
185.662,263.351516705
185.677,263.436309726
185.692,263.520412303
185.707,263.603834713
185.722,263.686587051
185.737,263.768679229
185.752,263.850120979
185.767,263.930921859
185.782,264.011091254
185.797,264.09063838
185.812,264.169572282
185.827,264.247901844
185.842,264.325635787
185.857,264.402782674
185.872,264.47935091
185.887,264.555348748
185.902,264.630784289
185.917,264.705665487
185.932,264.780000151
185.947,264.853795944
185.96,264.917322233
185.962,264.927060394
185.977,264.999800886
185.992,265.072024672
186.007,265.143738872
186.022,265.214950475
186.037,265.285666343
186.052,265.35589321
186.06,265.39314988
186.067,265.42563769
186.082,265.494906274
186.097,265.563705336
186.112,265.632041134
186.127,265.69991981
186.142,265.767347397
186.157,265.834329816
186.172,265.900872882
186.187,265.966982304
186.202,266.032663687
186.217,266.097922537
186.232,266.162764257
186.247,266.227194156
186.262,266.291217447
186.277,266.354839247
186.292,266.418064583
186.307,266.480898392
186.322,266.543345524
186.337,266.605410741
186.352,266.66709872
186.367,266.728414056
186.382,266.789361263
186.397,266.849944775
186.412,266.910168947
186.427,266.970038059
186.442,267.029556315
186.457,267.088727845
186.472,267.14755671
186.487,267.206046896
186.502,267.264202323
186.517,267.322026843
186.532,267.379524241
186.547,267.436698236
186.562,267.493552486
186.577,267.550090583
186.592,267.606316062
186.607,267.662232395
186.622,267.717842997
186.637,267.773151223
186.652,267.828160374
186.667,267.882873696
186.682,267.93729438
186.697,267.991425563
186.71,268.038107468
186.712,268.045270332
186.727,268.098831722
186.742,268.152112718
186.757,268.205116257
186.772,268.257845227
186.787,268.310302471
186.802,268.362490784
186.817,268.414412916
186.832,268.466071574
186.847,268.517469422
186.862,268.56860908
186.877,268.619493128
186.892,268.670124105
186.907,268.720504508
186.922,268.770636798
186.937,268.820523397
186.952,268.870166687
186.967,268.919569015
186.982,268.968732693
186.997,269.017659996
187.012,269.066353165
187.027,269.114814405
187.042,269.163045891
187.057,269.211049763
187.072,269.25882813
187.087,269.306383069
187.102,269.353716626
187.117,269.400830817
187.132,269.44772763
187.147,269.49440902
187.162,269.540876918
187.177,269.587133224
187.192,269.633179811
187.207,269.679018527
187.222,269.724651191
187.237,269.770079599
187.252,269.815305518
187.267,269.860330693
187.282,269.905156843
187.297,269.949785665
187.312,269.99421883
187.327,270.038457988
187.342,270.082504764
187.357,270.126360762
187.372,270.170027566
187.387,270.213506735
187.402,270.256799809
187.417,270.299908308
187.432,270.34283373
187.447,270.385577555
187.46,270.422476438
187.462,270.42814124
187.477,270.470526228
187.492,270.512733938
187.507,270.554765774
187.522,270.59662312
187.537,270.638307343
187.552,270.679819792
187.567,270.721161798
187.582,270.762334678
187.597,270.803339728
187.612,270.844178231
187.627,270.884851454
187.642,270.925360645
187.657,270.96570704
187.672,271.005891857
187.687,271.045916302
187.702,271.085781563
187.717,271.125488815
187.732,271.16503922
187.747,271.204433925
187.762,271.243674061
187.777,271.28276075
187.792,271.321695096
187.807,271.360478192
187.822,271.39911112
187.837,271.437594946
187.852,271.475930726
187.867,271.514119501
187.882,271.552162303
187.897,271.59006015
187.912,271.62781405
187.927,271.665424997
187.942,271.702893977
187.957,271.740221962
187.972,271.777409914
187.987,271.814458784
188.002,271.851369514
188.017,271.888143033
188.032,271.924780261
188.047,271.961282108
188.062,271.997649473
188.077,272.033883247
188.092,272.06998431
188.107,272.105953531
188.122,272.141791774
188.137,272.177499888
188.152,272.213078718
188.167,272.248529097
188.182,272.283851849
188.197,272.319047792
188.21,272.349448991
188.212,272.354117732
188.227,272.389062469
188.242,272.423882794
188.257,272.458579489
188.272,272.493153328
188.287,272.527605078
188.302,272.561935498
188.317,272.596145338
188.332,272.630235341
188.347,272.664206242
188.362,272.69805877
188.377,272.731793645
188.392,272.765411582
188.407,272.798913284
188.422,272.832299454
188.437,272.865570781
188.452,272.898727952
188.467,272.931771645
188.482,272.964702533
188.497,272.99752128
188.512,273.030228545
188.527,273.06282498
188.542,273.095311233
188.557,273.127687942
188.572,273.15995574
188.587,273.192115257
188.602,273.224167112
188.617,273.256111922
188.632,273.287950296
188.647,273.319682839
188.66,273.347099232
188.662,273.351310148
188.677,273.382832816
188.692,273.41425143
188.707,273.445566572
188.722,273.476778818
188.737,273.507888738
