# 48698 WSSS Singapore Observations at 12Z 16 Aug 2020
Frequency [GHz],TB
175.31,273.704835817
175.322,273.682118912
175.337,273.65366382
175.352,273.625143056
175.367,273.596556461
175.382,273.567903884
175.397,273.539185166
175.412,273.510400147
175.427,273.481548651
175.442,273.45263054
175.457,273.423645634
175.472,273.394593769
175.487,273.365474803
175.502,273.336288556
175.517,273.30703487
175.532,273.27771357
175.547,273.248324489
175.562,273.218867469
175.577,273.189342354
175.592,273.159748944
175.607,273.130087092
175.622,273.100356622
175.637,273.070557374
175.652,273.040689175
175.667,273.010751837
175.682,272.980745195
175.697,272.950669089
175.712,272.920523326
175.727,272.890307749
175.742,272.86002216
175.757,272.829666414
175.772,272.799240305
175.787,272.768743672
175.802,272.738176339
175.817,272.707538115
175.832,272.676828835
175.847,272.646048304
175.862,272.615196341
175.877,272.584272792
175.892,272.55327744
175.907,272.522210118
175.922,272.491070643
175.937,272.459858825
175.952,272.428574481
175.967,272.397217421
175.982,272.365787465
175.997,272.334284424
176.012,272.302708112
176.027,272.271058329
176.042,272.239334896
176.057,272.207537626
176.072,272.175666312
176.087,272.143720785
176.102,272.111700826
176.117,272.079606257
176.132,272.047436882
176.147,272.015192504
176.162,271.982872934
176.177,271.950477959
176.192,271.918007401
176.207,271.885461054
176.222,271.852838717
176.237,271.820140196
176.252,271.787365291
176.267,271.754513792
176.282,271.721585505
176.297,271.688580226
176.31,271.65991322
176.312,271.655497751
176.327,271.622337879
176.342,271.589100404
176.357,271.555785127
176.372,271.522391821
176.387,271.488920299
176.402,271.455370349
176.417,271.421741753
176.432,271.388034316
176.447,271.354247814
176.46,271.324902073
176.462,271.320382052
176.477,271.286436807
176.492,271.25241187
176.507,271.218307033
176.522,271.184122069
176.537,271.149856772
176.552,271.11551092
176.567,271.081084309
176.582,271.046576718
176.597,271.011987921
176.612,270.977317703
176.627,270.942565856
176.642,270.907732143
176.657,270.872816353
176.672,270.837818266
176.687,270.802737652
176.702,270.767574302
176.717,270.732327965
176.732,270.696998444
176.747,270.661585494
176.762,270.626088901
176.777,270.590508439
176.792,270.554843865
176.807,270.519094975
176.822,270.483261512
176.837,270.447343264
176.852,270.411339993
176.867,270.375251467
176.882,270.33907746
176.897,270.30281773
176.912,270.266472046
176.927,270.230040167
176.942,270.193521877
176.957,270.156916919
176.972,270.120225065
176.987,270.083446066
177.002,270.046579697
177.017,270.009625717
177.032,269.972583876
177.047,269.935453927
177.062,269.898235649
177.077,269.860928782
177.092,269.823533088
177.107,269.786048326
177.122,269.74847425
177.137,269.710810596
177.152,269.673057133
177.167,269.635213617
177.182,269.597279799
177.197,269.559255409
177.21,269.526227497
177.212,269.52114021
177.227,269.482933959
177.242,269.44463639
177.257,269.406247261
177.272,269.367766301
177.287,269.329193281
177.302,269.290527925
177.31,269.269868557
177.317,269.251769985
177.332,269.212919195
177.347,269.173975309
177.362,269.134938061
177.377,269.095807196
177.392,269.056582446
177.407,269.017263552
177.422,268.977850255
177.437,268.938342282
177.452,268.898739387
177.467,268.859041286
177.482,268.819247722
177.497,268.779358438
177.512,268.739373134
177.527,268.699291581
177.542,268.659113486
177.557,268.618838584
177.572,268.5784666
177.587,268.537997264
177.602,268.497430305
177.617,268.45676545
177.632,268.416002429
177.647,268.375140941
177.66,268.339647804
177.662,268.334180731
177.677,268.293121518
177.692,268.251963023
177.707,268.210704969
177.722,268.169347066
177.737,268.127889036
177.752,268.08633059
177.767,268.044671462
177.782,268.002911353
177.797,267.961049977
177.812,267.919087057
177.827,267.877022296
177.842,267.834855407
177.857,267.792586101
177.872,267.750214083
177.887,267.707739078
177.902,267.665160767
177.917,267.622478879
177.932,267.579693102
177.947,267.536803148
177.96,267.499547357
177.962,267.493808717
177.977,267.450709515
177.992,267.407505235
178.007,267.364195586
178.022,267.320780255
178.037,267.27725894
178.052,267.233631337
178.067,267.189897153
178.082,267.146056061
178.097,267.102107769
178.112,267.058051972
178.127,267.013888334
178.142,266.96961657
178.157,266.925236348
178.172,266.880747371
178.187,266.836149304
178.202,266.791441845
178.217,266.74662467
178.232,266.701697465
178.247,266.656659892
178.262,266.611511643
178.277,266.566252394
178.292,266.520881825
178.307,266.475399586
178.322,266.429805375
178.337,266.384098841
178.352,266.338279669
178.367,266.29234751
178.382,266.24630204
178.397,266.200142926
178.41,266.160046167
178.412,266.153869822
178.427,266.107482394
178.442,266.060980295
178.457,266.014363189
178.472,265.967630716
178.487,265.920782556
178.502,265.873818333
178.517,265.826737719
178.532,265.779540342
178.547,265.73222587
178.562,265.684793929
178.577,265.637244164
178.592,265.589576223
178.607,265.541789739
178.622,265.493884346
178.637,265.445859683
178.652,265.397715385
178.667,265.349451069
178.682,265.30106637
178.697,265.252560911
178.712,265.203934317
178.727,265.155186208
178.742,265.106316199
178.757,265.05732391
178.772,265.008208947
178.787,264.95897093
178.802,264.909609454
178.817,264.860124135
178.832,264.810514572
178.847,264.760780363
178.862,264.710921112
178.877,264.660936402
178.892,264.610825828
178.907,264.560588978
178.922,264.510225445
178.937,264.459734797
178.952,264.409116621
178.967,264.358370495
178.982,264.307495982
178.997,264.25649266
179.012,264.205360091
179.027,264.154097828
179.042,264.102705445
179.057,264.051182483
179.072,263.999528497
179.087,263.94774304
179.102,263.895825655
179.117,263.843775864
179.132,263.79159323
179.147,263.739277255
179.16,263.69382854
179.162,263.686827489
179.177,263.634243441
179.192,263.581524625
179.207,263.52867057
179.222,263.47568078
179.237,263.42255475
179.252,263.369291989
179.267,263.315891983
179.282,263.262354237
179.297,263.20867821
179.312,263.154863405
179.327,263.100909296
179.342,263.046815332
179.357,262.992580985
179.372,262.93820571
179.387,262.883688969
179.402,262.829030199
179.417,262.774228843
179.432,262.719284334
179.447,262.664196092
179.462,262.608963542
179.477,262.553586098
179.492,262.498063176
179.507,262.442394153
179.522,262.386578454
179.537,262.330615442
179.552,262.27450451
179.567,262.218245018
179.582,262.161836333
179.597,262.105277807
179.612,262.0485688
179.627,261.991708637
179.642,261.934696667
179.657,261.877532197
179.672,261.820214547
179.687,261.76274303
179.702,261.705116933
179.717,261.647335551
179.732,261.589398146
179.747,261.531304007
179.762,261.473052375
179.777,261.414642512
179.792,261.356073646
179.807,261.297345009
179.822,261.238455819
179.837,261.17940526
179.852,261.120192553
179.867,261.060816881
179.882,261.001277395
179.897,260.941573272
179.91,260.889695852
179.912,260.881703641
179.927,260.821667654
179.942,260.761464426
179.957,260.701093053
179.972,260.640552644
179.987,260.57984227
180.002,260.518961002
180.017,260.457907897
180.032,260.396681982
180.047,260.335282292
180.062,260.273707825
180.077,260.21195758
180.092,260.150030516
180.107,260.087925611
180.122,260.025641802
180.137,259.96317801
180.152,259.900533131
180.167,259.837706086
180.182,259.77469572
180.197,259.711500894
180.212,259.64812044
180.227,259.584553175
180.242,259.52079788
180.257,259.456853333
180.272,259.392718286
180.287,259.328391486
180.302,259.263871609
180.317,259.199157365
180.332,259.134247394
180.347,259.069140356
180.362,259.003834855
180.377,258.938329486
180.392,258.872622796
180.407,258.806713336
180.422,258.740599622
180.437,258.674280125
180.452,258.607753319
180.467,258.541017611
180.482,258.474071419
180.497,258.406913091
180.512,258.339540991
180.527,258.2719534
180.542,258.204148612
180.557,258.136124859
180.56,258.122493688
180.572,258.067880365
180.587,257.999413293
180.602,257.930721783
180.617,257.861803941
180.632,257.792657838
180.647,257.723281497
180.66,257.662967561
180.662,257.653672924
180.677,257.583830066
180.692,257.51375083
180.707,257.443433095
180.722,257.372874685
180.737,257.302073401
180.752,257.231026976
180.767,257.159733112
180.782,257.08818946
180.797,257.016393636
180.812,256.944343195
180.827,256.872035643
180.842,256.799468448
180.857,256.726639015
180.872,256.653544723
180.887,256.580182854
180.902,256.506550668
180.917,256.432645363
180.932,256.358464083
180.947,256.284003899
180.962,256.209261854
180.977,256.134234902
180.992,256.058919952
181.007,255.983313848
181.022,255.907413365
181.037,255.831215219
181.052,255.754716066
181.067,255.677912488
181.082,255.600800991
181.097,255.523378033
181.112,255.445639992
181.127,255.367583149
181.142,255.289203752
181.157,255.21049796
181.172,255.131461849
181.187,255.052091426
181.202,254.972382622
181.217,254.892331284
181.232,254.811933173
181.247,254.731183991
181.262,254.650079328
181.277,254.568614712
181.292,254.486785581
181.307,254.404587282
181.31,254.388102904
181.322,254.322015081
181.337,254.239064155
181.352,254.155729581
181.367,254.072006361
181.382,253.987889407
181.397,253.903373518
181.412,253.818453427
181.427,253.733123729
181.442,253.647378992
181.457,253.561213634
181.472,253.474621991
181.487,253.38759831
181.502,253.300136732
181.517,253.212231297
181.532,253.123875961
181.547,253.035064569
181.562,252.94579086
181.577,252.856048497
181.592,252.765831017
181.607,252.675131881
181.622,252.583944445
181.637,252.492261935
181.652,252.400077535
181.667,252.307384274
181.682,252.214175135
181.697,252.120442959
181.712,252.026180525
181.727,251.931380507
181.742,251.836035496
181.757,251.740137964
181.772,251.643680338
181.787,251.546654918
181.802,251.449053959
181.817,251.350869602
181.832,251.252093945
181.847,251.15271899
181.862,251.052736685
181.877,250.952138904
181.892,250.850917474
181.907,250.74906415
181.922,250.64657067
181.937,250.543428714
181.952,250.439629929
181.967,250.335165952
181.982,250.230028377
181.997,250.124208822
182.012,250.017698902
182.027,249.910490235
182.042,249.802574463
182.057,249.693943297
182.06,249.672130484
182.072,249.584588453
182.087,249.474501775
182.102,249.363675138
182.117,249.252100535
182.132,249.139770081
182.147,249.026676026
182.162,248.912810781
182.177,248.798166924
182.192,248.682737251
182.207,248.566514776
182.222,248.449492753
182.237,248.331664753
182.252,248.213024612
182.267,248.09356654
182.282,247.973285094
182.297,247.852175274
182.312,247.730232477
182.327,247.60745263
182.342,247.483832137
182.357,247.35936799
182.372,247.23405779
182.387,247.10789978
182.402,246.980892896
182.417,246.853036841
182.432,246.724332111
182.447,246.59478004
182.462,246.464382901
182.477,246.333143886
182.492,246.201067247
182.507,246.0681583
182.522,245.934423483
182.537,245.799870459
182.552,245.664508116
182.567,245.528346665
182.582,245.391397703
182.597,245.25367422
182.612,245.115190695
182.627,244.975963128
182.642,244.836009077
182.657,244.695347675
182.672,244.553999668
182.687,244.411987434
182.702,244.269334935
182.717,244.12606769
182.732,243.982212773
182.747,243.83779863
182.762,243.692854999
182.777,243.547412722
182.792,243.401503456
182.807,243.255159401
182.822,243.108412799
182.837,242.961295419
182.852,242.813837859
182.867,242.6660686
182.882,242.518012877
182.897,242.369691219
182.912,242.221117602
182.927,242.072297116
182.942,241.923222957
182.957,241.773872652
182.972,241.624203186
182.987,241.474144787
183.002,241.323592927
183.017,241.17239784
183.032,241.020351124
183.047,240.867167809
183.062,240.712463108
183.077,240.555721211
183.092,240.396253749
183.107,240.23314388
183.122,240.06517064
183.137,239.890706362
183.152,239.707577726
183.167,239.51287925
183.182,239.302729613
183.197,239.071974012
183.212,238.813883994
183.227,238.520058942
183.242,238.181182789
183.257,237.790534938
183.367,237.881118788
183.382,238.255246541
183.397,238.578723019
183.412,238.859537568
183.427,239.10693572
183.442,239.328907835
183.457,239.53175668
183.472,239.720282047
183.487,239.898090073
183.502,240.067878893
183.517,240.231667048
183.532,240.390966839
183.547,240.546912936
183.562,240.700357298
183.577,240.851939223
183.592,241.002137109
183.607,241.151307158
183.622,241.29971221
183.637,241.447543572
183.652,241.594937632
183.667,241.741988476
183.682,241.88875764
183.697,242.035281634
183.712,242.181577789
183.727,242.327648799
183.742,242.473486337
183.757,242.619073808
183.772,242.764388613
183.787,242.909403824
183.802,243.054089633
183.817,243.198414374
183.832,243.342345411
183.847,243.485849777
183.862,243.628894726
183.877,243.771448124
183.892,243.913478767
183.907,244.054956592
183.922,244.195852861
183.937,244.336140307
183.952,244.4757932
183.967,244.614787394
183.982,244.75310035
183.997,244.890711166
184.012,245.027600554
184.027,245.16375082
184.042,245.299145816
184.057,245.433770904
184.072,245.567612942
184.087,245.700660173
184.102,245.832902234
184.117,245.964330029
184.132,246.094935751
184.147,246.224712773
184.162,246.353655557
184.177,246.481759689
184.192,246.60902173
184.207,246.735439231
184.222,246.861010603
184.237,246.985735145
184.252,247.109612927
184.267,247.232644761
184.282,247.354832159
184.297,247.476177293
184.312,247.596682928
184.327,247.716352378
184.342,247.835189493
184.357,247.953198607
184.372,248.070384475
184.387,248.186752272
184.402,248.302307537
184.417,248.417056171
184.432,248.531004351
184.447,248.64415856
184.462,248.756525538
184.477,248.868112231
184.492,248.978925801
184.507,249.088973602
184.522,249.198263129
184.537,249.306802014
184.552,249.41459805
184.56,249.471788228
184.567,249.521659075
184.582,249.627993055
184.597,249.733608009
184.612,249.838512024
184.627,249.942713212
184.642,250.046219739
184.657,250.149039771
184.672,250.251181483
184.687,250.35265307
184.702,250.45346268
184.717,250.553618475
184.732,250.653128564
184.747,250.752001038
184.762,250.850243934
184.777,250.947865257
184.792,251.044872938
184.807,251.141274864
184.822,251.237078847
184.837,251.332292652
184.852,251.426923958
184.867,251.520980346
184.882,251.614469374
184.897,251.707398474
184.912,251.799775018
184.927,251.891606262
184.942,251.982899434
184.957,252.0736616
184.972,252.163899781
184.987,252.253620903
185.002,252.342831794
185.017,252.431539191
185.032,252.519749713
185.047,252.60746993
185.062,252.694706277
185.077,252.781465111
185.092,252.86775269
185.107,252.953575182
185.122,253.038938663
185.137,253.123849087
185.152,253.208312355
185.167,253.292334226
185.182,253.375920425
185.197,253.459076531
185.212,253.54180805
185.227,253.6241204
185.242,253.706018908
185.257,253.787508802
185.272,253.868595229
185.287,253.949283229
185.302,254.029577793
185.31,254.072242374
185.317,254.109483789
185.332,254.189006011
185.347,254.268149159
185.362,254.346917894
185.377,254.425316727
185.392,254.503350133
185.407,254.581022485
185.422,254.658338098
185.437,254.735301187
185.452,254.811915892
185.467,254.888186304
185.482,254.964116401
185.497,255.03971011
185.512,255.114971282
185.527,255.189903694
185.542,255.264511047
185.557,255.338796983
185.572,255.412765074
185.587,255.486418824
185.602,255.559761666
185.617,255.632796975
185.632,255.705528064
185.647,255.777958168
185.662,255.850090482
185.677,255.921928125
185.692,255.993474182
185.707,256.064731637
185.722,256.135703442
185.737,256.206392515
185.752,256.276801681
185.767,256.346933725
185.782,256.416791387
185.797,256.486377351
185.812,256.555694246
185.827,256.624744662
185.842,256.693531125
185.857,256.762056116
185.872,256.830322085
185.887,256.898331425
185.902,256.96608649
185.917,257.033589579
185.932,257.100842965
185.947,257.167848849
185.96,257.225722108
185.962,257.234609429
185.977,257.301126826
185.992,257.36740317
186.007,257.433440495
186.022,257.499240834
186.037,257.564806177
186.052,257.630138472
186.06,257.66488774
186.067,257.695239643
186.082,257.760111542
186.097,257.824756056
186.112,257.889174973
186.127,257.953370082
186.142,258.017343129
186.157,258.081095842
186.172,258.144629897
186.187,258.207946962
186.202,258.271048671
186.217,258.333936607
186.232,258.39661237
186.247,258.45907749
186.262,258.521333493
186.277,258.583381866
186.292,258.645224085
186.307,258.706861602
186.322,258.768295822
186.337,258.829528148
186.352,258.890559956
186.367,258.951392589
186.382,259.012027391
186.397,259.072465659
186.412,259.132708679
186.427,259.19275771
186.442,259.252614008
186.457,259.312278789
186.472,259.371753275
186.487,259.431038627
186.502,259.490136031
186.517,259.549046643
186.532,259.607771575
186.547,259.666311961
186.562,259.724668885
186.577,259.782843432
186.592,259.840836676
186.607,259.89864966
186.622,259.956283415
186.637,260.01373896
186.652,260.071017311
186.667,260.128119447
186.682,260.185046336
186.697,260.241798944
186.71,260.290844312
186.712,260.298378235
186.727,260.35478512
186.742,260.411020533
186.757,260.46708537
186.772,260.52298055
186.787,260.578706932
186.802,260.634265392
186.817,260.689656811
186.832,260.744882013
186.847,260.799941844
186.862,260.854837132
186.877,260.909568681
186.892,260.964137319
186.907,261.018543812
186.922,261.072788952
186.937,261.126873535
186.952,261.180798299
186.967,261.234564009
186.982,261.288171416
186.997,261.341621252
187.012,261.394914244
187.027,261.448051099
187.042,261.501032557
187.057,261.553859287
187.072,261.606531999
187.087,261.659051384
187.102,261.71141811
187.117,261.76363284
187.132,261.815696252
187.147,261.867608995
187.162,261.919371705
187.177,261.970985039
187.192,262.022449626
187.207,262.073766087
187.222,262.124935038
187.237,262.17595711
187.252,262.226832893
187.267,262.277562985
187.282,262.32814799
187.297,262.378588496
187.312,262.428885073
187.327,262.479038317
187.342,262.529048775
187.357,262.578917023
187.372,262.628643627
187.387,262.678229124
187.402,262.727674074
187.417,262.776979018
187.432,262.826144488
187.447,262.875171028
187.46,262.917548718
187.462,262.924059154
187.477,262.9728094
187.492,263.021422272
187.507,263.069898292
187.522,263.118237966
187.537,263.166441796
187.552,263.214510291
187.567,263.26244394
187.582,263.310243235
187.597,263.357908671
187.612,263.405440705
187.627,263.452839856
187.642,263.50010657
187.657,263.547241328
187.672,263.594244597
187.687,263.641116838
187.702,263.687858513
187.717,263.73447008
187.732,263.780952001
187.747,263.827304706
187.762,263.873528656
187.777,263.919624288
187.792,263.96559204
187.807,264.011432356
187.822,264.057145664
187.837,264.1027324
187.852,264.148192974
187.867,264.193527832
187.882,264.23873738
187.897,264.283822043
187.912,264.328782235
187.927,264.373618366
187.942,264.418330855
187.957,264.462920101
187.972,264.507386511
187.987,264.551730485
188.002,264.595952414
188.017,264.640052706
188.032,264.684031763
188.047,264.727889958
188.062,264.771627687
188.077,264.815245349
188.092,264.858743313
188.107,264.902121965
188.122,264.945381688
188.137,264.988522862
188.152,265.031545856
188.167,265.074451047
188.182,265.117238815
188.197,265.159909516
188.21,265.196796385
188.212,265.202463521
188.227,265.244901204
188.242,265.287222914
188.257,265.329429028
188.272,265.371519888
188.287,265.413495868
188.302,265.455357306
188.317,265.497104576
188.332,265.538738017
188.347,265.580257984
188.362,265.621664828
188.377,265.662958887
188.392,265.704140507
188.407,265.745210042
188.422,265.786167819
188.437,265.827014194
188.452,265.86774949
188.467,265.908374048
188.482,265.948888215
188.497,265.989292307
188.512,266.029586665
188.527,266.069771629
188.542,266.109847509
188.557,266.149814638
188.572,266.189673357
188.587,266.22942397
188.602,266.269066811
188.617,266.308602201
188.632,266.34803046
188.647,266.387351903
188.66,266.421344334
188.662,266.426566854
188.677,266.465675628
188.692,266.504678531
188.707,266.543575891
188.722,266.582368015
188.737,266.621055209
188.752,266.65963778
