# 01004 ENAS Ny-Alesund Ii Observations at 12Z 09 Jan 2019
Frequency [GHz],TB
175.31,220.023750037
175.322,220.096360755
175.337,220.187317163
175.352,220.27848804
175.367,220.369873356
175.382,220.461473089
175.397,220.55328721
175.412,220.645315662
175.427,220.737558409
175.442,220.830015372
175.457,220.922686486
175.472,221.015571668
175.487,221.108670819
175.502,221.201983847
175.517,221.295510638
175.532,221.389251059
175.547,221.483204986
175.562,221.577372275
175.577,221.671752765
175.592,221.766346299
175.607,221.861152688
175.622,221.956171758
175.637,222.051403304
175.652,222.146847114
175.667,222.242502962
175.682,222.338370627
175.697,222.434449853
175.712,222.530740382
175.727,222.627241944
175.742,222.723954261
175.757,222.820877035
175.772,222.918009959
175.787,223.015352708
175.802,223.112904953
175.817,223.210666345
175.832,223.308636524
175.847,223.40681511
175.862,223.505201726
175.877,223.60379596
175.892,223.702597402
175.907,223.801605624
175.922,223.900820168
175.937,224.000240592
175.952,224.099866411
175.967,224.199697141
175.982,224.299732277
175.997,224.399971298
176.012,224.500413665
176.027,224.601058835
176.042,224.70190624
176.057,224.802955293
176.072,224.904205398
176.087,225.005655933
176.102,225.107306279
176.117,225.209155776
176.132,225.311203761
176.147,225.413449549
176.162,225.515892444
176.177,225.618531721
176.192,225.721366652
176.207,225.824396473
176.222,225.927620412
176.237,226.031037688
176.252,226.13464748
176.267,226.238448964
176.282,226.342441288
176.297,226.446623591
176.31,226.537067902
176.312,226.550994979
176.327,226.655554553
176.342,226.760301383
176.357,226.865234516
176.372,226.970352993
176.387,227.075655823
176.402,227.181142001
176.417,227.286810483
176.432,227.392660241
176.447,227.498690179
176.46,227.590727707
176.462,227.604899216
176.477,227.711286236
176.492,227.817850093
176.507,227.924589627
176.522,228.031503661
176.537,228.138590981
176.552,228.245850361
176.567,228.353280545
176.582,228.460880262
176.597,228.5686482
176.612,228.676583044
176.627,228.784683442
176.642,228.892948016
176.657,229.001375372
176.672,229.109964086
176.687,229.218712706
176.702,229.32761976
176.717,229.436683745
176.732,229.545903142
176.747,229.655276384
176.762,229.764801905
176.777,229.874478093
176.792,229.984303318
176.807,230.094275913
176.822,230.2043942
176.837,230.314656452
176.852,230.425060934
176.867,230.535605869
176.882,230.64628946
176.897,230.757109879
176.912,230.868065257
176.927,230.979153721
176.942,231.090373344
176.957,231.201722177
176.972,231.313198253
176.987,231.424799561
177.002,231.536524059
177.017,231.648369679
177.032,231.760334324
177.047,231.872415855
177.062,231.984612123
177.077,232.096920925
177.092,232.209340039
177.107,232.321867199
177.122,232.43450012
177.137,232.547236474
177.152,232.660073906
177.167,232.773010025
177.182,232.886042408
177.197,232.999168591
177.21,233.09728524
177.212,233.112386092
177.227,233.225692377
177.242,233.339084891
177.257,233.452561034
177.272,233.566118177
177.287,233.679753654
177.302,233.793464768
177.31,233.854140674
177.317,233.907248773
177.332,234.021102905
177.347,234.135024351
177.362,234.249010266
177.377,234.363057769
177.392,234.477163939
177.407,234.591325825
177.422,234.705540427
177.437,234.819804718
177.452,234.934115632
177.467,235.04847006
177.482,235.162864854
177.497,235.277296833
177.512,235.391762787
177.527,235.506259436
177.542,235.620783496
177.557,235.735331626
177.572,235.849900444
177.587,235.964486533
177.602,236.079086445
177.617,236.193696672
177.632,236.308313684
177.647,236.422933907
177.66,236.52227123
177.662,236.537553717
177.677,236.652169459
177.692,236.766777435
177.707,236.881373909
177.722,236.995955095
177.737,237.110517175
177.752,237.22505629
177.767,237.339568529
177.782,237.454049953
177.797,237.568496572
177.812,237.68290436
177.827,237.797269243
177.842,237.911587114
177.857,238.025853814
177.872,238.140065147
177.887,238.254216879
177.902,238.368304728
177.917,238.482324369
177.932,238.596271437
177.947,238.71014152
177.96,238.808763223
177.962,238.823930179
177.977,238.937632916
177.992,239.051245198
178.007,239.164762442
178.022,239.278180036
178.037,239.391493311
178.052,239.50469757
178.067,239.617788056
178.082,239.730759989
178.097,239.843608535
178.112,239.956328817
178.127,240.068915922
178.142,240.181364886
178.157,240.293670723
178.172,240.405828373
178.187,240.517832762
178.202,240.629678764
178.217,240.741361209
178.232,240.852874892
178.247,240.96421456
178.262,241.075374917
178.277,241.18635064
178.292,241.297136354
178.307,241.407726643
178.322,241.518116053
178.337,241.628299094
178.352,241.738270237
178.367,241.848023898
178.382,241.957554468
178.397,242.066856304
178.41,242.161395135
178.412,242.175923707
178.427,242.284750953
178.442,242.393332276
178.457,242.501661864
178.472,242.60973389
178.487,242.71754247
178.502,242.825081686
178.517,242.932345589
178.532,243.0393282
178.547,243.146023487
178.562,243.252425398
178.577,243.358527847
178.592,243.464324703
178.607,243.56980981
178.622,243.674976982
178.637,243.779819997
178.652,243.884332596
178.667,243.988508497
178.682,244.092341388
178.697,244.195824916
178.712,244.298952712
178.727,244.401718377
178.742,244.504115477
178.757,244.606137556
178.772,244.707778126
178.787,244.809030679
178.802,244.90988869
178.817,245.010345587
178.832,245.110394802
178.847,245.210029723
178.862,245.30924373
178.877,245.408030169
178.892,245.506382379
178.907,245.604293679
178.922,245.701757362
178.937,245.798766711
178.952,245.89531498
178.967,245.991395431
178.982,246.087001293
178.997,246.182125787
179.012,246.276762125
179.027,246.370903501
179.042,246.464543112
179.057,246.557674129
179.072,246.650289732
179.087,246.742383078
179.102,246.833947334
179.117,246.924975658
179.132,247.015461196
179.147,247.105397104
179.16,247.182891679
179.162,247.194776536
179.177,247.283592636
179.192,247.371838569
179.207,247.459507481
179.222,247.546592541
179.237,247.633086913
179.252,247.718983774
179.267,247.804276315
179.282,247.88895772
179.297,247.973021197
179.312,248.056459966
179.327,248.139267266
179.342,248.221436341
179.357,248.302960456
179.372,248.383832904
179.387,248.464046985
179.402,248.543596029
179.417,248.622473381
179.432,248.700672428
179.447,248.778186571
179.462,248.855009235
179.477,248.931133886
179.492,249.006554015
179.507,249.081263151
179.522,249.155254846
179.537,249.228522698
179.552,249.301060346
179.567,249.372861457
179.582,249.443919748
179.597,249.514228975
179.612,249.583782938
179.627,249.652575493
179.642,249.720600527
179.657,249.787851986
179.672,249.854323861
179.687,249.920010207
179.702,249.984905129
179.717,250.049002781
179.732,250.11229738
179.747,250.1747832
179.762,250.236454582
179.777,250.297305923
179.792,250.357331687
179.807,250.416526404
179.822,250.474884671
179.837,250.532401157
179.852,250.589070597
179.867,250.644887804
179.882,250.699847659
179.897,250.753945116
179.91,250.800128161
179.912,250.807175222
179.927,250.859533082
179.942,250.911013894
179.957,250.961612934
179.972,251.011325567
179.987,251.060147227
180.002,251.108073448
180.017,251.155099848
180.032,251.201222129
180.047,251.246436087
180.062,251.290737606
180.077,251.33412267
180.092,251.376587339
180.107,251.418127789
180.122,251.458740283
180.137,251.498421176
180.152,251.537166932
180.167,251.574974095
180.182,251.611839337
180.197,251.647759402
180.212,251.682731156
180.227,251.716751569
180.242,251.749817692
180.257,251.7819267
180.272,251.813075874
180.287,251.843262593
180.302,251.872484335
180.317,251.900738703
180.332,251.928023396
180.347,251.954336225
180.362,251.979675091
180.377,252.004038036
180.392,252.027423191
180.407,252.049828791
180.422,252.071253187
180.437,252.091694841
180.452,252.111152324
180.467,252.129624306
180.482,252.147109577
180.497,252.163607028
180.512,252.179115661
180.527,252.193634587
180.542,252.207163021
180.557,252.219700291
180.56,252.222088754
180.572,252.231245817
180.587,252.241799142
180.602,252.251359904
180.617,252.25992784
180.632,252.267502806
180.647,252.274084753
180.66,252.278985892
180.662,252.279673723
180.677,252.284269867
180.692,252.287873441
180.707,252.290484788
180.722,252.292104357
180.737,252.292732682
180.752,252.292370402
180.767,252.29101824
180.782,252.288677013
180.797,252.285347628
180.812,252.28103108
180.827,252.275728444
180.842,252.269440889
180.857,252.262169658
180.872,252.253916084
180.887,252.244681563
180.902,252.234467584
180.917,252.223275701
180.932,252.211107545
180.947,252.197964813
180.962,252.183849274
180.977,252.168762758
180.992,252.15270717
181.007,252.135684462
181.022,252.117696656
181.037,252.098745831
181.052,252.078834103
181.067,252.057963672
181.082,252.036136767
181.097,252.013355659
181.112,251.989622681
181.127,251.964940204
181.142,251.939310631
181.157,251.912736417
181.172,251.885220049
181.187,251.856764041
181.202,251.827370946
181.217,251.797043347
181.232,251.765783851
181.247,251.733595092
181.262,251.70047973
181.277,251.666440441
181.292,251.631479934
181.307,251.595600916
181.31,251.588315137
181.322,251.558806133
181.337,251.521098326
181.352,251.482480261
181.367,251.442954725
181.382,251.402524487
181.397,251.361192356
181.412,251.318961139
181.427,251.275833641
181.442,251.231812699
181.457,251.18690113
181.472,251.141101784
181.487,251.094417498
181.502,251.046851124
181.517,250.998405524
181.532,250.949083571
181.547,250.898888133
181.562,250.847822106
181.577,250.795888385
181.592,250.743089886
181.607,250.689429532
181.622,250.634910273
181.637,250.579535074
181.652,250.523306915
181.667,250.466228823
181.682,250.408303831
181.697,250.349535014
181.712,250.289925487
181.727,250.229478408
181.742,250.168196976
181.757,250.106084446
181.772,250.04314412
181.787,249.979379386
181.802,249.914793675
181.817,249.849390516
181.832,249.783173517
181.847,249.716146373
181.862,249.648312882
181.877,249.579676955
181.892,249.510242626
181.907,249.440014041
181.922,249.368995489
181.937,249.297191428
181.952,249.224606447
181.967,249.151245325
181.982,249.077113014
181.997,249.002214667
182.012,248.926555644
182.027,248.85014153
182.042,248.772978125
182.057,248.695071506
182.06,248.679401543
182.072,248.616427983
182.087,248.537054173
182.102,248.456956963
182.117,248.376143547
182.132,248.294621449
182.147,248.212398525
182.162,248.129482973
182.177,248.045883373
182.192,247.961608668
182.207,247.876668205
182.222,247.791071732
182.237,247.704829421
182.252,247.617951881
182.267,247.530450159
182.282,247.442335747
182.297,247.353620621
182.312,247.264317205
182.327,247.174438402
182.342,247.083997597
182.357,246.993008642
182.372,246.901485871
182.387,246.809444063
182.402,246.716898471
182.417,246.623864766
182.432,246.530359047
182.447,246.436397777
182.462,246.341997789
182.477,246.247176201
182.492,246.151950397
182.507,246.056337933
182.522,245.960356479
182.537,245.864023718
182.552,245.767357244
182.567,245.670374441
182.582,245.573092323
182.597,245.475527389
182.612,245.377695389
182.627,245.279611135
182.642,245.181288219
182.657,245.082738712
182.672,244.983972822
182.687,244.88499847
182.702,244.785820859
182.717,244.686441894
182.732,244.586859597
182.747,244.487067359
182.762,244.387053119
182.777,244.286798392
182.792,244.186277146
182.807,244.085454445
182.822,243.984284955
182.837,243.882711103
182.852,243.780660937
182.867,243.678045615
182.882,243.574756397
182.897,243.470661071
182.912,243.36559966
182.927,243.259379303
182.942,243.151767972
182.957,243.042486924
182.972,242.931201419
182.987,242.81750931
183.002,242.700926868
183.017,242.580871169
183.032,242.456637914
183.047,242.327373377
183.062,242.192038626
183.077,242.049363565
183.092,241.897787518
183.107,241.735381776
183.122,241.559748497
183.137,241.367888384
183.152,241.156028996
183.167,240.919406387
183.182,240.652001817
183.197,240.346264677
183.212,239.992940426
183.227,239.581364143
183.242,239.101229847
183.257,238.548482541
183.367,238.679717094
183.382,239.210546249
183.397,239.6686341
183.412,240.060584137
183.427,240.397110558
183.442,240.688596399
183.457,240.943859077
183.472,241.170033683
183.487,241.372791797
183.502,241.556621075
183.517,241.725078178
183.532,241.880994745
183.547,242.026638242
183.562,242.163835496
183.577,242.294067105
183.592,242.418539793
183.607,242.538241998
183.622,242.65398696
183.637,242.766446306
183.652,242.876176445
183.667,242.98363944
183.682,243.089219725
183.697,243.193237425
183.712,243.295959214
183.727,243.397607112
183.742,243.498365663
183.757,243.59838792
183.772,243.697800328
183.787,243.796706797
183.802,243.895192153
183.817,243.993324988
183.832,244.091160082
183.847,244.188740452
183.862,244.286099091
183.877,244.383260462
183.892,244.480241762
183.907,244.577054
183.922,244.673702946
183.937,244.77018993
183.952,244.866512545
183.967,244.96266522
183.982,245.05863979
183.997,245.154425879
184.012,245.25001137
184.027,245.345382678
184.042,245.440525061
184.057,245.535422902
184.072,245.630059883
184.087,245.724419222
184.102,245.818483791
184.117,245.912236305
184.132,246.005659394
184.147,246.098735755
184.162,246.191448201
184.177,246.283779757
184.192,246.375713728
184.207,246.467233723
184.222,246.558323725
184.237,246.648968123
184.252,246.739151722
184.267,246.828859788
184.282,246.918078054
184.297,247.006792721
184.312,247.09499048
184.327,247.182658511
184.342,247.269784485
184.357,247.356356552
184.372,247.442363356
184.387,247.527794009
184.402,247.612638086
184.417,247.696885635
184.432,247.780527129
184.447,247.86355349
184.462,247.945956071
184.477,248.0277266
184.492,248.108857233
184.507,248.189340488
184.522,248.269169256
184.537,248.348336772
184.552,248.426836618
184.56,248.468428075
184.567,248.504662681
184.582,248.581809171
184.597,248.658270583
184.612,248.734041687
184.627,248.809117515
184.642,248.883493361
184.657,248.957164742
184.672,249.030127405
184.687,249.102377318
184.702,249.173910621
184.717,249.244723657
184.732,249.314812948
184.747,249.38417517
184.762,249.452807157
184.777,249.520705877
184.792,249.587868439
184.807,249.654292064
184.822,249.719974111
184.837,249.784912017
184.852,249.84910333
184.867,249.912545683
184.882,249.975236795
184.897,250.03717445
184.912,250.098356504
184.927,250.158780887
184.942,250.218445571
184.957,250.277348578
184.972,250.335487989
184.987,250.392861911
185.002,250.449468498
185.017,250.505305921
185.032,250.560372403
185.047,250.614666168
185.062,250.668185479
185.077,250.720928602
185.092,250.772893844
185.107,250.824079491
185.122,250.874483868
185.137,250.924105304
185.152,250.97294213
185.167,251.020992683
185.182,251.068255321
185.197,251.114728389
185.212,251.160410239
185.227,251.205299241
185.242,251.249393742
185.257,251.292692123
185.272,251.335192743
185.287,251.376893974
185.302,251.417794189
185.31,251.439279552
185.317,251.45789177
185.332,251.49718509
185.347,251.535672546
185.362,251.573352518
185.377,251.610223415
185.392,251.646283632
185.407,251.681531591
185.422,251.715965708
185.437,251.749584428
185.452,251.782386184
185.467,251.814369446
185.482,251.845532677
185.497,251.875874375
185.512,251.905393046
185.527,251.934087217
185.542,251.961955445
185.557,251.988996288
185.572,252.015208354
185.587,252.040590261
185.602,252.065140657
185.617,252.088858224
185.632,252.111741667
185.647,252.13378975
185.662,252.155001227
185.677,252.175374923
185.692,252.194909703
185.707,252.213604447
185.722,252.231458099
185.737,252.24846964
185.752,252.264638086
185.767,252.279962519
185.782,252.294442057
185.797,252.308075876
185.812,252.320863192
185.827,252.332803285
185.842,252.343895491
185.857,252.354139197
185.872,252.363533847
185.887,252.372078948
185.902,252.379774071
185.917,252.386618847
185.932,252.392612966
185.947,252.397756193
185.96,252.401525235
185.962,252.402048344
185.977,252.405489313
185.992,252.408079069
186.007,252.409817637
186.022,252.410705117
186.037,252.410741684
186.052,252.409927576
186.06,252.409145668
186.067,252.408263122
186.082,252.405748712
186.097,252.402384815
186.112,252.39817197
186.127,252.393110798
186.142,252.387202012
186.157,252.380446361
186.172,252.372844721
186.187,252.364398016
186.202,252.355107256
186.217,252.344973537
186.232,252.333998031
186.247,252.322181981
186.262,252.309526726
186.277,252.296033677
186.292,252.281704325
186.307,252.266540244
186.322,252.250543093
186.337,252.233714596
186.352,252.216056581
186.367,252.197570938
186.382,252.178259645
186.397,252.158124757
186.412,252.13716841
186.427,252.115392823
186.442,252.092800295
186.457,252.069393192
186.472,252.045173966
186.487,252.020145157
186.502,251.994309373
186.517,251.967669289
186.532,251.940227674
186.547,251.911987369
186.562,251.882951277
186.577,251.853122392
186.592,251.822503771
186.607,251.791098543
186.622,251.758909931
186.637,251.725941197
186.652,251.692195695
186.667,251.657676837
186.682,251.622388118
186.697,251.586333089
186.71,251.554468329
186.712,251.549515367
186.727,251.511938643
186.742,251.473606673
186.757,251.434523267
186.772,251.394692309
186.787,251.354117737
186.802,251.312803562
186.817,251.270753832
186.832,251.227972681
186.847,251.184464284
186.862,251.140232874
186.877,251.095282737
186.892,251.049618231
186.907,251.003243744
186.922,250.956163724
186.937,250.908382685
186.952,250.859905161
186.967,250.81073576
186.982,250.760879125
186.997,250.71033995
187.012,250.659122967
187.027,250.607232962
187.042,250.554674746
187.057,250.501453198
187.072,250.447573212
187.087,250.393039729
187.102,250.337857733
187.117,250.28203223
187.132,250.225568283
187.147,250.168470967
187.162,250.110745397
187.177,250.052396734
187.192,249.993430143
187.207,249.933850835
187.222,249.873664044
187.237,249.812875034
187.252,249.75148908
187.267,249.689511508
187.282,249.626947642
187.297,249.563802837
187.312,249.500082473
187.327,249.43579194
187.342,249.370936651
187.357,249.305522041
187.372,249.239553553
187.387,249.173036642
187.402,249.105976793
187.417,249.038379486
187.432,248.970250228
187.447,248.90159452
187.46,248.841671333
187.462,248.832417884
187.477,248.762725844
187.492,248.692523938
187.507,248.621817708
187.522,248.550612696
187.537,248.478914449
187.552,248.406728527
187.567,248.334060488
187.582,248.26091588
187.597,248.187300263
187.612,248.113219197
187.627,248.038678233
187.642,247.963682927
187.657,247.888238825
187.672,247.812351475
187.687,247.736026415
187.702,247.659269178
187.717,247.582085294
187.732,247.504480283
187.747,247.426459654
187.762,247.348028912
187.777,247.269193545
187.792,247.189959033
187.807,247.110330852
187.822,247.030314455
187.837,246.949915291
187.852,246.869138784
187.867,246.787990353
187.882,246.706475403
187.897,246.624599311
187.912,246.542367457
187.927,246.459785188
187.942,246.376857832
187.957,246.293590719
187.972,246.209989137
187.987,246.126058367
188.002,246.041803661
188.017,245.957230269
188.032,245.872343392
188.047,245.787148239
188.062,245.701649978
188.077,245.615853756
188.092,245.529764704
188.107,245.44338792
188.122,245.356728485
188.137,245.269791459
188.152,245.182581872
188.167,245.095104726
188.182,245.007365002
188.197,244.919367647
188.21,244.842898691
188.212,244.831117595
188.227,244.742619745
188.242,244.653878967
188.257,244.564900108
188.272,244.475687987
188.287,244.386247391
188.302,244.296583084
188.317,244.206699791
188.332,244.116602218
188.347,244.026295047
188.362,243.935782914
188.377,243.845070432
188.392,243.754162195
188.407,243.663062744
188.422,243.571776615
188.437,243.480308293
188.452,243.388662246
188.467,243.296842897
188.482,243.204854656
188.497,243.112701884
188.512,243.020388916
188.527,242.927920074
188.542,242.835299609
188.557,242.742531776
188.572,242.649620785
188.587,242.556570804
188.602,242.463385981
188.617,242.370070432
188.632,242.276628236
188.647,242.183063442
188.66,242.101877886
188.662,242.089380062
188.677,241.995582078
188.692,241.901673439
188.707,241.807658065
188.722,241.713539836
