# 48698 WSSS Singapore Observations at 12Z 09 Jan 2019
Frequency [GHz],TB
175.31,275.791133363
175.322,275.771856103
175.337,275.747707043
175.352,275.723499489
175.367,275.699233276
175.382,275.674908212
175.397,275.6505241
175.412,275.626080767
175.427,275.601578017
175.442,275.57701569
175.457,275.552393579
175.472,275.527711499
175.487,275.502969251
175.502,275.478166649
175.517,275.453303534
175.532,275.428379659
175.547,275.403394871
175.562,275.37834895
175.577,275.353241724
175.592,275.328072975
175.607,275.302842535
175.622,275.277550188
175.637,275.25219573
175.652,275.226778963
175.667,275.201299693
175.682,275.175757719
175.697,275.150152838
175.712,275.124484833
175.727,275.098753521
175.742,275.072958676
175.757,275.047100113
175.772,275.0211776
175.787,274.995190945
175.802,274.969139934
175.817,274.943024356
175.832,274.916843982
175.847,274.890598633
175.862,274.864288073
175.877,274.837912104
175.892,274.811470476
175.907,274.78496301
175.922,274.758389467
175.937,274.73174962
175.952,274.705043271
175.967,274.67827018
175.982,274.651430137
175.997,274.624522928
176.012,274.597548297
176.027,274.570506033
176.042,274.543395947
176.057,274.516217731
176.072,274.488971218
176.087,274.461656164
176.102,274.434272326
176.117,274.406819489
176.132,274.37929741
176.147,274.351705855
176.162,274.324044593
176.177,274.296313355
176.192,274.268511947
176.207,274.240640106
176.222,274.212697598
176.237,274.184684175
176.252,274.156599603
176.267,274.128443625
176.282,274.100216012
176.297,274.071916497
176.31,274.047331924
176.312,274.04354486
176.327,274.015100825
176.342,273.986584161
176.357,273.957994598
176.372,273.929331889
176.387,273.900595777
176.402,273.871786029
176.417,273.842902361
176.432,273.813944531
176.447,273.784912251
176.46,273.759690562
176.462,273.75580531
176.477,273.726623424
176.492,273.697366289
176.507,273.668033704
176.522,273.638625353
176.537,273.609141019
176.552,273.579580381
176.567,273.549943199
176.582,273.520229184
176.597,273.490438071
176.612,273.4605696
176.627,273.430623484
176.642,273.40059943
176.657,273.370497183
176.672,273.34031646
176.687,273.310056954
176.702,273.279718403
176.717,273.249300548
176.732,273.218803046
176.747,273.188225649
176.762,273.157568044
176.777,273.126829975
176.792,273.096011099
176.807,273.065111174
176.822,273.03412987
176.837,273.003066909
176.852,272.971921986
176.867,272.9406948
176.882,272.90938504
176.897,272.877992418
176.912,272.846516626
176.927,272.814957356
176.942,272.783314285
176.957,272.751587132
176.972,272.719775555
176.987,272.687879265
177.002,272.655897927
177.017,272.623831246
177.032,272.591678872
177.047,272.559440515
177.062,272.527115829
177.077,272.494704504
177.092,272.46220621
177.107,272.42962064
177.122,272.396947428
177.137,272.364186247
177.152,272.331336787
177.167,272.298398704
177.182,272.265371641
177.197,272.232255277
177.21,272.203481928
177.212,272.19904927
177.227,272.16575328
177.242,272.132366948
177.257,272.098889926
177.272,272.065321875
177.287,272.031662452
177.302,271.997911281
177.31,271.979873025
177.317,271.964068009
177.332,271.930132292
177.347,271.896103766
177.362,271.861982069
177.377,271.827766808
177.392,271.793457643
177.407,271.759054205
177.422,271.724556114
177.437,271.689963004
177.452,271.655274495
177.467,271.620490195
177.482,271.585609736
177.497,271.550632744
177.512,271.515558793
177.527,271.480387538
177.542,271.445118574
177.557,271.409751485
177.572,271.374285896
177.587,271.338721399
177.602,271.303057615
177.617,271.267294105
177.632,271.231430467
177.647,271.195466318
177.66,271.164215739
177.662,271.159401215
177.677,271.123234751
177.692,271.086966513
177.707,271.050596071
177.722,271.014123009
177.737,270.977546887
177.752,270.940867283
177.767,270.904083754
177.782,270.867195877
177.797,270.830203192
177.812,270.793105277
177.827,270.755901663
177.842,270.718591904
177.857,270.681175559
177.872,270.643652172
177.887,270.606021258
177.902,270.568282375
177.917,270.530435045
177.932,270.492478804
177.947,270.454413168
177.96,270.421334102
177.962,270.416237666
177.977,270.377951808
177.992,270.339555114
178.007,270.301047077
178.022,270.262427235
178.037,270.22369506
178.052,270.184850069
178.067,270.145891725
178.082,270.10681955
178.097,270.067633025
178.112,270.028331613
178.127,269.988914803
178.142,269.949382067
178.157,269.90973285
178.172,269.869966638
178.187,269.830082892
178.202,269.790081067
178.217,269.749960581
178.232,269.709720918
178.247,269.669361488
178.262,269.628881731
178.277,269.588281069
178.292,269.547558936
178.307,269.506714757
178.322,269.465747922
178.337,269.424657852
178.352,269.383443953
178.367,269.34210562
178.382,269.300642224
178.397,269.259053177
178.41,269.222907185
178.412,269.21733783
178.427,269.175495567
178.442,269.133525765
178.457,269.091427778
178.472,269.049200948
178.487,269.006844648
178.502,268.964358186
178.517,268.921740924
178.532,268.878992168
178.547,268.836111251
178.562,268.793097495
178.577,268.749950185
178.592,268.706668639
178.607,268.663252141
178.622,268.619699977
178.637,268.576011429
178.652,268.532185755
178.667,268.488222223
178.682,268.444120099
178.697,268.399878608
178.712,268.355496994
178.727,268.310974502
178.742,268.266310342
178.757,268.221503714
178.772,268.17655384
178.787,268.131459898
178.802,268.086221091
178.817,268.040836588
178.832,267.995305546
178.847,267.94962713
178.862,267.903800498
178.877,267.857824769
178.892,267.811699076
178.907,267.765422543
178.922,267.718994287
178.937,267.672413378
178.952,267.62567892
178.967,267.578789969
178.982,267.531745621
178.997,267.484544906
179.012,267.437186864
179.027,267.389670521
179.042,267.341994905
179.057,267.294159025
179.072,267.24616187
179.087,267.198002396
179.102,267.149679607
179.117,267.101192432
179.132,267.052539831
179.147,267.00372071
179.16,266.961275279
179.162,266.954733995
179.177,266.905578587
179.192,266.856253378
179.207,266.806757223
179.222,266.757088985
179.237,266.70724751
179.252,266.657231629
179.267,266.607040135
179.282,266.556671831
179.297,266.506125512
179.312,266.455399933
179.327,266.404493831
179.342,266.353405926
179.357,266.30213497
179.372,266.250679608
179.387,266.199038558
179.402,266.147210451
179.417,266.095193964
179.432,266.042987678
179.447,265.990590218
179.462,265.938000154
179.477,265.885216068
179.492,265.832236488
179.507,265.779059955
179.522,265.72568495
179.537,265.672109965
179.552,265.618333465
179.567,265.564353883
179.582,265.510169631
179.597,265.455779097
179.612,265.401180676
179.627,265.346372701
179.642,265.291353467
179.657,265.236121308
179.672,265.180674496
179.687,265.125011265
179.702,265.069129836
179.717,265.013028428
179.732,264.956705193
179.747,264.900158282
179.762,264.843385806
179.777,264.78638585
179.792,264.729156485
179.807,264.671695748
179.822,264.614001625
179.837,264.556072099
179.852,264.497905108
179.867,264.439498552
179.882,264.380850338
179.897,264.321958299
179.91,264.27071961
179.912,264.262820233
179.927,264.203433962
179.942,264.143797215
179.957,264.083907708
179.972,264.023763114
179.987,263.963361084
180.002,263.902699243
180.017,263.841775147
180.032,263.780586338
180.047,263.719130314
180.062,263.657404533
180.077,263.595406425
180.092,263.533133379
180.107,263.470582721
180.122,263.407751753
180.137,263.344637759
180.152,263.281237935
180.167,263.217549465
180.182,263.153569481
180.197,263.089295076
180.212,263.024723283
180.227,262.959851126
180.242,262.89467554
180.257,262.829193422
180.272,262.763401653
180.287,262.697297017
180.302,262.630876302
180.317,262.564136199
180.332,262.497073382
180.347,262.429684465
180.362,262.36196599
180.377,262.293914481
180.392,262.225526369
180.407,262.156798077
180.422,262.087725923
180.437,262.018306202
180.452,261.948535165
180.467,261.878408955
180.482,261.807923703
180.497,261.737075465
180.512,261.665860237
180.527,261.594273949
180.542,261.522312491
180.557,261.44997166
180.56,261.435457596
180.572,261.377247205
180.587,261.304134824
180.602,261.23063013
180.617,261.156728672
180.632,261.082425947
180.647,261.007717376
180.66,260.942638084
180.662,260.932598324
180.677,260.857064067
180.692,260.781109818
180.707,260.70473073
180.722,260.62792188
180.737,260.550678261
180.752,260.472994809
180.767,260.394866377
180.782,260.31628776
180.797,260.237253642
180.812,260.15775868
180.827,260.077797404
180.842,259.997364299
180.857,259.916453766
180.872,259.835060135
180.887,259.753177631
180.902,259.670800406
180.917,259.587922558
180.932,259.504538066
180.947,259.420640849
180.962,259.336224733
180.977,259.251283463
180.992,259.16581071
181.007,259.07980001
181.022,258.993244887
181.037,258.906138742
181.052,258.81847485
181.067,258.730246466
181.082,258.641446726
181.097,258.552068653
181.112,258.462105225
181.127,258.371549288
181.142,258.280393641
181.157,258.188630934
181.172,258.096253766
181.187,258.003254649
181.202,257.909625972
181.217,257.815360033
181.232,257.720449055
181.247,257.624885177
181.262,257.52866041
181.277,257.431766641
181.292,257.33419577
181.307,257.2359395
181.31,257.216205269
181.322,257.13698947
181.337,257.037337251
181.352,256.936974269
181.367,256.835891856
181.382,256.734081306
181.397,256.631533739
181.412,256.528240247
181.427,256.424191765
181.442,256.319379161
181.457,256.213793216
181.472,256.107424579
181.487,256.000263855
181.502,255.892301489
181.517,255.783527866
181.532,255.673933281
181.547,255.563507914
181.562,255.452241853
181.577,255.340125104
181.592,255.22714756
181.607,255.113299039
181.622,254.998569254
181.637,254.882947855
181.652,254.766424349
181.667,254.648988188
181.682,254.530628743
181.697,254.411335277
181.712,254.291096992
181.727,254.169902986
181.742,254.047742291
181.757,253.924603847
181.772,253.800476551
181.787,253.675349162
181.802,253.549210459
181.817,253.422049093
181.832,253.29385366
181.847,253.164612704
181.862,253.034314757
181.877,252.902948247
181.892,252.770501568
181.907,252.636963112
181.922,252.502321227
181.937,252.366564226
181.952,252.229680442
181.967,252.091658168
181.982,251.952485754
181.997,251.812151505
182.012,251.67064383
182.027,251.527951123
182.042,251.384061899
182.057,251.23896468
182.06,251.209799274
182.072,251.092648123
182.087,250.94510102
182.102,250.796312258
182.117,250.646270913
182.132,250.494966219
182.147,250.34238764
182.162,250.188524889
182.177,250.033367951
182.192,249.876907115
182.207,249.719133016
182.222,249.560036719
182.237,249.399609689
182.252,249.237843898
182.267,249.074731874
182.282,248.910266741
182.297,248.744442267
182.312,248.577253012
182.327,248.40869429
182.342,248.23876233
182.357,248.067454359
182.372,247.894768647
182.387,247.720704642
182.402,247.545263087
182.417,247.368446104
182.432,247.190257332
182.447,247.010702082
182.462,246.829787421
182.477,246.647522408
182.492,246.463918163
182.507,246.278988109
182.522,246.092748067
182.537,245.905216623
182.552,245.716415073
182.567,245.526367872
182.582,245.335102712
182.597,245.142650854
182.612,244.949047279
182.627,244.754331022
182.642,244.558545394
182.657,244.361738254
182.672,244.163962346
182.687,243.965275525
182.702,243.765741049
182.717,243.56542791
182.732,243.364411092
182.747,243.162771873
182.762,242.960598066
182.777,242.757984309
182.792,242.555032233
182.807,242.351850726
182.822,242.148556052
182.837,241.945271864
182.852,241.742129289
182.867,241.539266834
182.882,241.336830089
182.897,241.134971393
182.912,240.933849225
182.927,240.733627449
182.942,240.53447407
182.957,240.336559776
182.972,240.140055994
182.987,239.945132249
183.002,239.751952915
183.017,239.560673074
183.032,239.371433238
183.047,239.184352759
183.062,238.999521692
183.077,238.816990671
183.092,238.636758641
183.107,238.458758314
183.122,238.282839513
183.137,238.108751602
183.152,237.936128196
183.167,237.764481401
183.182,237.593221577
183.197,237.421735318
183.212,237.249585342
183.227,237.076947831
183.242,236.905467548
183.257,236.739719116
183.367,236.764402806
183.382,236.928072678
183.397,237.095979655
183.412,237.264461862
183.427,237.432356053
183.442,237.599700499
183.457,237.767005447
183.472,237.934890172
183.487,238.10392244
183.502,238.274559517
183.517,238.447137171
183.532,238.621878749
183.547,238.798911577
183.562,238.978284447
183.577,239.159983766
183.592,239.343947575
183.607,239.530077212
183.622,239.718246896
183.637,239.908311461
183.652,240.100112608
183.667,240.293483837
183.682,240.488254365
183.697,240.684252271
183.712,240.881306818
183.727,241.079250362
183.742,241.27791978
183.757,241.477157475
183.772,241.676812184
183.787,241.876739461
183.802,242.076802069
183.817,242.276870133
183.832,242.476821248
183.847,242.676540436
183.862,242.875920035
183.877,243.074859563
183.892,243.273265516
183.907,243.471051172
183.922,243.668136278
183.937,243.864446769
183.952,244.059914574
183.967,244.254477227
183.982,244.448077664
183.997,244.640663832
184.012,244.832188527
184.027,245.022609008
184.042,245.211886798
184.057,245.399987373
184.072,245.58687993
184.087,245.772537174
184.102,245.956935009
184.117,246.140052398
184.132,246.321871111
184.147,246.502375504
184.162,246.6815524
184.177,246.859390851
184.192,247.035881953
184.207,247.211018794
184.222,247.384796164
184.237,247.557210508
184.252,247.728259782
184.267,247.897943302
184.282,248.066261661
184.297,248.233216617
184.312,248.39881096
184.327,248.56304847
184.342,248.725933802
184.357,248.887472412
184.372,249.047670469
184.387,249.206534834
184.402,249.364072927
184.417,249.520292739
184.432,249.675202729
184.447,249.828811786
184.462,249.981129205
184.477,250.132164593
184.492,250.281927915
184.507,250.43042934
184.522,250.577679336
184.537,250.723688573
184.552,250.868467856
184.56,250.945184348
184.567,251.012028191
184.582,251.154380675
184.597,251.295536571
184.612,251.43550718
184.627,251.574303887
184.642,251.711938164
184.657,251.848421491
184.672,251.983765391
184.687,252.117981394
184.702,252.251081054
184.717,252.383075898
184.732,252.513977455
184.747,252.643797205
184.762,252.772546621
184.777,252.900237145
184.792,253.026880131
184.807,253.152486945
184.822,253.277068825
184.837,253.400637026
184.852,253.523202673
184.867,253.644776865
184.882,253.765370605
184.897,253.884994843
184.912,254.003660433
184.927,254.121378158
184.942,254.238158724
184.957,254.354012713
184.972,254.468950685
184.987,254.582983072
185.002,254.696120222
185.017,254.808372386
185.032,254.919749748
185.047,255.030262377
185.062,255.139920258
185.077,255.248733289
185.092,255.35671125
185.107,255.463863853
185.122,255.5702007
185.137,255.675731281
185.152,255.780465042
185.167,255.884411275
185.182,255.987579205
185.197,256.089977959
185.212,256.191616555
185.227,256.292503935
185.242,256.392648923
185.257,256.492060265
185.272,256.590746599
185.287,256.688716465
185.302,256.785978312
185.31,256.837564684
185.317,256.882540502
185.332,256.978411291
185.347,257.073598842
185.362,257.168111235
185.377,257.261956419
185.392,257.355142299
185.407,257.447676653
185.422,257.539567195
185.437,257.630821488
185.452,257.721447093
185.467,257.811451399
185.482,257.900841734
185.497,257.989625364
185.512,258.077809392
185.527,258.165400926
185.542,258.252406918
185.557,258.338834239
185.572,258.424689706
185.587,258.509980023
185.602,258.594711806
185.617,258.678891593
185.632,258.762525843
185.647,258.845620932
185.662,258.928183132
185.677,259.010218659
185.692,259.091733627
185.707,259.17273407
185.722,259.25322596
185.737,259.333215171
185.752,259.412707504
185.767,259.491708696
185.782,259.570224365
185.797,259.648260093
185.812,259.725821373
185.827,259.802913631
185.842,259.87954219
185.857,259.955712321
185.872,260.031429243
185.887,260.10669806
185.902,260.181523819
185.917,260.255911522
185.932,260.329866061
185.947,260.403392297
185.96,260.466772258
185.962,260.476494979
185.977,260.549178833
185.992,260.621448503
186.007,260.693308557
186.022,260.764763505
186.037,260.835817774
186.052,260.906475775
186.06,260.943999495
186.067,260.976741805
186.082,261.046620129
186.097,261.116114945
186.112,261.18523038
186.127,261.253970511
186.142,261.322339365
186.157,261.390340892
186.172,261.457978983
186.187,261.525257501
186.202,261.59218021
186.217,261.658750882
186.232,261.724973162
186.247,261.790850682
186.262,261.856387031
186.277,261.921585694
186.292,261.986450166
186.307,262.050983871
186.322,262.115190163
186.337,262.179072363
186.352,262.242633734
186.367,262.305877522
186.382,262.368806878
186.397,262.431424943
186.412,262.493734792
186.427,262.555739463
186.442,262.617441967
186.457,262.678845217
186.472,262.739952164
186.487,262.800765639
186.502,262.86128847
186.517,262.921523443
186.532,262.981473302
186.547,263.041140737
186.562,263.1005284
186.577,263.159638941
186.592,263.218474912
186.607,263.2770389
186.622,263.335333365
186.637,263.393360805
186.652,263.451123648
186.667,263.50862431
186.682,263.565865145
186.697,263.622848497
186.71,263.672027551
186.712,263.679576644
186.727,263.736051878
186.742,263.792276414
186.757,263.848252441
186.772,263.903982156
186.787,263.959467685
186.802,264.014711136
186.817,264.069714572
186.832,264.124480079
186.847,264.179009631
186.862,264.233305236
186.877,264.287368888
186.892,264.341202478
186.907,264.394807918
186.922,264.448187103
186.937,264.501341898
186.952,264.554274093
186.967,264.606985514
186.982,264.659477949
186.997,264.711753146
187.012,264.763812809
187.027,264.815658662
187.042,264.867292392
187.057,264.918715642
187.072,264.969930057
187.087,265.020937252
187.102,265.071738801
187.117,265.122336296
187.132,265.172731269
187.147,265.222925252
187.162,265.272919756
187.177,265.322716265
187.192,265.372316242
187.207,265.421721145
187.222,265.470932379
187.237,265.519951371
187.252,265.568779508
187.267,265.617418168
187.282,265.66586869
187.297,265.714132419
187.312,265.76221068
187.327,265.810104766
187.342,265.857815973
187.357,265.905345557
187.372,265.95269477
187.387,265.999864856
187.402,266.046857028
187.417,266.093672497
187.432,266.140312455
187.447,266.186778083
187.46,266.226908154
187.462,266.233070514
187.477,266.279190918
187.492,266.325140424
187.507,266.370920149
187.522,266.416531183
187.537,266.461974641
187.552,266.507251582
187.567,266.552363071
187.582,266.59731016
187.597,266.642093907
187.612,266.686715307
187.627,266.73117539
187.642,266.775475159
187.657,266.819615597
187.672,266.863597681
187.687,266.907422377
187.702,266.951090661
187.717,266.994603452
187.732,267.037961691
187.747,267.081166312
187.762,267.124218212
187.777,267.167118305
187.792,267.209867466
187.807,267.252466602
187.822,267.294916553
187.837,267.337218209
187.852,267.379372412
187.867,267.421379999
187.882,267.463241812
187.897,267.504958667
187.912,267.546531377
187.927,267.587960769
187.942,267.629247608
187.957,267.670392732
187.972,267.711396876
187.987,267.75226082
188.002,267.792985363
188.017,267.833571216
188.032,267.874019151
188.047,267.914329919
188.062,267.954504236
188.077,267.994542824
188.092,268.034446426
188.107,268.074215718
188.122,268.113851432
188.137,268.153354252
188.152,268.192724884
188.167,268.23196399
188.182,268.27107225
188.197,268.310050341
188.21,268.343726568
188.212,268.348898917
188.227,268.38761866
188.242,268.426210176
188.257,268.464674148
188.272,268.503011196
188.287,268.541221952
188.302,268.579307051
188.317,268.617267101
188.332,268.655102738
188.347,268.692814531
188.362,268.730403126
188.377,268.76786909
188.392,268.805213033
188.407,268.842435515
188.422,268.879537163
188.437,268.916518513
188.452,268.953380158
188.467,268.990122638
188.482,269.026746552
188.497,269.063252425
188.512,269.099640809
188.527,269.135912285
188.542,269.172067352
188.557,269.208106562
188.572,269.244030461
188.587,269.279839556
188.602,269.315534383
188.617,269.351115456
188.632,269.386583275
188.647,269.421938402
188.66,269.452488695
188.662,269.457181286
188.677,269.492312462
188.692,269.527332405
188.707,269.562241645
188.722,269.597040633
188.737,269.631729886
