# 48698 WSSS Singapore Observations at 12Z 15 Jul 2019
Frequency [GHz],TB
175.31,273.891896281
175.322,273.870136907
175.337,273.842878722
175.352,273.815554863
175.367,273.788165128
175.382,273.760709341
175.397,273.733187312
175.412,273.705598845
175.427,273.677943766
175.442,273.650221869
175.457,273.62243297
175.472,273.594576878
175.487,273.566653395
175.502,273.538662327
175.517,273.510603488
175.532,273.482476671
175.547,273.454281676
175.562,273.426018315
175.577,273.397686385
175.592,273.369285681
175.607,273.340816006
175.622,273.312277155
175.637,273.283668922
175.652,273.254991114
175.667,273.226243506
175.682,273.197425907
175.697,273.168538103
175.712,273.139579883
175.727,273.110551035
175.742,273.081451352
175.757,273.052280621
175.772,273.023038629
175.787,272.993725147
175.802,272.964339982
175.817,272.934882901
175.832,272.90535369
175.847,272.875752122
175.862,272.846077989
175.877,272.816331058
175.892,272.786511114
175.907,272.756617918
175.922,272.726651262
175.937,272.696610902
175.952,272.666496622
175.967,272.636308181
175.982,272.606045351
175.997,272.575707905
176.012,272.545295605
176.027,272.514808213
176.042,272.484245491
176.057,272.453607214
176.072,272.422893123
176.087,272.392102986
176.102,272.361236564
176.117,272.330293606
176.132,272.299273871
176.147,272.268177115
176.162,272.237003073
176.177,272.205751519
176.192,272.174422185
176.207,272.14301482
176.222,272.111529169
176.237,272.079964983
176.252,272.048321995
176.267,272.01659995
176.282,271.984798596
176.297,271.952917645
176.31,271.925222922
176.312,271.920956856
176.327,271.888915956
176.342,271.856794667
176.357,271.824592736
176.372,271.792309878
176.387,271.75994583
176.402,271.727500305
176.417,271.694973037
176.432,271.662363739
176.447,271.629672137
176.46,271.601272611
176.462,271.596897944
176.477,271.564040873
176.492,271.531100645
176.507,271.49807697
176.522,271.464969559
176.537,271.43177811
176.552,271.398502335
176.567,271.365141942
176.582,271.33169662
176.597,271.298166081
176.612,271.26455002
176.627,271.230848127
176.642,271.197060092
176.657,271.163185609
176.672,271.129224375
176.687,271.095176063
176.702,271.061040366
176.717,271.026816956
176.732,270.992505519
176.747,270.958105731
176.762,270.923617261
176.777,270.889039786
176.792,270.854372973
176.807,270.819616485
176.822,270.784769993
176.837,270.749833151
176.852,270.714805631
176.867,270.679687062
176.882,270.644477121
176.897,270.609175455
176.912,270.573781702
176.927,270.538295517
176.942,270.502716536
176.957,270.467044398
176.972,270.431278743
176.987,270.395419191
177.002,270.359465396
177.017,270.323416963
177.032,270.287273523
177.047,270.2510347
177.062,270.214700097
177.077,270.178269345
177.092,270.141742047
177.107,270.105117817
177.122,270.068396244
177.137,270.031576944
177.152,269.994659502
177.167,269.957643523
177.182,269.920528581
177.197,269.883314273
177.21,269.850981171
177.212,269.846000176
177.227,269.808585878
177.242,269.771070934
177.257,269.733454938
177.272,269.695737436
177.287,269.657918002
177.302,269.619996197
177.31,269.59972922
177.317,269.581971567
177.332,269.543843668
177.347,269.505612038
177.362,269.467276223
177.377,269.428835774
177.392,269.390290196
177.407,269.351639037
177.422,269.312881811
177.437,269.274018043
177.452,269.235047242
177.467,269.195968922
177.482,269.15678259
177.497,269.117487738
177.512,269.078083864
177.527,269.038570452
177.542,268.998946994
177.557,268.959212964
177.572,268.919367834
177.587,268.879411075
177.602,268.839342152
177.617,268.799160522
177.632,268.758865626
177.647,268.718456921
177.66,268.68334355
177.662,268.677933845
177.677,268.637295821
177.692,268.596542293
177.707,268.55567267
177.722,268.514686378
177.737,268.473582813
177.752,268.432361392
177.767,268.391021502
177.782,268.349562531
177.797,268.307983864
177.812,268.266284889
177.827,268.224464958
177.842,268.18252344
177.857,268.14045969
177.872,268.098273059
177.887,268.055962885
177.902,268.013528501
177.917,267.97096923
177.932,267.928284398
177.947,267.88547331
177.96,267.848267702
177.962,267.842535267
177.977,267.799469567
177.992,267.756275497
178.007,267.712952334
178.022,267.669499343
178.037,267.625915789
178.052,267.582200929
178.067,267.538354004
178.082,267.494374242
178.097,267.450260887
178.112,267.406013136
178.127,267.361630205
178.142,267.317111301
178.157,267.272455605
178.172,267.227662295
178.187,267.182730542
178.202,267.137659509
178.217,267.092448341
178.232,267.04709618
178.247,267.001602157
178.262,266.955965394
178.277,266.910184987
178.292,266.864260045
178.307,266.818189645
178.322,266.771972869
178.337,266.725608779
178.352,266.679096431
178.367,266.632434853
178.382,266.585623095
178.397,266.538660162
178.41,266.497835902
178.412,266.491545063
178.427,266.444276781
178.442,266.396854307
178.457,266.349276617
178.472,266.301542653
178.487,266.253651363
178.502,266.205601673
178.517,266.157392505
178.532,266.109022763
178.547,266.060491322
178.562,266.011797086
178.577,265.962938888
178.592,265.91391559
178.607,265.864726028
178.622,265.815369012
178.637,265.765843356
178.652,265.71614784
178.667,265.666281246
178.682,265.616242325
178.697,265.566029832
178.712,265.515642489
178.727,265.465079006
178.742,265.414338087
178.757,265.363418406
178.772,265.312318633
178.787,265.261037412
178.802,265.209573369
178.817,265.157925126
178.832,265.106091265
178.847,265.054070387
178.862,265.00186104
178.877,264.949461766
178.892,264.896871103
178.907,264.84408754
178.922,264.791109577
178.937,264.737935694
178.952,264.684564323
178.967,264.630993913
178.982,264.577222866
178.997,264.523249583
179.012,264.469072441
179.027,264.414689786
179.042,264.360099958
179.057,264.305301274
179.072,264.250292016
179.087,264.195070475
179.102,264.139634887
179.117,264.083983491
179.132,264.028114498
179.147,263.972026096
179.16,263.923237247
179.162,263.915716445
179.177,263.859183698
179.192,263.802425969
179.207,263.745441368
179.222,263.688227968
179.237,263.630783816
179.252,263.57310696
179.267,263.515195398
179.282,263.45704712
179.297,263.398660084
179.312,263.340032235
179.327,263.281161479
179.342,263.222045706
179.357,263.162682794
179.372,263.10307057
179.387,263.043206863
179.402,262.98308945
179.417,262.922716112
179.432,262.862084586
179.447,262.80119258
179.462,262.740037796
179.477,262.678617899
179.492,262.616930517
179.507,262.554973279
179.522,262.492743749
179.537,262.430239508
179.552,262.367458077
179.567,262.304396971
179.582,262.241053664
179.597,262.17742562
179.612,262.113510251
179.627,262.04930497
179.642,261.984807142
179.657,261.920014112
179.672,261.854923196
179.687,261.789531684
179.702,261.723836843
179.717,261.657835903
179.732,261.591526069
179.747,261.524904524
179.762,261.457968419
179.777,261.390714871
179.792,261.323140973
179.807,261.255243807
179.822,261.187020398
179.837,261.11846776
179.852,261.049582879
179.867,260.980362707
179.882,260.91080417
179.897,260.840904164
179.91,260.780045542
179.912,260.770659569
179.927,260.700067228
179.942,260.629123949
179.957,260.557826524
179.972,260.486171719
179.987,260.414156246
180.002,260.341776836
180.017,260.269030164
180.032,260.195912871
180.047,260.122421585
180.062,260.048552908
180.077,259.974303419
180.092,259.899669647
180.107,259.824648133
180.122,259.749235365
180.137,259.673427806
180.152,259.59722191
180.167,259.520614098
180.182,259.443600759
180.197,259.366178278
180.212,259.288342995
180.227,259.21009125
180.242,259.131419332
180.257,259.052323536
180.272,258.97280012
180.287,258.892845326
180.302,258.812455373
180.317,258.731626468
180.332,258.65035479
180.347,258.568636501
180.362,258.486467753
180.377,258.403844673
180.392,258.320763378
180.407,258.237219972
180.422,258.153210533
180.437,258.068731131
180.452,257.983777831
180.467,257.898346676
180.482,257.812433708
180.497,257.726034951
180.512,257.639146435
180.527,257.55176415
180.542,257.463884115
180.557,257.375502333
180.56,257.357765417
180.572,257.2866148
180.587,257.197217515
180.602,257.107306453
180.617,257.016877636
180.632,256.925927037
180.647,256.83445067
180.66,256.754742769
180.662,256.74244453
180.677,256.64990463
180.692,256.556826992
180.707,256.463207644
180.722,256.369042617
180.737,256.274327969
180.752,256.179059775
180.767,256.083234106
180.782,255.986847078
180.797,255.889894807
180.812,255.792373443
180.827,255.694279167
180.842,255.595608161
180.857,255.496356668
180.872,255.396520937
180.887,255.296097275
180.902,255.195082
180.917,255.093471496
180.932,254.991262158
180.947,254.88845045
180.962,254.785032863
180.977,254.681005961
180.992,254.57636633
181.007,254.471110632
181.022,254.365235583
181.037,254.258737949
181.052,254.151614557
181.067,254.043862332
181.082,253.935478213
181.097,253.826459265
181.112,253.716802589
181.127,253.606505387
181.142,253.495564927
181.157,253.383978564
181.172,253.271743744
181.187,253.158857998
181.202,253.045318963
181.217,252.93112436
181.232,252.816272006
181.247,252.700759832
181.262,252.584585869
181.277,252.46774826
181.292,252.350245254
181.307,252.232075225
181.31,252.208361047
181.322,252.113236661
181.337,251.993728172
181.352,251.873548491
181.367,251.752696479
181.382,251.631171127
181.397,251.508971571
181.412,251.386097067
181.427,251.262547025
181.442,251.138320978
181.457,251.013418625
181.472,250.887839811
181.487,250.761584513
181.502,250.63465287
181.517,250.507045182
181.532,250.3787619
181.547,250.249803624
181.562,250.120171134
181.577,249.989865351
181.592,249.858887378
181.607,249.727238477
181.622,249.594920064
181.637,249.461933734
181.652,249.328281255
181.667,249.193964546
181.682,249.058985713
181.697,248.923347025
181.712,248.787050908
181.727,248.650099977
181.742,248.512497005
181.757,248.374244924
181.772,248.235346865
181.787,248.095806086
181.802,247.955626029
181.817,247.814810315
181.832,247.673362702
181.847,247.531287125
181.862,247.388587662
181.877,247.245268561
181.892,247.101334238
181.907,246.956789229
181.922,246.811638251
181.937,246.665886151
181.952,246.519537936
181.967,246.372598756
181.982,246.225073887
181.997,246.076968771
182.012,245.928288976
182.027,245.779040209
182.042,245.629228326
182.057,245.478859306
182.06,245.448719184
182.072,245.327939273
182.087,245.176474488
182.102,245.024471359
182.117,244.871936437
182.132,244.718876399
182.147,244.565298096
182.162,244.411208533
182.177,244.256614868
182.192,244.101524436
182.207,243.945944763
182.222,243.789883552
182.237,243.633348733
182.252,243.476348444
182.267,243.318891089
182.282,243.160985318
182.297,243.002640079
182.312,242.843864628
182.327,242.684668588
182.342,242.525061951
182.357,242.365055126
182.372,242.20465899
182.387,242.043884929
182.402,241.882744892
182.417,241.721251442
182.432,241.559417812
182.447,241.397257979
182.462,241.234786757
182.477,241.07201983
182.492,240.90897388
182.507,240.745666647
182.522,240.58211705
182.537,240.418345279
182.552,240.254372904
182.567,240.090223023
182.582,239.925920346
182.597,239.761491362
182.612,239.596964486
182.627,239.43237017
182.642,239.267741115
182.657,239.103112388
182.672,238.938521632
182.687,238.77400922
182.702,238.609618439
182.717,238.445395701
182.732,238.281390714
182.747,238.117656682
182.762,237.954250491
182.777,237.791232902
182.792,237.628668742
182.807,237.466627076
182.822,237.305181322
182.837,237.144409442
182.852,236.984394001
182.867,236.825222245
182.882,236.666986102
182.897,236.509782139
182.912,236.353711376
182.927,236.19887909
182.942,236.045394391
182.957,235.893369662
182.972,235.742919786
182.987,235.594161158
183.002,235.447210274
183.017,235.302182018
183.032,235.159187402
183.047,235.018330754
183.062,234.879706193
183.077,234.743393304
183.092,234.609451797
183.107,234.477915296
183.122,234.348784033
183.137,234.22201692
183.152,234.097523625
183.167,233.975158467
183.182,233.854719824
183.197,233.73596354
183.212,233.618649314
183.227,233.502665744
183.242,233.38834571
183.257,233.277229356
183.367,233.292426074
183.382,233.401404042
183.397,233.513038362
183.412,233.626205116
183.427,233.740730174
183.442,233.856775385
183.457,233.974588114
183.472,234.094403002
183.487,234.21640674
183.502,234.340729361
183.517,234.467446812
183.532,234.596587693
183.547,234.728141322
183.562,234.862065559
183.577,234.998293802
183.592,235.136741035
183.607,235.27730887
183.622,235.419889655
183.637,235.564369835
183.652,235.710632612
183.667,235.858560066
183.682,236.00803478
183.697,236.158941136
183.712,236.311166263
183.727,236.464600755
183.742,236.619139195
183.757,236.77468049
183.772,236.931128118
183.787,237.088390236
183.802,237.246379742
183.817,237.405014236
183.832,237.564215945
183.847,237.723911646
183.862,237.884032482
183.877,238.044513861
183.892,238.205295228
183.907,238.366319918
183.922,238.52753495
183.937,238.68889084
183.952,238.850341419
183.967,239.011843608
183.982,239.173357285
183.997,239.334845041
184.012,239.496272065
184.027,239.657605912
184.042,239.818816402
184.057,239.979875402
184.072,240.140756723
184.087,240.301435956
184.102,240.461890349
184.117,240.622098676
184.132,240.782041098
184.147,240.941699095
184.162,241.101055332
184.177,241.260093556
184.192,241.418798521
184.207,241.577155893
184.222,241.735152188
184.237,241.89277468
184.252,242.050011339
184.267,242.206850781
184.282,242.363282194
184.297,242.519295294
184.312,242.674880279
184.327,242.830027803
184.342,242.984728904
184.357,243.138974977
184.372,243.292757762
184.387,243.446069299
184.402,243.598901909
184.417,243.751248169
184.432,243.903100889
184.447,244.054453093
184.462,244.205298024
184.477,244.355629091
184.492,244.505439897
184.507,244.654724205
184.522,244.803475949
184.537,244.951689197
184.552,245.099358177
184.56,245.17789047
184.567,245.246477248
184.582,245.393040918
184.597,245.539043826
184.612,245.684480732
184.627,245.829346552
184.642,245.973636306
184.657,246.117345161
184.672,246.260468415
184.687,246.403001482
184.702,246.54493992
184.717,246.686279431
184.732,246.82701581
184.747,246.967145047
184.762,247.106663213
184.777,247.245566548
184.792,247.383851422
184.807,247.521514351
184.822,247.65855199
184.837,247.794961125
184.852,247.930738712
184.867,248.065881836
184.882,248.200387737
184.897,248.334253798
184.912,248.467477542
184.927,248.600056671
184.942,248.731988995
184.957,248.863272509
184.972,248.993905343
184.987,249.12388578
185.002,249.253212252
185.017,249.381883328
185.032,249.509897758
185.047,249.637254404
185.062,249.763952301
185.077,249.889990618
185.092,250.015368673
185.107,250.140085929
185.122,250.264141978
185.137,250.387536586
185.152,250.510269614
185.167,250.632341102
185.182,250.753751191
185.197,250.87450018
185.212,250.994588487
185.227,251.114016664
185.242,251.232785387
185.257,251.350895458
185.272,251.468347807
185.287,251.585143468
185.302,251.701283604
185.31,251.762957413
185.317,251.816769488
185.332,251.931602523
185.347,252.045784185
185.362,252.159316079
185.377,252.272199924
185.392,252.384437514
185.407,252.496030763
185.422,252.606981661
185.437,252.717292306
185.452,252.826964886
185.467,252.936001655
185.482,253.044404985
185.497,253.152177294
185.512,253.259321105
185.527,253.365839004
185.542,253.471733651
185.557,253.577007785
185.572,253.681664191
185.587,253.785705746
185.602,253.889135375
185.617,253.991956062
185.632,254.094170847
185.647,254.195782834
185.662,254.296795162
185.677,254.397211043
185.692,254.49703372
185.707,254.59626648
185.722,254.694912653
185.737,254.792975623
185.752,254.890458799
185.767,254.987365617
185.782,255.083699572
185.797,255.17946416
185.812,255.274662937
185.827,255.369299459
185.842,255.463377324
185.857,255.556900151
185.872,255.649871571
185.887,255.742295245
185.902,255.83417485
185.917,255.925514072
185.932,256.016316619
185.947,256.106586209
185.96,256.184391632
185.962,256.196326571
185.977,256.285541442
185.992,256.374234565
186.007,256.462409698
186.022,256.550070599
186.037,256.637221029
186.052,256.723864751
186.06,256.769868841
186.067,256.810005522
186.082,256.895647116
186.097,256.980793292
186.112,257.065447811
186.127,257.149614432
186.142,257.233296902
186.157,257.316498967
186.172,257.39922437
186.187,257.481476837
186.202,257.563260087
186.217,257.644577842
186.232,257.725433788
186.247,257.805831632
186.262,257.885775032
186.277,257.965267669
186.292,258.044313187
186.307,258.122915219
186.322,258.201077386
186.337,258.278803292
186.352,258.356096529
186.367,258.432960665
186.382,258.509399245
186.397,258.585415817
186.412,258.66101388
186.427,258.736196949
186.442,258.810968481
186.457,258.88533195
186.472,258.959290782
186.487,259.032848392
186.502,259.106008172
186.517,259.178773499
186.532,259.251147716
186.547,259.323134156
186.562,259.394736119
186.577,259.465956881
186.592,259.536799707
186.607,259.607267833
186.622,259.677364464
186.637,259.747092789
186.652,259.816455971
186.667,259.88545715
186.682,259.954099432
186.697,260.022385919
186.71,260.081282105
186.712,260.090319664
186.727,260.157903717
186.742,260.22514108
186.757,260.292034753
186.772,260.358587701
186.787,260.424802871
186.802,260.490683152
186.817,260.556231454
186.832,260.621450638
186.847,260.686343542
186.862,260.750912981
186.877,260.815161743
186.892,260.879092584
186.907,260.942708248
186.922,261.006011454
186.937,261.069004873
186.952,261.131691182
186.967,261.194073013
186.982,261.256152978
186.997,261.317933663
187.012,261.379417629
187.027,261.44060742
187.042,261.501505542
187.057,261.56211449
187.072,261.622436718
187.087,261.68247468
187.102,261.74223077
187.117,261.801707396
187.132,261.860906916
187.147,261.919831678
187.162,261.978483999
187.177,262.036866172
187.192,262.094980471
187.207,262.152829135
187.222,262.210414401
187.237,262.267738463
187.252,262.324803502
187.267,262.381611676
187.282,262.438165112
187.297,262.494465921
187.312,262.550516197
187.327,262.606317999
187.342,262.661873374
187.357,262.717184344
187.372,262.772252907
187.387,262.827081039
187.402,262.881670699
187.417,262.936023825
187.432,262.99014233
187.447,263.044028108
187.46,263.090542314
187.462,263.097683026
187.477,263.151108946
187.492,263.204307698
187.507,263.257281087
187.522,263.310030909
187.537,263.362558932
187.552,263.41486692
187.567,263.466956597
187.582,263.518829676
187.597,263.570487846
187.612,263.621932793
187.627,263.673166175
187.642,263.724189613
187.657,263.775004751
187.672,263.825613168
187.687,263.876016469
187.702,263.9262162
187.717,263.976213919
187.732,264.026011151
187.747,264.075609416
187.762,264.125010208
187.777,264.174215001
187.792,264.22322526
187.807,264.272042428
187.822,264.320667945
187.837,264.369103209
187.852,264.417349629
187.867,264.465408582
187.882,264.513281423
187.897,264.560969527
187.912,264.608474205
187.927,264.655796787
187.942,264.702938563
187.957,264.74990084
187.972,264.796684885
187.987,264.843291968
188.002,264.889723312
188.017,264.935980162
188.032,264.98206374
188.047,265.027975246
188.062,265.073715869
188.077,265.119286785
188.092,265.164689152
188.107,265.209924132
188.122,265.254992849
188.137,265.299896428
188.152,265.344635987
188.167,265.38921262
188.182,265.433627423
188.197,265.477881453
188.21,265.516105724
188.212,265.521975779
188.227,265.565911449
188.242,265.609689507
188.257,265.653310974
188.272,265.696776865
188.287,265.740088175
188.302,265.783245909
188.317,265.826251042
188.332,265.869104544
188.347,265.911807367
188.362,265.954360464
188.377,265.996764788
188.392,266.03902124
188.407,266.081130743
188.422,266.123094219
188.437,266.164912547
188.452,266.20658663
188.467,266.248117314
188.482,266.289505505
188.497,266.330752038
188.512,266.371857763
188.527,266.412823526
188.542,266.453650144
188.557,266.494338456
188.572,266.534889254
188.587,266.575303359
188.602,266.615581549
188.617,266.655724618
188.632,266.695733343
188.647,266.735608491
188.66,266.770059495
188.662,266.775350818
188.677,266.814961088
188.692,266.854440033
188.707,266.893788402
188.722,266.933006911
188.737,266.972096291
