# 01004 ENAS Ny-Alesund Ii Observations at 12Z 15 Jan 2019
Frequency [GHz],TB
175.31,202.107054415
175.322,202.173051836
175.337,202.255785336
175.352,202.338782531
175.367,202.422044133
175.382,202.505570854
175.397,202.589363399
175.412,202.673422479
175.427,202.757748795
175.442,202.842343051
175.457,202.927205942
175.472,203.012338169
175.487,203.097740425
175.502,203.183413398
175.517,203.26935778
175.532,203.355574253
175.547,203.442063503
175.562,203.528826206
175.577,203.615863042
175.592,203.703174678
175.607,203.790761787
175.622,203.878625036
175.637,203.966765082
175.652,204.055182588
175.667,204.143878207
175.682,204.232852589
175.697,204.322106383
175.712,204.411640228
175.727,204.501454764
175.742,204.591550623
175.757,204.681928438
175.772,204.772588831
175.787,204.863532421
175.802,204.954759826
175.817,205.046271652
175.832,205.138068507
175.847,205.230150993
175.862,205.3225197
175.877,205.415175219
175.892,205.508118132
175.907,205.601349018
175.922,205.694868449
175.937,205.788676991
175.952,205.882775203
175.967,205.977163637
175.982,206.071842842
175.997,206.166813356
176.012,206.262075715
176.027,206.357630446
176.042,206.453478066
176.057,206.549619091
176.072,206.646054023
176.087,206.742783361
176.102,206.839807596
176.117,206.93712721
176.132,207.034742676
176.147,207.132654462
176.162,207.230863026
176.177,207.329368817
176.192,207.428172276
176.207,207.527273834
176.222,207.626673917
176.237,207.726372934
176.252,207.826371295
176.267,207.926669393
176.282,208.027267611
176.297,208.12816633
176.31,208.215855237
176.312,208.22936591
176.327,208.330866709
176.342,208.432669071
176.357,208.534773331
176.372,208.637179811
176.387,208.739888821
176.402,208.842900667
176.417,208.946215635
176.432,209.049834004
176.447,209.153756037
176.46,209.244067629
176.462,209.25798199
176.477,209.362512106
176.492,209.467346609
176.507,209.572485719
176.522,209.677929637
176.537,209.783678554
176.552,209.889732644
176.567,209.996092072
176.582,210.102756984
176.597,210.209727518
176.612,210.317003792
176.627,210.42458591
176.642,210.532473964
176.657,210.640668029
176.672,210.749168163
176.687,210.857974414
176.702,210.967086807
176.717,211.076505355
176.732,211.186230054
176.747,211.296260881
176.762,211.406597801
176.777,211.517240755
176.792,211.628189671
176.807,211.739444459
176.822,211.851005011
176.837,211.962871196
176.852,212.075042869
176.867,212.187519866
176.882,212.300302004
176.897,212.413389075
176.912,212.526780857
176.927,212.640477106
176.942,212.754477557
176.957,212.868781925
176.972,212.983389902
176.987,213.098301161
177.002,213.21351535
177.017,213.329032099
177.032,213.444851015
177.047,213.560971676
177.062,213.677393646
177.077,213.794116459
177.092,213.911139627
177.107,214.02846264
177.122,214.146084959
177.137,214.264006026
177.152,214.382225253
177.167,214.500742027
177.182,214.619555713
177.197,214.738665645
177.21,214.842133351
177.212,214.858071134
177.227,214.97777146
177.242,215.09776588
177.257,215.21805362
177.272,215.338633879
177.287,215.459505827
177.302,215.580668607
177.31,215.645407369
177.317,215.70212133
177.332,215.82386308
177.347,215.945892908
177.362,216.068209837
177.377,216.190812856
177.392,216.313700927
177.407,216.436872977
177.422,216.560327902
177.437,216.684064565
177.452,216.808081799
177.467,216.932378397
177.482,217.056953122
177.497,217.181804707
177.512,217.306931844
177.527,217.432333192
177.542,217.558007374
177.557,217.68395298
177.572,217.810168559
177.587,217.936652625
177.602,218.063403659
177.617,218.190420095
177.632,218.317700338
177.647,218.445242749
177.66,218.555990274
177.662,218.573045651
177.677,218.701107329
177.692,218.829426027
177.707,218.957999945
177.722,219.086827249
177.737,219.21590606
177.752,219.345234454
177.767,219.47481047
177.782,219.6046321
177.797,219.734697297
177.812,219.865003966
177.827,219.995549968
177.842,220.126333123
177.857,220.257351203
177.872,220.388601935
177.887,220.520082998
177.902,220.651792028
177.917,220.78372661
177.932,220.915884283
177.947,221.04826254
177.96,221.163166813
177.962,221.180858821
177.977,221.313670521
177.992,221.446694983
178.007,221.579929499
178.022,221.713371315
178.037,221.847017621
178.052,221.980865558
178.067,222.114912213
178.082,222.249154624
178.097,222.383589774
178.112,222.518214589
178.127,222.653025947
178.142,222.78802067
178.157,222.923195522
178.172,223.058547214
178.187,223.194072401
178.202,223.329767681
178.217,223.465629597
178.232,223.601654631
178.247,223.737839211
178.262,223.874179705
178.277,224.010672422
178.292,224.147313613
178.307,224.284099468
178.322,224.421026117
178.337,224.558089631
178.352,224.69528602
178.367,224.83261123
178.382,224.970061149
178.397,225.107631598
178.41,225.226953542
178.412,225.24531834
178.427,225.383117072
178.442,225.521023429
178.457,225.659032981
178.472,225.797141233
178.487,225.935343628
178.502,226.073635542
178.517,226.212012287
178.532,226.350469103
178.547,226.489001174
178.562,226.62760361
178.577,226.766271457
178.592,226.904999691
178.607,227.043783224
178.622,227.182616899
178.637,227.321495488
178.652,227.4604137
178.667,227.599366168
178.682,227.738347464
178.697,227.877352084
178.712,228.016374457
178.727,228.155408944
178.742,228.294449832
178.757,228.433491342
178.772,228.572527621
178.787,228.711552747
178.802,228.850560728
178.817,228.989545498
178.832,229.128500924
178.847,229.267420799
178.862,229.406298846
178.877,229.545128715
178.892,229.683903986
178.907,229.822618167
178.922,229.961264695
178.937,230.099836934
178.952,230.238328178
178.967,230.376731647
178.982,230.515040494
178.997,230.653247796
179.012,230.791346559
179.027,230.929329721
179.042,231.067190147
179.057,231.20492063
179.072,231.342513893
179.087,231.479962589
179.102,231.617259301
179.117,231.754396539
179.132,231.891366746
179.147,232.028162295
179.16,232.14657121
179.162,232.164775488
179.177,232.301198561
179.192,232.437423679
179.207,232.57344294
179.222,232.709248373
179.237,232.844831943
179.252,232.980185545
179.267,233.115301009
179.282,233.250170099
179.297,233.384784518
179.312,233.519135895
179.327,233.653215805
179.342,233.787015756
179.357,233.920527195
179.372,234.053741503
179.387,234.186650006
179.402,234.319243968
179.417,234.451514591
179.432,234.583453024
179.447,234.715050354
179.462,234.846297615
179.477,234.977185785
179.492,235.107705784
179.507,235.237848485
179.522,235.367604705
179.537,235.49696521
179.552,235.625920718
179.567,235.754461899
179.582,235.882579373
179.597,236.010263718
179.612,236.137505463
179.627,236.264295097
179.642,236.390623068
179.657,236.516479781
179.672,236.641855604
179.687,236.766740869
179.702,236.89112587
179.717,237.015000871
179.732,237.1383561
179.747,237.261181754
179.762,237.383468009
179.777,237.505205005
179.792,237.626382862
179.807,237.746991677
179.822,237.867021526
179.837,237.986462464
179.852,238.105304531
179.867,238.223537752
179.882,238.341152139
179.897,238.458137694
179.91,238.559008785
179.912,238.57448441
179.927,238.690182274
179.942,238.805221271
179.957,238.919591382
179.972,239.033282591
179.987,239.146284886
180.002,239.258588258
180.017,239.37018271
180.032,239.481058254
180.047,239.591204917
180.062,239.700612741
180.077,239.809271786
180.092,239.917172138
180.107,240.024303903
180.122,240.130657216
180.137,240.236222243
180.152,240.34098918
180.167,240.444948264
180.182,240.548089765
180.197,240.650403998
180.212,240.751881322
180.227,240.852512145
180.242,240.952286922
180.257,241.051196167
180.272,241.149230448
180.287,241.246380393
180.302,241.342636694
180.317,241.43799011
180.332,241.532431469
180.347,241.625951672
180.362,241.718541696
180.377,241.810192598
180.392,241.900895518
180.407,241.99064168
180.422,242.079422399
180.437,242.167229084
180.452,242.254053236
180.467,242.339886459
180.482,242.424720458
180.497,242.508547043
180.512,242.591358135
180.527,242.673145768
180.542,242.753902089
180.557,242.833619368
180.56,242.849437467
180.572,242.912289995
180.587,242.989906487
180.602,243.066461491
180.617,243.141947785
180.632,243.216358283
180.647,243.289686039
180.66,243.35235568
180.662,243.361924249
180.677,243.433066255
180.692,243.503105546
180.707,243.572035766
180.722,243.639850711
180.737,243.706544336
180.752,243.77211076
180.767,243.836544261
180.782,243.89983929
180.797,243.961990464
180.812,244.022992576
180.827,244.082840593
180.842,244.141529662
180.857,244.199055113
180.872,244.255412458
180.887,244.310597396
180.902,244.36460582
180.917,244.41743381
180.932,244.469077645
180.947,244.519533799
180.962,244.568798946
180.977,244.616869963
180.992,244.66374393
181.007,244.709418136
181.022,244.753890075
181.037,244.797157455
181.052,244.839218196
181.067,244.880070431
181.082,244.919712511
181.097,244.958143005
181.112,244.995360702
181.127,245.031364613
181.142,245.066153971
181.157,245.099728234
181.172,245.132087086
181.187,245.16323044
181.202,245.193158434
181.217,245.221871439
181.232,245.249370054
181.247,245.275655111
181.262,245.300727675
181.277,245.324589044
181.292,245.34724075
181.307,245.368684559
181.31,245.372828546
181.322,245.388922474
181.337,245.407956733
181.352,245.425789809
181.367,245.442424414
181.382,245.457863496
181.397,245.472110239
181.412,245.485168065
181.427,245.497040634
181.442,245.507731842
181.457,245.517245822
181.472,245.525586945
181.487,245.532759818
181.502,245.538769283
181.517,245.543620421
181.532,245.547318546
181.547,245.549869207
181.562,245.551278189
181.577,245.551551509
181.592,245.550695417
181.607,245.548716397
181.622,245.545621162
181.637,245.541416657
181.652,245.536110056
181.667,245.529708761
181.682,245.522220402
181.697,245.513652835
181.712,245.504014139
181.727,245.493312619
181.742,245.481556801
181.757,245.468755432
181.772,245.454917477
181.787,245.44005212
181.802,245.424168759
181.817,245.407277008
181.832,245.389386691
181.847,245.370507841
181.862,245.350650701
181.877,245.329825717
181.892,245.30804354
181.907,245.285315019
181.922,245.261651199
181.937,245.237063323
181.952,245.21156282
181.967,245.18516131
181.982,245.157870593
181.997,245.12970265
182.012,245.100669636
182.027,245.070783874
182.042,245.040057853
182.057,245.008504219
182.06,245.002095303
182.072,244.976135772
182.087,244.942965453
182.102,244.909006345
182.117,244.874271657
182.132,244.838774719
182.147,244.80252897
182.162,244.76554795
182.177,244.727845284
182.192,244.689434673
182.207,244.650329875
182.222,244.610544693
182.237,244.570092956
182.252,244.528988499
182.267,244.487245143
182.282,244.444876669
182.297,244.401896798
182.312,244.358319154
182.327,244.314157241
182.342,244.269424401
182.357,244.224133782
182.372,244.17829829
182.387,244.131930546
182.402,244.085042833
182.417,244.037647035
182.432,243.98975458
182.447,243.941376361
182.462,243.892522665
182.477,243.843203079
182.492,243.793426394
182.507,243.743200501
182.522,243.692532261
182.537,243.641427378
182.552,243.589890238
182.567,243.537923749
182.582,243.485529139
182.597,243.432705749
182.612,243.379450784
182.627,243.325759043
182.642,243.271622608
182.657,243.217030489
182.672,243.161968224
182.687,243.106417425
182.702,243.050355251
182.717,242.993753812
182.732,242.936579478
182.747,242.878792082
182.762,242.820344003
182.777,242.761179092
182.792,242.701231425
182.807,242.640423842
182.822,242.578666228
182.837,242.515853485
182.852,242.451863125
182.867,242.386552399
182.882,242.319754855
182.897,242.251276197
182.912,242.180889257
182.927,242.108327859
182.942,242.033279289
182.957,241.955374971
182.972,241.874178839
182.987,241.789172708
183.002,241.699737712
183.017,241.60513048
183.032,241.504452269
183.047,241.396608446
183.062,241.280254608
183.077,241.153723886
183.092,241.014927236
183.107,240.861214187
183.122,240.689174371
183.137,240.49434811
183.152,240.270793343
183.167,240.010418214
183.182,239.701917404
183.197,239.329010287
183.212,238.867390625
183.227,238.279173243
183.242,237.502212619
183.257,236.42846578
183.367,236.724151651
183.382,237.706122966
183.397,238.424996783
183.412,238.974143365
183.427,239.408085009
183.442,239.760517809
183.457,240.053313276
183.472,240.301264732
183.487,240.514729163
183.502,240.701171157
183.517,240.86610463
183.532,241.013689005
183.547,241.147119098
183.562,241.268887459
183.577,241.38096536
183.592,241.484930466
183.607,241.582058691
183.622,241.673391449
183.637,241.759785698
183.652,241.841951695
183.667,241.920481863
183.682,241.995873117
183.697,242.068544319
183.712,242.138850067
183.727,242.207091669
183.742,242.273525972
183.757,242.338372501
183.772,242.40181929
183.787,242.464027658
183.802,242.525136164
183.817,242.585263889
183.832,242.644513179
183.847,242.702971947
183.862,242.76071562
183.877,242.817808784
183.892,242.87430659
183.907,242.930255952
183.922,242.985696577
183.937,243.040661853
183.952,243.095179615
183.967,243.149272814
183.982,243.202960088
183.997,243.256256274
184.012,243.309172849
184.027,243.361718313
184.042,243.413898538
184.057,243.46571706
184.072,243.517175354
184.087,243.568273061
184.102,243.619008202
184.117,243.669377364
184.132,243.719375863
184.147,243.768997893
184.162,243.818236655
184.177,243.867084481
184.192,243.915532934
184.207,243.963572906
184.222,244.011194701
184.237,244.058388112
184.252,244.105142492
184.267,244.151446813
184.282,244.197289723
184.297,244.242659597
184.312,244.287544582
184.327,244.331932636
184.342,244.375811569
184.357,244.419169074
184.372,244.461992756
184.387,244.504270162
184.402,244.545988803
184.417,244.587136181
184.432,244.627699801
184.447,244.6676672
184.462,244.707025952
184.477,244.745763694
184.492,244.783868131
184.507,244.821327051
184.522,244.858128339
184.537,244.894259983
184.552,244.929710085
184.56,244.94833406
184.567,244.964466868
184.582,244.998518685
184.597,245.031854024
184.612,245.064461516
184.627,245.096329939
184.642,245.127448221
184.657,245.157805451
184.672,245.187390876
184.687,245.216193909
184.702,245.244204129
184.717,245.271411288
184.732,245.297805311
184.747,245.323376299
184.762,245.348114532
184.777,245.372010469
184.792,245.395054754
184.807,245.417238213
184.822,245.438551859
184.837,245.458986892
184.852,245.4785347
184.867,245.497186862
184.882,245.514935146
184.897,245.531771513
184.912,245.547688118
184.927,245.562677308
184.942,245.576731625
184.957,245.589843806
184.972,245.602006785
184.987,245.613213692
185.002,245.623457854
185.017,245.632732796
185.032,245.641032242
185.047,245.648350114
185.062,245.654680532
185.077,245.660017817
185.092,245.664356489
185.107,245.667691269
185.122,245.670017077
185.137,245.671329034
185.152,245.671622463
185.167,245.670892884
185.182,245.669136022
185.197,245.666347801
185.212,245.662524346
185.227,245.657661982
185.242,245.651757235
185.257,245.644806833
185.272,245.636807704
185.287,245.627756973
185.302,245.617651969
185.31,245.61183069
185.317,245.606490217
185.332,245.594269443
185.347,245.580987572
185.362,245.566642725
185.377,245.551233223
185.392,245.534757582
185.407,245.517214514
185.422,245.498602929
185.437,245.478921929
185.452,245.458170812
185.467,245.436349068
185.482,245.413456379
185.497,245.389492619
185.512,245.364457851
185.527,245.338352327
185.542,245.311176489
185.557,245.282930962
185.572,245.253616559
185.587,245.223234275
185.602,245.19178529
185.617,245.159270963
185.632,245.125692832
185.647,245.091052615
185.662,245.055352206
185.677,245.018593673
185.692,244.980779258
185.707,244.941911373
185.722,244.901992599
185.737,244.861025688
185.752,244.819013553
185.767,244.775959274
185.782,244.731866093
185.797,244.686737408
185.812,244.640576778
185.827,244.593387916
185.842,244.545174689
185.857,244.495941114
185.872,244.445691358
185.887,244.394429732
185.902,244.342160695
185.917,244.288888846
185.932,244.234618922
185.947,244.179355797
185.96,244.130661571
185.962,244.123104484
185.977,244.065870122
185.992,244.007657983
186.007,243.948473466
186.022,243.888322095
186.037,243.827209513
186.052,243.765141486
186.06,243.731649893
186.067,243.702123894
186.082,243.638162733
186.097,243.57326411
186.112,243.507434241
186.127,243.440679448
186.142,243.373006156
186.157,243.304420892
186.172,243.234930282
186.187,243.164541046
186.202,243.093259998
186.217,243.021094041
186.232,242.948050167
186.247,242.874135452
186.262,242.799357055
186.277,242.723722213
186.292,242.647238243
186.307,242.569912534
186.322,242.491752545
186.337,242.412765808
186.352,242.332959918
186.367,242.252342537
186.382,242.170921384
186.397,242.088704239
186.412,242.00569894
186.427,241.921913374
186.442,241.837355481
186.457,241.752033251
186.472,241.665954718
186.487,241.579127959
186.502,241.491561095
186.517,241.403262281
186.532,241.314239712
186.547,241.224501615
186.562,241.13405625
186.577,241.042911903
186.592,240.951076889
186.607,240.858559549
186.622,240.765368244
186.637,240.671511354
186.652,240.576997279
186.667,240.481834436
186.682,240.386031251
186.697,240.289596166
186.71,240.205514485
186.712,240.192537629
186.727,240.094864099
186.742,239.996584036
186.757,239.897705907
186.772,239.79823818
186.787,239.69818932
186.802,239.597567792
186.817,239.496382056
186.832,239.394640566
186.847,239.292351768
186.862,239.1895241
186.877,239.086165986
186.892,238.982285841
186.907,238.877892061
186.922,238.772993029
186.937,238.667597109
186.952,238.561712645
186.967,238.455347964
186.982,238.348511366
186.997,238.24121113
187.012,238.133455508
187.027,238.025252728
187.042,237.916610989
187.057,237.80753846
187.072,237.698043282
187.087,237.588133562
187.102,237.477817375
187.117,237.367102762
187.132,237.25599773
187.147,237.144510248
187.162,237.032648249
187.177,236.920419626
187.192,236.807832234
187.207,236.694893889
187.222,236.581612362
187.237,236.467995386
187.252,236.354050647
187.267,236.239785789
187.282,236.125208412
187.297,236.010326069
187.312,235.895146266
187.327,235.779676465
187.342,235.663924076
187.357,235.547896464
187.372,235.431600941
187.387,235.315044775
187.402,235.198235178
187.417,235.081179314
187.432,234.963884294
187.447,234.846357177
187.46,234.744318019
187.462,234.728604971
187.477,234.610634629
187.492,234.492453051
187.507,234.374067084
187.522,234.25548352
187.537,234.136709096
187.552,234.017750494
187.567,233.898614341
187.582,233.779307208
187.597,233.659835607
187.612,233.540206001
187.627,233.420424789
187.642,233.300498317
187.657,233.180432872
187.672,233.060234685
187.687,232.939909931
187.702,232.819464724
187.717,232.698905122
187.732,232.578237127
187.747,232.457466679
187.762,232.336599665
187.777,232.215641908
187.792,232.094599177
187.807,231.973477184
187.822,231.852281579
187.837,231.731017956
187.852,231.60969185
187.867,231.488308737
187.882,231.366874039
187.897,231.245393114
187.912,231.123871265
187.927,231.002313739
187.942,230.880725722
187.957,230.759112343
187.972,230.637478674
187.987,230.51582973
188.002,230.394170467
188.017,230.272505784
188.032,230.150840525
188.047,230.029179475
188.062,229.907527362
188.077,229.785888861
188.092,229.664268585
188.107,229.542671096
188.122,229.421100898
188.137,229.299562439
188.152,229.178060113
188.167,229.056598255
188.182,228.935181151
188.197,228.813813027
188.21,228.708670167
188.212,228.692498059
188.227,228.571240364
188.242,228.450044008
188.257,228.328913006
188.272,228.207851314
188.287,228.086862839
188.302,227.965951435
188.317,227.845120899
188.332,227.724374984
188.347,227.603717384
188.362,227.483151746
188.377,227.362681662
188.392,227.242310679
188.407,227.122042288
188.422,227.00187993
188.437,226.881827003
188.452,226.761886846
188.467,226.642062756
188.482,226.522357979
188.497,226.402775712
188.512,226.283319104
188.527,226.163991259
188.542,226.044795229
188.557,225.925734022
188.572,225.806810601
188.587,225.688027879
188.602,225.569388727
188.617,225.450895967
188.632,225.332552378
188.647,225.214360695
188.66,225.112052857
188.662,225.096323607
188.677,224.978443758
188.692,224.860723752
188.707,224.743166149
188.722,224.625773463
