# 01004 ENAS Ny-Alesund Ii Observations at 12Z 02 Feb 2019
Frequency [GHz],TB
175.31,238.456901267
175.322,238.521927978
175.337,238.603258472
175.352,238.684640142
175.367,238.766071732
175.382,238.847551971
175.397,238.929079572
175.412,239.010653234
175.427,239.092271637
175.442,239.17393345
175.457,239.255637325
175.472,239.337381895
175.487,239.419165783
175.502,239.500987591
175.517,239.582845907
175.532,239.664739304
175.547,239.746666337
175.562,239.828625542
175.577,239.910615447
175.592,239.992634554
175.607,240.074681354
175.622,240.156754318
175.637,240.238851904
175.652,240.320972549
175.667,240.403114674
175.682,240.485276685
175.697,240.567456968
175.712,240.649653893
175.727,240.731865811
175.742,240.814091057
175.757,240.896327947
175.772,240.978574782
175.787,241.06082984
175.802,241.143091386
175.817,241.225357663
175.832,241.307626899
175.847,241.389897301
175.862,241.472167057
175.877,241.554434343
175.892,241.636697307
175.907,241.718954084
175.922,241.80120279
175.937,241.88344152
175.952,241.96566835
175.967,242.04788134
175.982,242.130078527
175.997,242.212257932
176.012,242.294417554
176.027,242.376555373
176.042,242.458669351
176.057,242.540757429
176.072,242.622817527
176.087,242.704847549
176.102,242.786845377
176.117,242.868808871
176.132,242.950735875
176.147,243.032624208
176.162,243.114471674
176.177,243.196276052
176.192,243.278035106
176.207,243.359746573
176.222,243.441408175
176.237,243.523017611
176.252,243.604572559
176.267,243.686070678
176.282,243.767509604
176.297,243.848886954
176.31,243.919362325
176.312,243.930200324
176.327,244.011447287
176.342,244.092625398
176.357,244.173732189
176.372,244.254765171
176.387,244.335721835
176.402,244.416599648
176.417,244.49739606
176.432,244.578108497
176.447,244.658734364
176.46,244.728538066
176.462,244.739271044
176.477,244.819715899
176.492,244.90006627
176.507,244.980319479
176.522,245.060472819
176.537,245.140523571
176.552,245.220468988
176.567,245.300306303
176.582,245.380032727
176.597,245.459645452
176.612,245.539141647
176.627,245.618518455
176.642,245.697773007
176.657,245.776902402
176.672,245.855903724
176.687,245.934774035
176.702,246.01351037
176.717,246.09210975
176.732,246.170569171
176.747,246.248885606
176.762,246.327056008
176.777,246.405077309
176.792,246.482946418
176.807,246.560660225
176.822,246.638215598
176.837,246.715609381
176.852,246.7928384
176.867,246.869899459
176.882,246.94678934
176.897,247.023504804
176.912,247.100042593
176.927,247.176399426
176.942,247.252572001
176.957,247.328556997
176.972,247.404351071
176.987,247.47995086
177.002,247.555352982
177.017,247.63055403
177.032,247.705550583
177.047,247.780339194
177.062,247.8549164
177.077,247.929278719
177.092,248.003422644
177.107,248.077344652
177.122,248.151041201
177.137,248.22450873
177.152,248.297743656
177.167,248.370742379
177.182,248.44350128
177.197,248.516016723
177.21,248.578663683
177.212,248.58828505
177.227,248.660302587
177.242,248.732065642
177.257,248.803570503
177.272,248.874813445
177.287,248.945790721
177.302,249.016498568
177.31,249.054097949
177.317,249.086933207
177.332,249.157090841
177.347,249.226967659
177.362,249.296559829
177.377,249.365863509
177.392,249.434874836
177.407,249.503589935
177.422,249.572004914
177.437,249.640115866
177.452,249.707918873
177.467,249.775409996
177.482,249.842585287
177.497,249.909440784
177.512,249.97597251
177.527,250.042176477
177.542,250.108048682
177.557,250.173585111
177.572,250.238781737
177.587,250.303634524
177.602,250.368139423
177.617,250.432292374
177.632,250.496089305
177.647,250.559526138
177.66,250.614210286
177.662,250.622598782
177.677,250.68530314
177.692,250.747635101
177.707,250.809590552
177.722,250.871165367
177.737,250.932355416
177.752,250.993156559
177.767,251.053564651
177.782,251.113575544
177.797,251.173185078
177.812,251.232389092
177.827,251.291183422
177.842,251.349563896
177.857,251.407526341
177.872,251.46506658
177.887,251.522180435
177.902,251.578863722
177.917,251.635112263
177.932,251.690921873
177.947,251.746288369
177.96,251.793911002
177.962,251.801207568
177.977,251.855675288
177.992,251.90968735
178.007,251.963239574
178.022,252.016327787
178.037,252.068947817
178.052,252.121095497
178.067,252.172766662
178.082,252.223957156
178.097,252.27466283
178.112,252.324879535
178.127,252.374603137
178.142,252.423829507
178.157,252.472554523
178.172,252.520774077
178.187,252.568484065
178.202,252.615680401
178.217,252.662359006
178.232,252.708515814
178.247,252.754146773
178.262,252.799247845
178.277,252.843815007
178.292,252.88784425
178.307,252.931331581
178.322,252.974273027
178.337,253.01666463
178.352,253.058502448
178.367,253.099782567
178.382,253.140501085
178.397,253.180654123
178.41,253.214993033
178.412,253.220237826
178.427,253.259248359
178.442,253.297681913
178.457,253.335534699
178.472,253.372802957
178.487,253.409482952
178.502,253.445570975
178.517,253.481063346
178.532,253.515956411
178.547,253.550246545
178.562,253.583930158
178.577,253.617003687
178.592,253.6494636
178.607,253.681306401
178.622,253.712528625
178.637,253.743126842
178.652,253.773097658
178.667,253.802437715
178.682,253.831143689
178.697,253.8592123
178.712,253.8866403
178.727,253.913424488
178.742,253.939561694
178.757,253.965048798
178.772,253.989882717
178.787,254.014060413
178.802,254.037578892
178.817,254.060435202
178.832,254.082626441
178.847,254.104149747
178.862,254.125002314
178.877,254.145181374
178.892,254.164684215
178.907,254.183508172
178.922,254.201650629
178.937,254.219109025
178.952,254.235880846
178.967,254.251963634
178.982,254.267354985
178.997,254.282052546
179.012,254.296054021
179.027,254.309357171
179.042,254.321959809
179.057,254.33385981
179.072,254.345055103
179.087,254.355543677
179.102,254.365323581
179.117,254.37439292
179.132,254.382749865
179.147,254.390392643
179.16,254.39643738
179.162,254.397319545
179.177,254.403528923
179.192,254.409019194
179.207,254.413788832
179.222,254.417836383
179.237,254.42116045
179.252,254.423759706
179.267,254.425632886
179.282,254.426778791
179.297,254.427196288
179.312,254.426884311
179.327,254.425841862
179.342,254.424068005
179.357,254.421561877
179.372,254.41832268
179.387,254.414349682
179.402,254.409642224
179.417,254.40419971
179.432,254.398021616
179.447,254.391107485
179.462,254.38345693
179.477,254.375069632
179.492,254.365945339
179.507,254.356083871
179.522,254.345485117
179.537,254.334149031
179.552,254.322075639
179.567,254.309265035
179.582,254.295717382
179.597,254.281432909
179.612,254.266411918
179.627,254.250654773
179.642,254.234161909
179.657,254.21693383
179.672,254.198971102
179.687,254.180274363
179.702,254.160844313
179.717,254.140681721
179.732,254.119787418
179.747,254.098162304
179.762,254.075807339
179.777,254.052723551
179.792,254.028912026
179.807,254.004373918
179.822,253.979110437
179.837,253.953122859
179.852,253.926412516
179.867,253.898980805
179.882,253.870829174
179.897,253.841959137
179.91,253.816358534
179.912,253.812372256
179.927,253.782070158
179.942,253.751054519
179.957,253.71932707
179.972,253.686889596
179.987,253.653743933
180.002,253.61989197
180.017,253.585335642
180.032,253.550076934
180.047,253.514117881
180.062,253.47746056
180.077,253.440107095
180.092,253.402059655
180.107,253.363320448
180.122,253.323891726
180.137,253.283775779
180.152,253.242974936
180.167,253.201491562
180.182,253.159328062
180.197,253.116486868
180.212,253.072970449
180.227,253.028781307
180.242,252.983921969
180.257,252.938394996
180.272,252.89220297
180.287,252.845348503
180.302,252.797834229
180.317,252.749662805
180.332,252.700836907
180.347,252.651359232
180.362,252.601232497
180.377,252.550459431
180.392,252.499042778
180.407,252.446985301
180.422,252.394289769
180.437,252.340958962
180.452,252.286995672
180.467,252.232402696
180.482,252.177182835
180.497,252.121338899
180.512,252.064873698
180.527,252.007790042
180.542,251.950090747
180.557,251.891778622
180.56,251.880042905
180.572,251.832856476
180.587,251.773327115
180.602,251.713193338
180.617,251.65245794
180.632,251.591123706
180.647,251.529193416
180.66,251.475040493
180.662,251.466669837
180.677,251.403555726
180.692,251.33985383
180.707,251.275566882
180.722,251.2106976
180.737,251.145248691
180.752,251.079222844
180.767,251.012622733
180.782,250.945451015
180.797,250.877710331
180.812,250.809403302
180.827,250.740532533
180.842,250.671100608
180.857,250.601110095
180.872,250.530563539
180.887,250.45946347
180.902,250.387812395
180.917,250.315612804
180.932,250.242867165
180.947,250.169577929
180.962,250.095747528
180.977,250.021378373
180.992,249.946472861
181.007,249.87103337
181.022,249.795062257
181.037,249.71856187
181.052,249.641534537
181.067,249.563982572
181.082,249.485908278
181.097,249.407313946
181.112,249.328201853
181.127,249.248574271
181.142,249.168433464
181.157,249.087781685
181.172,249.006621189
181.187,248.924954226
181.202,248.842783045
181.217,248.7601099
181.232,248.676937044
181.247,248.593266742
181.262,248.509101265
181.277,248.424442897
181.292,248.339293936
181.307,248.253656698
181.31,248.236470862
181.322,248.167533519
181.337,248.08092676
181.352,247.993838807
181.367,247.906272079
181.382,247.818229028
181.397,247.729712144
181.412,247.64072396
181.427,247.551267053
181.442,247.46134405
181.457,247.370957636
181.472,247.280110549
181.487,247.188805596
181.502,247.097045648
181.517,247.004833651
181.532,246.912172629
181.547,246.819065689
181.562,246.725516024
181.577,246.631526924
181.592,246.537101776
181.607,246.442244075
181.622,246.346957423
181.637,246.25124554
181.652,246.155112272
181.667,246.058561589
181.682,245.9615976
181.697,245.864224555
181.712,245.766446851
181.727,245.668269041
181.742,245.569695841
181.757,245.470732134
181.772,245.371382981
181.787,245.271653624
181.802,245.171549496
181.817,245.071076228
181.832,244.970239655
181.847,244.869045824
181.862,244.767501005
181.877,244.665611693
181.892,244.563384617
181.907,244.460826752
181.922,244.357945323
181.937,244.254747813
181.952,244.151241969
181.967,244.047435817
181.982,243.943337661
181.997,243.838956094
182.012,243.734300008
182.027,243.629378598
182.042,243.524201373
182.057,243.418778158
182.06,243.397664884
182.072,243.313119107
182.087,243.207234705
182.102,243.101135777
182.117,242.994833494
182.132,242.888339379
182.147,242.781665312
182.162,242.674823535
182.177,242.567826657
182.192,242.460687658
182.207,242.353419893
182.222,242.246037091
182.237,242.13855336
182.252,242.030983187
182.267,241.923341438
182.282,241.815643352
182.297,241.707904546
182.312,241.600141
182.327,241.492369058
182.342,241.384605418
182.357,241.27686712
182.372,241.169171531
182.387,241.061536333
182.402,240.953979501
182.417,240.84651928
182.432,240.739174163
182.447,240.631962853
182.462,240.524904232
182.477,240.41801732
182.492,240.311321224
182.507,240.204835089
182.522,240.098578033
182.537,239.992569077
182.552,239.886827068
182.567,239.781370583
182.582,239.676217836
182.597,239.571386554
182.612,239.466893849
182.627,239.362756073
182.642,239.258988648
182.657,239.155605879
182.672,239.052620742
182.687,238.950044642
182.702,238.847887142
182.717,238.746155659
182.732,238.644855111
182.747,238.543987526
182.762,238.443551594
182.777,238.343542157
182.792,238.243949632
182.807,238.144759344
182.822,238.045950773
182.837,237.947496682
182.852,237.849362118
182.867,237.751503251
182.882,237.653866036
182.897,237.556384648
182.912,237.458979653
182.927,237.361555851
182.942,237.263999729
182.957,237.166176421
182.972,237.067926055
182.987,236.969059342
183.002,236.869352182
183.017,236.768539022
183.032,236.666304575
183.047,236.5622734
183.062,236.455996616
183.077,236.346934751
183.092,236.234435316
183.107,236.117703094
183.122,235.995760257
183.137,235.867392194
183.152,235.731073189
183.167,235.584863845
183.182,235.426269837
183.197,235.252051253
183.212,235.057981345
183.227,234.838601235
183.242,234.587204431
183.257,234.296979503
183.367,234.357543387
183.382,234.633276991
183.397,234.87179609
183.412,235.080126068
183.427,235.264681611
183.442,235.430585444
183.457,235.581785542
183.472,235.721309129
183.487,235.851492036
183.502,235.974155795
183.517,236.090737846
183.532,236.202385945
183.547,236.310026639
183.562,236.41441529
183.577,236.516173007
183.592,236.615814252
183.607,236.713767747
183.622,236.810392515
183.637,236.905990342
183.652,237.000815597
183.667,237.095083038
183.682,237.188974106
183.697,237.282642038
183.712,237.376216073
183.727,237.469804926
183.742,237.563499694
183.757,237.657376294
183.772,237.751497531
183.787,237.845914849
183.802,237.94066984
183.817,238.035795531
183.832,238.131317498
183.847,238.227254836
183.862,238.323620991
183.877,238.4204245
183.892,238.517669625
183.907,238.615356914
183.922,238.713483698
183.937,238.812044519
183.952,238.911031515
183.967,239.010434756
183.982,239.110242542
183.997,239.210441666
184.012,239.311017647
184.027,239.411954937
184.042,239.513237102
184.057,239.614846985
184.072,239.716766848
184.087,239.818978499
184.102,239.921463408
184.117,240.024202797
184.132,240.127177738
184.147,240.230369223
184.162,240.333758233
184.177,240.4373258
184.192,240.541053059
184.207,240.644921291
184.222,240.748911964
184.237,240.853006769
184.252,240.95718765
184.267,241.061436827
184.282,241.165736818
184.297,241.270070461
184.312,241.374420926
184.327,241.47877173
184.342,241.583106744
184.357,241.687410205
184.372,241.791666719
184.387,241.895861271
184.402,241.999979218
184.417,242.104006303
184.432,242.207928644
184.447,242.311732743
184.462,242.415405475
184.477,242.518934095
184.492,242.622306228
184.507,242.725509868
184.522,242.828533371
184.537,242.931365456
184.552,243.033995193
184.56,243.088644647
184.567,243.136412
184.582,243.238605637
184.597,243.340566201
184.612,243.442284115
184.627,243.543750128
184.642,243.644955302
184.657,243.745891005
184.672,243.84654891
184.687,243.946920981
184.702,244.046999468
184.717,244.146776902
184.732,244.246246083
184.747,244.345400076
184.762,244.444232204
184.777,244.542736036
184.792,244.640905386
184.807,244.738734301
184.822,244.836217055
184.837,244.933348142
184.852,245.030122272
184.867,245.126534357
184.882,245.22257951
184.897,245.318253035
184.912,245.413550422
184.927,245.508467341
184.942,245.602999632
184.957,245.697143301
184.972,245.790894514
184.987,245.884249591
185.002,245.977204996
185.017,246.069757335
185.032,246.161903351
185.047,246.253639915
185.062,246.344964019
185.077,246.435872778
185.092,246.526363414
185.107,246.616433259
185.122,246.70607975
185.137,246.795300415
185.152,246.884092878
185.167,246.972454851
185.182,247.060384125
185.197,247.147878573
185.212,247.234936139
185.227,247.321554838
185.242,247.407732749
185.257,247.493468012
185.272,247.578758827
185.287,247.663603443
185.302,247.748000161
185.31,247.792828032
185.317,247.83194733
185.332,247.915443338
185.347,247.998486614
185.362,248.081075624
185.377,248.163208866
185.392,248.244884868
185.407,248.326102185
185.422,248.406859398
185.437,248.487155107
185.452,248.566987935
185.467,248.646356517
185.482,248.725259507
185.497,248.80369557
185.512,248.881663379
185.527,248.959161618
185.542,249.036188976
185.557,249.112744147
185.572,249.188825828
185.587,249.264432716
185.602,249.339563509
185.617,249.414216903
185.632,249.488391592
185.647,249.562086263
185.662,249.6352996
185.677,249.708030282
185.692,249.780276976
185.707,249.852038346
185.722,249.923313045
185.737,249.994099714
185.752,250.064396988
185.767,250.134203488
185.782,250.203517825
185.797,250.272338598
185.812,250.340664395
185.827,250.408493789
185.842,250.475825343
185.857,250.542657607
185.872,250.608989119
185.887,250.674818401
185.902,250.740143968
185.917,250.804964316
185.932,250.869277935
185.947,250.9330833
185.96,250.987968972
185.962,250.996378871
185.977,251.059163104
185.992,251.121434437
186.007,251.183191303
186.022,251.244432119
186.037,251.305155298
186.052,251.36535924
186.06,251.397255145
186.067,251.425042339
186.082,251.48420298
186.097,251.542839541
186.112,251.600950394
186.127,251.658533904
186.142,251.715588434
186.157,251.772112339
186.172,251.828103973
186.187,251.883561688
186.202,251.938483833
186.217,251.992868757
186.232,252.046714809
186.247,252.100020339
186.262,252.152783701
186.277,252.205003248
186.292,252.256677341
186.307,252.307804343
186.322,252.358382627
186.337,252.408410568
186.352,252.457886553
186.367,252.506808976
186.382,252.555176242
186.397,252.602986765
186.412,252.650238975
186.427,252.696931312
186.442,252.743062231
186.457,252.788630203
186.472,252.833633714
186.487,252.878071267
186.502,252.921941386
186.517,252.965242611
186.532,253.007973503
186.547,253.050132646
186.562,253.091718644
186.577,253.132730125
186.592,253.173165743
186.607,253.213024174
186.622,253.25230412
186.637,253.291004315
186.652,253.329123514
186.667,253.366660504
186.682,253.403614103
186.697,253.439983158
186.71,253.471029305
186.712,253.475766545
186.727,253.510963177
186.742,253.545571995
186.757,253.579591976
186.772,253.613022133
186.787,253.645861511
186.802,253.678109194
186.817,253.709764299
186.832,253.740825984
186.847,253.77129344
186.862,253.801165904
186.877,253.830442646
186.892,253.859122978
186.907,253.887206251
186.922,253.91469186
186.937,253.941579239
186.952,253.967867863
186.967,253.993557251
186.982,254.018646967
186.997,254.043136612
187.012,254.067025836
187.027,254.090314333
187.042,254.113001839
187.057,254.135088135
187.072,254.156573049
187.087,254.177456453
187.102,254.197738263
187.117,254.217418445
187.132,254.236497007
187.147,254.254974006
187.162,254.272849544
187.177,254.29012377
187.192,254.30679688
187.207,254.322869116
187.222,254.338340768
187.237,254.353212173
187.252,254.367483714
187.267,254.381155821
187.282,254.394228973
187.297,254.406703695
187.312,254.418580556
187.327,254.429860177
187.342,254.440543224
187.357,254.450630408
187.372,254.460122487
187.387,254.469020268
187.402,254.477324603
187.417,254.485036389
187.432,254.49215657
187.447,254.498686136
187.46,254.503868152
187.462,254.504626124
187.477,254.509977613
187.492,254.514741727
187.507,254.518919641
187.522,254.522512566
187.537,254.525521764
187.552,254.527948537
187.567,254.529794232
187.582,254.53106024
187.597,254.531747992
187.612,254.531858965
187.627,254.531394677
187.642,254.530356686
187.657,254.528746595
187.672,254.526566043
187.687,254.523816713
187.702,254.520500329
187.717,254.516618651
187.732,254.512173479
187.747,254.507166656
187.762,254.501600058
187.777,254.495475601
187.792,254.488795239
187.807,254.481560961
187.822,254.473774792
187.837,254.465438796
187.852,254.45655507
187.867,254.447125743
187.882,254.437152984
187.897,254.426638991
187.912,254.415585998
187.927,254.403996269
187.942,254.391872103
187.957,254.379215827
187.972,254.366029802
187.987,254.352316418
188.002,254.338078095
188.017,254.323317281
188.032,254.308036455
188.047,254.292238122
188.062,254.275924816
188.077,254.259099097
188.092,254.241763552
188.107,254.223920792
188.122,254.205573456
188.137,254.186724206
188.152,254.167375729
188.167,254.147530733
188.182,254.127191952
188.197,254.106362141
188.21,254.087914594
188.212,254.085044076
188.227,254.063240555
188.242,254.040954398
188.257,254.01818844
188.272,253.994945543
188.287,253.971228581
188.302,253.947040449
188.317,253.922384061
188.332,253.897262348
188.347,253.871678254
188.362,253.845634742
188.377,253.819134793
188.392,253.792181397
188.407,253.764777563
188.422,253.73692631
188.437,253.708630675
188.452,253.679893706
188.467,253.650718459
188.482,253.621108008
188.497,253.591065436
188.512,253.560593834
188.527,253.529696306
188.542,253.498375966
188.557,253.466635934
188.572,253.434479342
188.587,253.401909327
188.602,253.368929037
188.617,253.335541623
188.632,253.301750248
188.647,253.267558076
188.66,253.237603112
188.662,253.232968279
188.677,253.197984034
188.692,253.162608523
188.707,253.126844931
188.722,253.090696449
188.737,253.05416627
