# 10410 EDZE Essen Observations at 12Z 02 Feb 2019
Frequency [GHz],TB
175.31,262.286492111
175.322,262.30546471
175.337,262.329017955
175.352,262.352389652
175.367,262.375578746
175.382,262.398584181
175.397,262.421404903
175.412,262.444039862
175.427,262.466488007
175.442,262.488748289
175.457,262.510819662
175.472,262.53270108
175.487,262.554391499
175.502,262.575889883
175.517,262.59719519
175.532,262.618306385
175.547,262.639222434
175.562,262.659942305
175.577,262.680464972
175.592,262.700789406
175.607,262.720914587
175.622,262.740839494
175.637,262.760563109
175.652,262.780084421
175.667,262.799402416
175.682,262.81851609
175.697,262.837424437
175.712,262.85612646
175.727,262.874621161
175.742,262.892907548
175.757,262.910984632
175.772,262.928851429
175.787,262.946506959
175.802,262.963950245
175.817,262.981180318
175.832,262.998196209
175.847,263.014996955
175.862,263.0315816
175.877,263.047949191
175.892,263.06409878
175.907,263.080029424
175.922,263.095740186
175.937,263.111230134
175.952,263.12649834
175.967,263.141543885
175.982,263.156365852
175.997,263.170963333
176.012,263.185335423
176.027,263.199481225
176.042,263.213399848
176.057,263.227090405
176.072,263.240552021
176.087,263.25378382
176.102,263.266784939
176.117,263.279554518
176.132,263.292091707
176.147,263.304395659
176.162,263.316465538
176.177,263.328300513
176.192,263.339899761
176.207,263.351262467
176.222,263.362387824
176.237,263.373275031
176.252,263.383923295
176.267,263.394331834
176.282,263.40449987
176.297,263.414426638
176.31,263.422834088
176.312,263.424111374
176.327,263.433553332
176.342,263.442751767
176.357,263.451705946
176.372,263.460415143
176.387,263.468878644
176.402,263.477095742
176.417,263.485065737
176.432,263.492787944
176.447,263.500261683
176.46,263.506537422
176.462,263.507486284
176.477,263.514461087
176.492,263.521185442
176.507,263.527658711
176.522,263.53388026
176.537,263.539849474
176.552,263.545565738
176.567,263.551028455
176.582,263.556237036
176.597,263.561190901
176.612,263.565889482
176.627,263.570332222
176.642,263.574518576
176.657,263.578448005
176.672,263.582119987
176.687,263.585534007
176.702,263.588689562
176.717,263.591586162
176.732,263.594223326
176.747,263.596600587
176.762,263.598717488
176.777,263.600573583
176.792,263.602168438
176.807,263.603501632
176.822,263.604572756
176.837,263.60538141
176.852,263.605927209
176.867,263.606209781
176.882,263.60622876
176.897,263.605983802
176.912,263.605474566
176.927,263.604700727
176.942,263.603661975
176.957,263.602358007
176.972,263.60078854
176.987,263.598953294
177.002,263.59685201
177.017,263.594484436
177.032,263.591850338
177.047,263.588949488
177.062,263.585781679
177.077,263.582346708
177.092,263.578644393
177.107,263.574674558
177.122,263.570437045
177.137,263.565931705
177.152,263.561158406
177.167,263.556117025
177.182,263.550807453
177.197,263.545229598
177.21,263.540178378
177.212,263.539383373
177.227,263.533268711
177.242,263.526885556
177.257,263.520233863
177.272,263.513313602
177.287,263.506124754
177.302,263.498667315
177.31,263.494580192
177.317,263.490941292
177.332,263.482946707
177.347,263.474683593
177.362,263.466151996
177.377,263.457351974
177.392,263.4482836
177.407,263.438946957
177.422,263.429342142
177.437,263.419469265
177.452,263.409328448
177.467,263.398919822
177.482,263.388243536
177.497,263.377299747
177.512,263.366088628
177.527,263.354610358
177.542,263.342865133
177.557,263.330853161
177.572,263.318574658
177.587,263.306029854
177.602,263.29321899
177.617,263.28014232
177.632,263.266800106
177.647,263.253192624
177.66,263.241185122
177.662,263.23932016
177.677,263.225183011
177.692,263.210781484
177.707,263.196115898
177.722,263.18118658
177.737,263.165993871
177.752,263.150538118
177.767,263.134819681
177.782,263.11883893
177.797,263.10259624
177.812,263.086092001
177.827,263.06932661
177.842,263.052300472
177.857,263.035014002
177.872,263.017467624
177.887,262.999661769
177.902,262.981596877
177.917,262.963273398
177.932,262.944691785
177.947,262.925852503
177.96,262.909317062
177.962,262.906756022
177.977,262.887402819
177.992,262.867793381
178.007,262.847928196
178.022,262.827807764
178.037,262.807432586
178.052,262.786803175
178.067,262.765920042
178.082,262.74478371
178.097,262.723394702
178.112,262.70175355
178.127,262.679860787
178.142,262.657716952
178.157,262.635322586
178.172,262.612678239
178.187,262.589784457
178.202,262.566641792
178.217,262.5432508
178.232,262.519612038
178.247,262.495726067
178.262,262.471593445
178.277,262.447214738
178.292,262.422590507
178.307,262.397721317
178.322,262.372607734
178.337,262.347250323
178.352,262.321649647
178.367,262.295806272
178.382,262.269720761
178.397,262.243393675
178.41,262.220381895
178.412,262.216825577
178.427,262.190017022
178.442,262.16296857
178.457,262.135680774
178.472,262.108154183
178.487,262.080389346
178.502,262.052386807
178.517,262.024147106
178.532,261.995670777
178.547,261.966958351
178.562,261.938010356
178.577,261.90882731
178.592,261.879409728
178.607,261.849758119
178.622,261.819872984
178.637,261.789754819
178.652,261.759404109
178.667,261.728821338
178.682,261.698006976
178.697,261.666961487
178.712,261.635685328
178.727,261.604178942
178.742,261.572442769
178.757,261.540477235
178.772,261.508282759
178.787,261.475859745
178.802,261.443208592
178.817,261.410329684
178.832,261.377223395
178.847,261.343890086
178.862,261.310330108
178.877,261.276543798
178.892,261.242531482
178.907,261.208293471
178.922,261.173830063
178.937,261.139141545
178.952,261.104228185
178.967,261.069090242
178.982,261.033727956
178.997,260.998141556
179.012,260.962331252
179.027,260.926297242
179.042,260.890039705
179.057,260.853558807
179.072,260.816854697
179.087,260.779927505
179.102,260.742777348
179.117,260.705404321
179.132,260.667808508
179.147,260.629989969
179.16,260.597033778
179.162,260.59194875
179.177,260.55368488
179.192,260.515198365
179.207,260.476489195
179.222,260.437557344
179.237,260.398402764
179.252,260.359025387
179.267,260.319425129
179.282,260.279601882
179.297,260.239555524
179.312,260.199285907
179.327,260.158792868
179.342,260.118076221
179.357,260.077135761
179.372,260.035971261
179.387,259.994582475
179.402,259.952969136
179.417,259.911130955
179.432,259.869067623
179.447,259.826778809
179.462,259.784264161
179.477,259.741523307
179.492,259.698555853
179.507,259.655361382
179.522,259.611939458
179.537,259.56828962
179.552,259.524411389
179.567,259.480304262
179.582,259.435967716
179.597,259.391401204
179.612,259.346604159
179.627,259.301575991
179.642,259.25631609
179.657,259.210823821
179.672,259.165098531
179.687,259.119139542
179.702,259.072946156
179.717,259.026517653
179.732,258.97985329
179.747,258.932952305
179.762,258.885813912
179.777,258.838437304
179.792,258.790821653
179.807,258.742966108
179.822,258.694869799
179.837,258.646531834
179.852,258.597951299
179.867,258.549127258
179.882,258.500058758
179.897,258.450744821
179.91,258.407806773
179.912,258.401184449
179.927,258.351376626
179.942,258.301320313
179.957,258.25101445
179.972,258.200457961
179.987,258.149649744
180.002,258.098588684
180.017,258.047273639
180.032,257.995703454
180.047,257.94387695
180.062,257.891792932
180.077,257.839450184
180.092,257.786847471
180.107,257.733983542
180.122,257.680857126
180.137,257.627466934
180.152,257.573811659
180.167,257.519889976
180.182,257.465700544
180.197,257.411242004
180.212,257.35651298
180.227,257.301512081
180.242,257.246237897
180.257,257.190689004
180.272,257.134863962
180.287,257.078761315
180.302,257.022379592
180.317,256.965717308
180.332,256.908772962
180.347,256.851545041
180.362,256.794032016
180.377,256.736232346
180.392,256.678144478
180.407,256.619766843
180.422,256.561097863
180.437,256.502135946
180.452,256.44287949
180.467,256.383326882
180.482,256.323476495
180.497,256.263326698
180.512,256.202875844
180.527,256.142122282
180.542,256.081064347
180.557,256.019700371
180.56,256.007390703
180.572,255.958028674
180.587,255.896047572
180.602,255.833755372
180.617,255.771150377
180.632,255.708230882
180.647,255.644995179
180.66,255.589933801
180.662,255.581441554
180.677,255.517568291
180.692,255.453373671
180.707,255.388855971
180.722,255.324013467
180.737,255.258844433
180.752,255.193347146
180.767,255.12751988
180.782,255.061360913
180.797,254.994868521
180.812,254.928040987
180.827,254.860876596
180.842,254.793373638
180.857,254.725530408
180.872,254.657345207
180.887,254.588816344
180.902,254.519942138
180.917,254.450720913
180.932,254.381151008
180.947,254.311230772
180.962,254.240958564
180.977,254.170332761
180.992,254.099351751
181.007,254.02801394
181.022,253.956317752
181.037,253.884261629
181.052,253.811844031
181.067,253.739063444
181.082,253.665918371
181.097,253.592407344
181.112,253.518528917
181.127,253.444281674
181.142,253.369664226
181.157,253.294675215
181.172,253.219313316
181.187,253.143577235
181.202,253.067465716
181.217,252.99097754
181.232,252.914111525
181.247,252.836866533
181.262,252.759241468
181.277,252.681235277
181.292,252.602846957
181.307,252.524075553
181.31,252.508275221
181.322,252.444920161
181.337,252.36537993
181.352,252.285454066
181.367,252.205141834
181.382,252.124442557
181.397,252.043355623
181.412,251.961880484
181.427,251.880016662
181.442,251.797763747
181.457,251.715121405
181.472,251.632089376
181.487,251.548667479
181.502,251.464855617
181.517,251.380653774
181.532,251.296062023
181.547,251.211080528
181.562,251.125709545
181.577,251.039949428
181.592,250.953800629
181.607,250.867263704
181.622,250.780339314
181.637,250.693028229
181.652,250.605331333
181.667,250.517249625
181.682,250.428784221
181.697,250.339936362
181.712,250.250707414
181.727,250.16109887
181.742,250.071112359
181.757,249.980749641
181.772,249.890012619
181.787,249.798903337
181.802,249.707423983
181.817,249.615576894
181.832,249.523364561
181.847,249.430789627
181.862,249.337854893
181.877,249.244563322
181.892,249.150918039
181.907,249.056922335
181.922,248.962579669
181.937,248.867893669
181.952,248.772868136
181.967,248.677507046
181.982,248.581814547
181.997,248.485794967
182.012,248.389452807
182.027,248.292792749
182.042,248.195819648
182.057,248.098538538
182.06,248.07904581
182.072,248.000954627
182.087,247.903073298
182.102,247.804900102
182.117,247.706440761
182.132,247.607701158
182.147,247.508687337
182.162,247.409405492
182.177,247.309861967
182.192,247.210063239
182.207,247.110015919
182.222,247.009726731
182.237,246.909202508
182.252,246.80845017
182.267,246.707476717
182.282,246.606289204
182.297,246.504894724
182.312,246.403300384
182.327,246.301513281
182.342,246.199540474
182.357,246.097388951
182.372,245.995065597
182.387,245.892577152
182.402,245.789930171
182.417,245.687130974
182.432,245.584185597
182.447,245.481099731
182.462,245.377878659
182.477,245.274527185
182.492,245.171049555
182.507,245.067449372
182.522,244.963729501
182.537,244.85989196
182.552,244.755937806
182.567,244.651867008
182.582,244.547678297
182.597,244.443369017
182.612,244.33893494
182.627,244.234370078
182.642,244.129666462
182.657,244.024813903
182.672,243.919799719
182.687,243.814608433
182.702,243.709221439
182.717,243.603616617
182.732,243.497767904
182.747,243.391644813
182.762,243.28521188
182.777,243.178428039
182.792,243.071245908
182.807,242.963610968
182.822,242.855460621
182.837,242.746723093
182.852,242.637316167
182.867,242.527145695
182.882,242.416103852
182.897,242.304067071
182.912,242.190893583
182.927,242.07642048
182.942,241.960460158
182.957,241.842796009
182.972,241.723177136
182.987,241.601311827
183.002,241.476859425
183.017,241.349420091
183.032,241.218521794
183.047,241.083603589
183.062,240.943993854
183.077,240.798881652
183.092,240.647278479
183.107,240.487966506
183.122,240.319427468
183.137,240.139743512
183.152,239.946456934
183.167,239.736369276
183.182,239.505251479
183.197,239.247427935
183.212,238.955200646
183.227,238.618147172
183.242,238.222656748
183.257,237.753402697
183.367,237.863411749
183.382,238.308773462
183.397,238.684214817
183.412,239.005013683
183.427,239.283969563
183.442,239.530740951
183.457,239.752444616
183.472,239.95433789
183.487,240.140351958
183.502,240.313471794
183.517,240.476000096
183.532,240.629740418
183.547,240.776125394
183.562,240.916307701
183.577,241.051225537
183.592,241.181650468
183.607,241.3082229
183.622,241.43147875
183.637,241.551869755
183.652,241.669779141
183.667,241.785533841
183.682,241.899414132
183.697,242.011661317
183.712,242.122483893
183.727,242.232062564
183.742,242.340554337
183.757,242.448095903
183.772,242.554806442
183.787,242.660789971
183.802,242.76613732
183.817,242.870927804
183.832,242.97523065
183.847,243.079106217
183.862,243.182607048
183.877,243.28577878
183.892,243.388660934
183.907,243.491287602
183.922,243.593688056
183.937,243.695887277
183.952,243.797906423
183.967,243.899763247
183.982,244.001472462
183.997,244.103046075
184.012,244.204493674
184.027,244.305822692
184.042,244.407038645
184.057,244.508145336
184.072,244.609145054
184.087,244.710038736
184.102,244.810826126
184.117,244.911505911
184.132,245.012075851
184.147,245.112532887
184.162,245.212873249
184.177,245.313092544
184.192,245.413185843
184.207,245.513147759
184.222,245.612972511
184.237,245.712653989
184.252,245.812185811
184.267,245.911561374
184.282,246.010773899
184.297,246.109816472
184.312,246.208682084
184.327,246.307363662
184.342,246.405854102
184.357,246.504146294
184.372,246.602233149
184.387,246.700107617
184.402,246.797762712
184.417,246.895191522
184.432,246.992387232
184.447,247.089343134
184.462,247.186052636
184.477,247.282509279
184.492,247.378706741
184.507,247.474638844
184.522,247.570299568
184.537,247.665683046
184.552,247.760783577
184.56,247.81138625
184.567,247.855595628
184.582,247.950113833
184.597,248.044332999
184.612,248.138248109
184.627,248.231854319
184.642,248.325146959
184.657,248.418121538
184.672,248.510773738
184.687,248.603099415
184.702,248.695094598
184.717,248.786755491
184.732,248.878078464
184.747,248.969060057
184.762,249.059696976
184.777,249.149986091
184.792,249.239924431
184.807,249.329509186
184.822,249.418737701
184.837,249.507607472
184.852,249.596116146
184.867,249.684261516
184.882,249.772041521
184.897,249.859454237
184.912,249.946497877
184.927,250.033170792
184.942,250.119471458
184.957,250.205398482
184.972,250.290950594
184.987,250.376126644
185.002,250.460925601
185.017,250.545346545
185.032,250.62938867
185.047,250.713051278
185.062,250.796333772
185.077,250.879235661
185.092,250.961756548
185.107,251.043896134
185.122,251.125654212
185.137,251.207030664
185.152,251.288025458
185.167,251.368638645
185.182,251.448870359
185.197,251.528720809
185.212,251.608190282
185.227,251.687279136
185.242,251.765987799
185.257,251.844316768
185.272,251.922266602
185.287,251.999837926
185.302,252.077031422
185.31,252.118047051
185.317,252.153847832
185.332,252.230287954
185.347,252.306352636
185.362,252.382042782
185.377,252.457359341
185.392,252.53230331
185.407,252.606875733
185.422,252.681077695
185.437,252.754910324
185.452,252.828374785
185.467,252.901472283
185.482,252.974204056
185.497,253.046571379
185.512,253.118575558
185.527,253.190217931
185.542,253.261499862
185.557,253.332422748
185.572,253.402988007
185.587,253.473197086
185.602,253.543051452
185.617,253.612552598
185.632,253.681702035
185.647,253.750501293
185.662,253.818951924
185.677,253.887055494
185.692,253.954813585
185.707,254.022227795
185.722,254.089299735
185.737,254.156031031
185.752,254.222423317
185.767,254.28847824
185.782,254.354197457
185.797,254.419582633
185.812,254.48463544
185.827,254.54935756
185.842,254.613750678
185.857,254.677816486
185.872,254.741556681
185.887,254.804972963
185.902,254.868067036
185.917,254.930840605
185.932,254.993295378
185.947,255.055433064
185.96,255.109030557
185.962,255.117255371
185.977,255.178764008
185.992,255.239960684
186.007,255.300847105
186.022,255.361424975
186.037,255.421695996
186.052,255.481661869
186.06,255.513519481
186.067,255.541324287
186.082,255.600684943
186.097,255.659745524
186.112,255.71850771
186.127,255.77697318
186.142,255.835143603
186.157,255.893020643
186.172,255.95060596
186.187,256.007901202
186.202,256.064908014
186.217,256.12162803
186.232,256.178062878
186.247,256.234214176
186.262,256.290083535
186.277,256.345672555
186.292,256.400982828
186.307,256.456015935
186.322,256.510773447
186.337,256.565256927
186.352,256.619467924
186.367,256.673407979
186.382,256.727078621
186.397,256.780481367
186.412,256.833617723
186.427,256.886489185
186.442,256.939097233
186.457,256.991443339
186.472,257.043528959
186.487,257.095355541
186.502,257.146924516
186.517,257.198237304
186.532,257.249295311
186.547,257.300099932
186.562,257.350652546
186.577,257.400954519
186.592,257.451007205
186.607,257.500811943
186.622,257.550370056
186.637,257.599682858
186.652,257.648751643
186.667,257.697577695
186.682,257.746162281
186.697,257.794506656
186.71,257.836211767
186.712,257.842612057
186.727,257.890479709
186.742,257.938110821
186.757,257.985506588
186.772,258.032668188
186.787,258.079596787
186.802,258.126293533
186.817,258.172759561
186.832,258.218995988
186.847,258.265003919
186.862,258.310784441
186.877,258.356338628
186.892,258.401667536
186.907,258.446772208
186.922,258.491653668
186.937,258.536312928
186.952,258.580750982
186.967,258.624968811
186.982,258.668967379
186.997,258.712747631
187.012,258.756310503
187.027,258.79965691
187.042,258.842787755
187.057,258.885703921
187.072,258.92840628
187.087,258.970895685
187.102,259.013172976
187.117,259.055238976
187.132,259.097094492
187.147,259.138740316
187.162,259.180177226
187.177,259.221405981
187.192,259.262427329
187.207,259.303241999
187.222,259.343850707
187.237,259.384254152
187.252,259.424453019
187.267,259.464447978
187.282,259.504239683
187.297,259.543828774
187.312,259.583215875
187.327,259.622401596
187.342,259.661386533
187.357,259.700171265
187.372,259.738756357
187.387,259.777142363
187.402,259.815329818
187.417,259.853319245
187.432,259.891111151
187.447,259.928706033
187.46,259.961129265
187.462,259.96610437
187.477,260.003306628
187.492,260.040313263
187.507,260.07712471
187.522,260.113741396
187.537,260.150163735
187.552,260.186392126
187.567,260.222426954
187.582,260.258268593
187.597,260.293917403
187.612,260.329373732
187.627,260.364637916
187.642,260.399710277
187.657,260.434591127
187.672,260.469280764
187.687,260.503779475
187.702,260.538087535
187.717,260.572205209
187.732,260.606132747
187.747,260.639870392
187.762,260.673418375
187.777,260.706776914
187.792,260.739946217
187.807,260.772926483
187.822,260.805717899
187.837,260.838320644
187.852,260.870734886
187.867,260.902960781
187.882,260.934998479
187.897,260.96684812
187.912,260.998509832
187.927,261.029983737
187.942,261.061269947
187.957,261.092368567
187.972,261.12327969
187.987,261.154003405
188.002,261.18453979
188.017,261.214888916
188.032,261.245050848
188.047,261.275025642
188.062,261.304813347
188.077,261.334414005
188.092,261.363827653
188.107,261.393054318
188.122,261.422094023
188.137,261.450946785
188.152,261.479612615
188.167,261.508091517
188.182,261.536383491
188.197,261.564488531
188.21,261.588695013
188.212,261.592406624
188.227,261.620137757
188.242,261.647681907
188.257,261.675039051
188.272,261.702209157
188.287,261.729192193
188.302,261.755988122
188.317,261.782596902
188.332,261.809018489
188.347,261.835252835
188.362,261.86129989
188.377,261.8871596
188.392,261.912831908
188.407,261.938316756
188.422,261.963614081
188.437,261.988723823
188.452,262.013645915
188.467,262.03838029
188.482,262.062926881
188.497,262.087285618
188.512,262.111456432
188.527,262.135439248
188.542,262.159233996
188.557,262.182840604
188.572,262.206258998
188.587,262.229489103
188.602,262.252530848
188.617,262.275384159
188.632,262.298048962
188.647,262.320525185
188.66,262.339851983
188.662,262.342812757
188.677,262.364911607
188.692,262.386821664
188.707,262.408542861
188.722,262.430075128
