# 48698 WSSS Singapore Observations at 12Z 13 Jan 2019
Frequency [GHz],TB
175.31,274.310513815
175.322,274.292530823
175.337,274.270005655
175.352,274.247428725
175.367,274.224799842
175.382,274.202118818
175.397,274.179385457
175.412,274.156599571
175.427,274.133760963
175.442,274.110869439
175.457,274.0879248
175.472,274.064926849
175.487,274.041875383
175.502,274.018770202
175.517,273.995611104
175.532,273.972397882
175.547,273.94913033
175.562,273.925808242
175.577,273.902431408
175.592,273.878999615
175.607,273.855512655
175.622,273.831970308
175.637,273.808372362
175.652,273.784718601
175.667,273.761008805
175.682,273.737242752
175.697,273.713420222
175.712,273.68954099
175.727,273.665604831
175.742,273.641611518
175.757,273.617560822
175.772,273.593452515
175.787,273.569286362
175.802,273.545062129
175.817,273.520779582
175.832,273.496438483
175.847,273.472038594
175.862,273.447579673
175.877,273.423061478
175.892,273.398483763
175.907,273.373846285
175.922,273.349148792
175.937,273.324391039
175.952,273.299572768
175.967,273.274693731
175.982,273.24975367
175.997,273.224752329
176.012,273.199689449
176.027,273.174564765
176.042,273.149378019
176.057,273.124128943
176.072,273.098817271
176.087,273.073442736
176.102,273.048005062
176.117,273.022503981
176.132,272.996939217
176.147,272.971310492
176.162,272.945617526
176.177,272.919860042
176.192,272.894037755
176.207,272.868150377
176.222,272.842197626
176.237,272.816179207
176.252,272.790094834
176.267,272.76394421
176.282,272.737727041
176.297,272.711443029
176.31,272.688609248
176.312,272.685091871
176.327,272.658673268
176.342,272.632186916
176.357,272.605632507
176.372,272.579009732
176.387,272.552318279
176.402,272.525557836
176.417,272.498728087
176.432,272.471828716
176.447,272.444859398
176.46,272.421429163
176.462,272.417819814
176.477,272.390709639
176.492,272.363528544
176.507,272.336276199
176.522,272.308952273
176.537,272.281556433
176.552,272.25408834
176.567,272.226547655
176.582,272.198934036
176.597,272.171247139
176.612,272.143486619
176.627,272.115652124
176.642,272.087743303
176.657,272.059759803
176.672,272.031701266
176.687,272.003567333
176.702,271.975357641
176.717,271.947071827
176.732,271.918709521
176.747,271.890270357
176.762,271.861753962
176.777,271.833159957
176.792,271.804487967
176.807,271.775737611
176.822,271.746908508
176.837,271.718000266
176.852,271.689012502
176.867,271.659944823
176.882,271.630796833
176.897,271.601568138
176.912,271.572258334
176.927,271.542867021
176.942,271.513393793
176.957,271.483838241
176.972,271.454199952
176.987,271.424478517
177.002,271.394673511
177.017,271.364784521
177.032,271.334811119
177.047,271.304752881
177.062,271.274609377
177.077,271.244380176
177.092,271.21406484
177.107,271.183662932
177.122,271.153174014
177.137,271.122597637
177.152,271.091933354
177.167,271.061180716
177.182,271.030339268
177.197,270.999408554
177.21,270.972529372
177.212,270.968388111
177.227,270.937277477
177.242,270.906076187
177.257,270.874783768
177.272,270.843399747
177.287,270.81192365
177.302,270.780354995
177.31,270.763480366
177.317,270.748693298
177.332,270.716938074
177.347,270.685088832
177.362,270.653145078
177.377,270.621106316
177.392,270.588972046
177.407,270.556741762
177.422,270.524414959
177.437,270.491991125
177.452,270.459469748
177.467,270.426850305
177.482,270.394132279
177.497,270.361315142
177.512,270.328398367
177.527,270.29538142
177.542,270.262263767
177.557,270.229044865
177.572,270.195724175
177.587,270.162301145
177.602,270.128775228
177.617,270.095145865
177.632,270.0614125
177.647,270.027574571
177.66,269.998163344
177.662,269.993631509
177.677,269.959582745
177.692,269.925427705
177.707,269.891165811
177.722,269.856796479
177.737,269.822319126
177.752,269.78773316
177.767,269.753037986
177.782,269.718233007
177.797,269.683317619
177.812,269.648291217
177.827,269.61315319
177.842,269.577902923
177.857,269.542539796
177.872,269.507063187
177.887,269.471472466
177.902,269.435767004
177.917,269.399946163
177.932,269.364009303
177.947,269.327955779
177.96,269.29661452
177.962,269.291784941
177.977,269.255496134
177.992,269.219088702
178.007,269.18256198
178.022,269.145915301
178.037,269.109147994
178.052,269.072259382
178.067,269.035248783
178.082,268.998115512
178.097,268.960858877
178.112,268.923478182
178.127,268.885972731
178.142,268.848341814
178.157,268.810584723
178.172,268.772700744
178.187,268.734689157
178.202,268.696549236
178.217,268.658280253
178.232,268.619881472
178.247,268.581352155
178.262,268.542691556
178.277,268.503898924
178.292,268.464973506
178.307,268.425914541
178.322,268.386721262
178.337,268.347392898
178.352,268.307928676
178.367,268.268327812
178.382,268.228589517
178.397,268.188713001
178.41,268.154040931
178.412,268.148697466
178.427,268.108542106
178.442,268.068246115
178.457,268.027808674
178.472,267.987228965
178.487,267.946506162
178.502,267.905639432
178.517,267.864627936
178.532,267.823470832
178.547,267.782167268
178.562,267.740716389
178.577,267.699117332
178.592,267.657369233
178.607,267.615471213
178.622,267.573422393
178.637,267.531221888
178.652,267.488868803
178.667,267.446362239
178.682,267.40370129
178.697,267.360885045
178.712,267.317912584
178.727,267.274782981
178.742,267.231495305
178.757,267.188048615
178.772,267.144441967
178.787,267.100674408
178.802,267.056744979
178.817,267.012652712
178.832,266.968396633
178.847,266.923975763
178.862,266.879389112
178.877,266.834635684
178.892,266.789714479
178.907,266.744624485
178.922,266.699364683
178.937,266.65393405
178.952,266.60833155
178.967,266.562556144
178.982,266.516606782
178.997,266.470482408
179.012,266.424181957
179.027,266.377704355
179.042,266.331048523
179.057,266.284213368
179.072,266.237197795
179.087,266.190000695
179.102,266.142620954
179.117,266.095057448
179.132,266.047309045
179.147,265.999374601
179.16,265.957680042
179.162,265.951252968
179.177,265.902942982
179.192,265.854443477
179.207,265.805753274
179.222,265.756871183
179.237,265.707796007
179.252,265.658526538
179.267,265.609061559
179.282,265.559399841
179.297,265.509540147
179.312,265.459481228
179.327,265.409221826
179.342,265.35876067
179.357,265.308096482
179.372,265.257227969
179.387,265.20615383
179.402,265.15487275
179.417,265.103383406
179.432,265.05168446
179.447,264.999774564
179.462,264.947652357
179.477,264.895316467
179.492,264.84276551
179.507,264.789998087
179.522,264.737012789
179.537,264.683808193
179.552,264.630382862
179.567,264.576735348
179.582,264.522864186
179.597,264.468767899
179.612,264.414444998
179.627,264.359893976
179.642,264.305113313
179.657,264.250101474
179.672,264.194856911
179.687,264.139378057
179.702,264.083663333
179.717,264.02771114
179.732,263.971519868
179.747,263.915087887
179.762,263.858413549
179.777,263.801495193
179.792,263.744331138
179.807,263.686919686
179.822,263.62925912
179.837,263.571347704
179.852,263.513183688
179.867,263.454765296
179.882,263.396090738
179.897,263.3371582
179.91,263.285873243
179.912,263.277965852
179.927,263.218511837
179.942,263.158794284
179.957,263.098811296
179.972,263.038560954
179.987,262.97804132
180.002,262.917250428
180.017,262.856186293
180.032,262.794846903
180.047,262.733230224
180.062,262.671334196
180.077,262.609156732
180.092,262.546695723
180.107,262.483949029
180.122,262.420914486
180.137,262.357589901
180.152,262.293973052
180.167,262.23006169
180.182,262.165853536
180.197,262.101346278
180.212,262.036537576
180.227,261.97142506
180.242,261.906006324
180.257,261.84027893
180.272,261.774240407
180.287,261.707888252
180.302,261.641219921
180.317,261.574232839
180.332,261.506924394
180.347,261.439291933
180.362,261.371332768
180.377,261.30304417
180.392,261.234423371
180.407,261.165467559
180.422,261.096173886
180.437,261.026539455
180.452,260.956561328
180.467,260.886236523
180.482,260.815562011
180.497,260.744534716
180.512,260.673151515
180.527,260.601409236
180.542,260.529304657
180.557,260.456834506
180.56,260.442296315
180.572,260.383995457
180.587,260.310784132
180.602,260.237197099
180.617,260.163230871
180.632,260.088881901
180.647,260.014146589
180.66,259.949060649
180.662,259.939021274
180.677,259.863502233
180.692,259.787585685
180.707,259.711267782
180.722,259.634544615
180.737,259.557412211
180.752,259.479866527
180.767,259.401903454
180.782,259.323518813
180.797,259.244708357
180.812,259.165467763
180.827,259.085792638
180.842,259.005678515
180.857,258.925120848
180.872,258.844115016
180.887,258.762656321
180.902,258.680739981
180.917,258.598361136
180.932,258.515514843
180.947,258.432196074
180.962,258.348399717
180.977,258.264120573
180.992,258.179353355
181.007,258.094092688
181.022,258.008333104
181.037,257.922069048
181.052,257.835294868
181.067,257.748004821
181.082,257.660193068
181.097,257.571853674
181.112,257.482980607
181.127,257.393567737
181.142,257.303608835
181.157,257.213097573
181.172,257.122027521
181.187,257.03039215
181.202,256.938184828
181.217,256.845398819
181.232,256.752027286
181.247,256.658063289
181.262,256.563499784
181.277,256.468329624
181.292,256.372545557
181.307,256.276140229
181.31,256.256783957
181.322,256.179106182
181.337,256.081435858
181.352,255.983121593
181.367,255.884155625
181.382,255.784530089
181.397,255.684237023
181.412,255.583268368
181.427,255.481615965
181.442,255.379271565
181.457,255.276226825
181.472,255.172473312
181.487,255.068002505
181.502,254.9628058
181.517,254.856874512
181.532,254.750199877
181.547,254.642773059
181.562,254.534585152
181.577,254.425627184
181.592,254.315890125
181.607,254.205364891
181.622,254.094042348
181.637,253.981913321
181.652,253.868968599
181.667,253.755198946
181.682,253.640595103
181.697,253.525147801
181.712,253.408847769
181.727,253.291685742
181.742,253.173652475
181.757,253.05473875
181.772,252.934935389
181.787,252.814233268
181.802,252.692623329
181.817,252.570096592
181.832,252.446644174
181.847,252.322257301
181.862,252.196927325
181.877,252.070645744
181.892,251.943404218
181.907,251.815194588
181.922,251.686008898
181.937,251.555839416
181.952,251.424678657
181.967,251.292519403
181.982,251.159354735
181.997,251.025178052
182.012,250.8899831
182.027,250.753764005
182.042,250.616515295
182.057,250.478231938
182.06,250.450450698
182.072,250.338909369
182.087,250.198543528
182.102,250.057130893
182.117,249.914668513
182.132,249.771154052
182.147,249.626585826
182.162,249.480962838
182.177,249.334284829
182.192,249.186552314
182.207,249.037766629
182.222,248.887929976
182.237,248.737045472
182.252,248.585117195
182.267,248.432150233
182.282,248.278150738
182.297,248.12312597
182.312,247.967084356
182.327,247.810035542
182.342,247.65199044
182.357,247.492961291
182.372,247.332961711
182.387,247.172006748
182.402,247.010112938
182.417,246.847298355
182.432,246.683582661
182.447,246.518987165
182.462,246.353534863
182.477,246.187250492
182.492,246.020160573
182.507,245.852293451
182.522,245.683679334
182.537,245.514350327
182.552,245.344340458
182.567,245.1736857
182.582,245.002423986
182.597,244.830595209
182.612,244.65824122
182.627,244.485405807
182.642,244.312134658
182.657,244.138475314
182.672,243.964477091
182.687,243.790190984
182.702,243.615669533
182.717,243.440966662
182.732,243.266137464
182.747,243.091237943
182.762,242.916324679
182.777,242.741454422
182.792,242.566683586
182.807,242.392067627
182.822,242.217660261
182.837,242.043512512
182.852,241.869671519
182.867,241.696179061
182.882,241.523069711
182.897,241.350368541
182.912,241.178088225
182.927,241.006225405
182.942,240.834756078
182.957,240.663629735
182.972,240.492761849
182.987,240.322024198
183.002,240.15123231
183.017,239.980129019
183.032,239.808362761
183.047,239.635458619
183.062,239.460779257
183.077,239.283471582
183.092,239.102392909
183.107,238.91600725
183.122,238.722237353
183.137,238.518250047
183.152,238.300139493
183.167,238.062451818
183.182,237.797460744
183.197,237.494051805
183.212,237.136003818
183.227,236.699413239
183.242,236.14922706
183.257,235.43641723
183.367,235.621336025
183.382,236.283854835
183.397,236.797532452
183.412,237.207809687
183.427,237.546553364
183.442,237.835415043
183.457,238.089110761
183.472,238.317757833
183.487,238.528416492
183.502,238.726089112
183.517,238.914370224
183.532,239.095874613
183.547,239.272523775
183.562,239.44574088
183.577,239.616585746
183.592,239.785849827
183.607,239.954124096
183.622,240.121848266
183.637,240.289346951
183.652,240.456856545
183.667,240.624545432
183.682,240.792529323
183.697,240.960883001
183.712,241.129649384
183.727,241.298846572
183.742,241.468473358
183.757,241.63851356
183.772,241.808939451
183.787,241.979714483
183.802,242.150795453
183.817,242.322134241
183.832,242.493679204
183.847,242.665376298
183.862,242.83716998
183.877,243.009003936
183.892,243.180821673
183.907,243.35256699
183.922,243.524184364
183.937,243.695619252
183.952,243.866818345
183.967,244.037729754
183.982,244.20830317
183.997,244.378489977
184.012,244.548243348
184.027,244.717518304
184.042,244.886271764
184.057,245.05446257
184.072,245.222051506
184.087,245.389001296
184.102,245.555276599
184.117,245.720843992
184.132,245.885671944
184.147,246.049730792
184.162,246.212992701
184.177,246.375431628
184.192,246.537023279
184.207,246.697745063
184.222,246.857576047
184.237,247.016496902
184.252,247.174489858
184.267,247.331538646
184.282,247.487628453
184.297,247.64274586
184.312,247.796878797
184.327,247.950016486
184.342,248.102149388
184.357,248.253269153
184.372,248.403368566
184.387,248.552441497
184.402,248.700482854
184.417,248.847488528
184.432,248.993455349
184.447,249.138381039
184.462,249.282264165
184.477,249.425104096
184.492,249.566900958
184.507,249.707655592
184.522,249.847369518
184.537,249.986044888
184.552,250.123684454
184.56,250.196669817
184.567,250.260291532
184.582,250.39586996
184.597,250.530424072
184.612,250.663958662
184.627,250.796478949
184.642,250.927990555
184.657,251.058499471
184.672,251.188012028
184.687,251.316534875
184.702,251.444074953
184.717,251.570639467
184.732,251.696235869
184.747,251.82087183
184.762,251.944555226
184.777,252.067294112
184.792,252.189096708
184.807,252.309971376
184.822,252.429926611
184.837,252.548971016
184.852,252.667113293
184.867,252.784362227
184.882,252.900726672
184.897,253.016215537
184.912,253.130837778
184.927,253.244602382
184.942,253.35751836
184.957,253.469594734
184.972,253.580840529
184.987,253.691264766
185.002,253.800876449
185.017,253.909684563
185.032,254.017698062
185.047,254.124925865
185.062,254.231376849
185.077,254.337059842
185.092,254.44198362
185.107,254.546156901
185.122,254.649588338
185.137,254.75228652
185.152,254.854259964
185.167,254.955517111
185.182,255.056066325
185.197,255.155915891
185.212,255.255074009
185.227,255.353548793
185.242,255.451348271
185.257,255.548480379
185.272,255.644952964
185.287,255.740773778
185.302,255.83595048
185.31,255.886450633
185.317,255.930490634
185.332,256.024401706
185.347,256.117691067
185.362,256.210365991
185.377,256.302433654
185.392,256.393901132
185.407,256.484775405
185.422,256.575063354
185.437,256.664771761
185.452,256.753907313
185.467,256.842476595
185.482,256.930486099
185.497,257.017942217
185.512,257.104851247
185.527,257.191219391
185.542,257.277052754
185.557,257.362357351
185.572,257.4471391
185.587,257.531403828
185.602,257.615157272
185.617,257.698405076
185.632,257.781152795
185.647,257.863405897
185.662,257.945169762
185.677,258.026449682
185.692,258.107250867
185.707,258.187578441
185.722,258.267437445
185.737,258.346832838
185.752,258.425769501
185.767,258.504252234
185.782,258.582285759
185.797,258.65987472
185.812,258.737023688
185.827,258.813737158
185.842,258.890019552
185.857,258.965875221
185.872,259.041308445
185.887,259.116323435
185.902,259.190924331
185.917,259.26511521
185.932,259.33890008
185.947,259.412282888
185.96,259.475559099
185.962,259.485267514
185.977,259.557857778
185.992,259.630057438
186.007,259.701870192
186.022,259.77329968
186.037,259.844349485
186.052,259.915023132
186.06,259.952563137
186.067,259.98532409
186.082,260.055255777
186.097,260.124821555
186.112,260.194024734
186.127,260.262868574
186.142,260.331356285
186.157,260.399491026
186.172,260.467275911
186.187,260.534714004
186.202,260.601808323
186.217,260.668561844
186.232,260.734977496
186.247,260.801058163
186.262,260.866806691
186.277,260.932225882
186.292,260.997318496
186.307,261.062087255
186.322,261.126534841
186.337,261.190663899
186.352,261.254477036
186.367,261.31797682
186.382,261.381165787
186.397,261.444046435
186.412,261.506621228
186.427,261.568892597
186.442,261.630862939
186.457,261.69253462
186.472,261.753909973
186.487,261.814991301
186.502,261.875780876
186.517,261.936280939
186.532,261.996493704
186.547,262.056421356
186.562,262.11606605
186.577,262.175429917
186.592,262.234515058
186.607,262.29332355
186.622,262.35185744
186.637,262.410118756
186.652,262.468109497
186.667,262.525831639
186.682,262.583287132
186.697,262.640477907
186.71,262.68983059
186.712,262.697405868
186.727,262.754072899
186.742,262.810480861
186.757,262.866631593
186.772,262.922526915
186.787,262.978168623
186.802,263.033558495
186.817,263.088698289
186.832,263.143589743
186.847,263.198234575
186.862,263.252634483
186.877,263.306791151
186.892,263.36070624
186.907,263.414381396
186.922,263.467818247
186.937,263.521018402
186.952,263.573983455
186.967,263.626714984
186.982,263.679214548
186.997,263.731483693
187.012,263.783523946
187.027,263.835336822
187.042,263.886923818
187.057,263.938286418
187.072,263.989426089
187.087,264.040344286
187.102,264.091042449
187.117,264.141522003
187.132,264.191784362
187.147,264.241830922
187.162,264.291663069
187.177,264.341282176
187.192,264.3906896
187.207,264.43988669
187.222,264.488874779
187.237,264.537655189
187.252,264.586229229
187.267,264.634598197
187.282,264.682763379
187.297,264.73072605
187.312,264.778487471
187.327,264.826048897
187.342,264.873411566
187.357,264.920576709
187.372,264.967545544
187.387,265.014319279
187.402,265.060899114
187.417,265.107286235
187.432,265.15348182
187.447,265.199487037
187.46,265.239205132
187.462,265.245303043
187.477,265.290930984
187.492,265.336372001
187.507,265.381627221
187.522,265.426697764
187.537,265.471584739
187.552,265.516289249
187.567,265.560812382
187.582,265.605155225
187.597,265.649318849
187.612,265.693304322
187.627,265.737112698
187.642,265.780745029
187.657,265.824202351
187.672,265.867485698
187.687,265.910596094
187.702,265.953534553
187.717,265.996302083
187.732,266.038899684
187.747,266.081328347
187.762,266.123589056
187.777,266.165682787
187.792,266.207610511
187.807,266.249373187
187.822,266.29097177
187.837,266.332407206
187.852,266.373680435
187.867,266.41479239
187.882,266.455743996
187.897,266.496536171
187.912,266.537169826
187.927,266.577645866
187.942,266.617965188
187.957,266.658128685
187.972,266.698137239
187.987,266.737991729
188.002,266.777693026
188.017,266.817241996
188.032,266.856639496
188.047,266.895886379
188.062,266.93498349
188.077,266.97393167
188.092,267.012731753
188.107,267.051384565
188.122,267.089890929
188.137,267.128251659
188.152,267.166467566
188.167,267.204539453
188.182,267.242468119
188.197,267.280254356
188.21,267.312887826
188.212,267.31789895
188.227,267.355402681
188.242,267.392766327
188.257,267.429990657
188.272,267.467076435
188.287,267.504024421
188.302,267.540835366
188.317,267.577510021
188.332,267.614049127
188.347,267.650453424
188.362,267.686723641
188.377,267.722860509
188.392,267.758864748
188.407,267.794737077
188.422,267.830478205
188.437,267.866088842
188.452,267.901569691
188.467,267.936921446
188.482,267.972144802
188.497,268.007240445
188.512,268.042209059
188.527,268.077051323
188.542,268.111767908
188.557,268.146359485
188.572,268.180826717
188.587,268.215170265
188.602,268.249390783
188.617,268.283488921
188.632,268.317465325
188.647,268.351320638
188.66,268.380564453
188.662,268.385055497
188.677,268.418670533
188.692,268.452166377
188.707,268.485543651
188.722,268.518802977
