# 01004 ENAS Ny-Alesund Ii Observations at 12Z 13 Jan 2019
Frequency [GHz],TB
175.31,207.132317313
175.322,207.202094456
175.337,207.28954341
175.352,207.37724559
175.367,207.465201461
175.382,207.553411469
175.397,207.641876062
175.412,207.730595677
175.427,207.819570748
175.442,207.908801712
175.457,207.998288973
175.472,208.088032984
175.487,208.178034113
175.502,208.268292796
175.517,208.358809434
175.532,208.449584403
175.547,208.540618102
175.562,208.6319109
175.577,208.72346318
175.592,208.815275308
175.607,208.907347654
175.622,208.999680548
175.637,209.092274345
175.652,209.185129404
175.667,209.278246033
175.682,209.371624562
175.697,209.465265305
175.712,209.559168578
175.727,209.653334673
175.742,209.747763874
175.757,209.842456489
175.772,209.937412776
175.787,210.032633003
175.802,210.12811743
175.817,210.223866307
175.832,210.319879874
175.847,210.416158364
175.862,210.51270199
175.877,210.609510962
175.892,210.706585491
175.907,210.803925773
175.922,210.901531976
175.937,210.999404289
175.952,211.097542843
175.967,211.195947823
175.982,211.294619351
175.997,211.393557562
176.012,211.492762575
176.027,211.592234482
176.042,211.691973405
176.057,211.791979398
176.072,211.892252551
176.087,211.992792918
176.102,212.093600557
176.117,212.194675487
176.132,212.296017725
176.147,212.397627303
176.162,212.499504202
176.177,212.601648397
176.192,212.704059878
176.207,212.806738593
176.222,212.909684472
176.237,213.012897455
176.252,213.116377457
176.267,213.220124371
176.282,213.324138082
176.297,213.428418457
176.31,213.519010368
176.312,213.532965352
176.327,213.6377786
176.342,213.742858043
176.357,213.848203453
176.372,213.953814639
176.387,214.059691387
176.402,214.165833436
176.417,214.272240532
176.432,214.378912397
176.447,214.485848745
176.46,214.578740596
176.462,214.59304925
176.477,214.700513595
176.492,214.808241431
176.507,214.916232381
176.522,215.024486069
176.537,215.133002081
176.552,215.241780006
176.567,215.35081939
176.582,215.460119776
176.597,215.569680687
176.612,215.679501609
176.627,215.789582018
176.642,215.899921384
176.657,216.010519125
176.672,216.12137466
176.687,216.232487386
176.702,216.343856659
176.717,216.455481828
176.732,216.567362224
176.747,216.679497149
176.762,216.791885873
176.777,216.904527647
176.792,217.017421709
176.807,217.130567265
176.822,217.243963497
176.837,217.357609557
176.852,217.471504578
176.867,217.585647659
176.882,217.700037893
176.897,217.814674325
176.912,217.929555989
176.927,218.044681871
176.942,218.160050968
176.957,218.275662208
176.972,218.391514513
176.987,218.507606771
177.002,218.623937848
177.017,218.740506578
177.032,218.857311762
177.047,218.974352161
177.062,219.091626537
177.077,219.209133596
177.092,219.326872028
177.107,219.444840478
177.122,219.563037567
177.137,219.681461877
177.152,219.800111978
177.167,219.918986387
177.182,220.038083595
177.197,220.157402068
177.21,220.260989153
177.212,220.276940206
177.227,220.396696437
177.242,220.516669091
177.257,220.636856484
177.272,220.757256928
177.287,220.877868658
177.302,220.998689884
177.31,221.063212908
177.317,221.119718795
177.332,221.240953527
177.347,221.362392178
177.362,221.484032833
177.377,221.605873505
177.392,221.727912189
177.407,221.850146845
177.422,221.972575374
177.437,222.095195655
177.452,222.218005518
177.467,222.341002766
177.482,222.464185141
177.497,222.58755036
177.512,222.711096091
177.527,222.834819958
177.542,222.958719557
177.557,223.082792421
177.572,223.207036055
177.587,223.331447903
177.602,223.456025397
177.617,223.580765891
177.632,223.705666714
177.647,223.830725126
177.66,223.939234445
177.662,223.955938393
177.677,224.081303679
177.692,224.206818108
177.707,224.332478805
177.722,224.458282785
177.737,224.584227065
177.752,224.71030859
177.767,224.836524268
177.782,224.962870922
177.797,225.089345392
177.812,225.215944409
177.827,225.34266468
177.842,225.469502854
177.857,225.596455539
177.872,225.723519282
177.887,225.850690575
177.902,225.977965874
177.917,226.105341569
177.932,226.232814
177.947,226.360379446
177.96,226.47100851
177.962,226.488034165
177.977,226.615774305
177.992,226.743596017
178.007,226.87149536
178.022,226.99946836
178.037,227.127510959
178.052,227.255619086
178.067,227.383788559
178.082,227.5120152
178.097,227.640294721
178.112,227.768622816
178.127,227.8969951
178.142,228.025407132
178.157,228.153854422
178.172,228.282332419
178.187,228.410836499
178.202,228.539361999
178.217,228.667904186
178.232,228.796458277
178.247,228.925019411
178.262,229.05358268
178.277,229.182143122
178.292,229.310695711
178.307,229.439235329
178.322,229.567756837
178.337,229.696255023
178.352,229.824724634
178.367,229.953160282
178.382,230.081556612
178.397,230.20990815
178.41,230.321105647
178.412,230.338209362
178.427,230.466454687
178.442,230.59463845
178.457,230.722754961
178.472,230.850798438
178.487,230.978763048
178.502,231.106642905
178.517,231.234432026
178.532,231.362124389
178.547,231.489713936
178.562,231.61719448
178.577,231.744559831
178.592,231.871803712
178.607,231.998919778
178.622,232.125901632
178.637,232.252742809
178.652,232.379436775
178.667,232.505976958
178.682,232.632356702
178.697,232.758569265
178.712,232.884607901
178.727,233.010465769
178.742,233.136135955
178.757,233.26161151
178.772,233.386885394
178.787,233.51195055
178.802,233.636799813
178.817,233.761425984
178.832,233.885821789
178.847,234.009979909
178.862,234.133892977
178.877,234.257553519
178.892,234.380954056
178.907,234.50408701
178.922,234.626944783
178.937,234.749519682
178.952,234.871803986
178.967,234.993789904
178.982,235.115469592
178.997,235.236835168
179.012,235.357878662
179.027,235.478592073
179.042,235.59896736
179.057,235.718996388
179.072,235.838671016
179.087,235.957983025
179.102,236.076924154
179.117,236.195486108
179.132,236.313660518
179.147,236.43143897
179.16,236.53318684
179.162,236.548813042
179.177,236.665774228
179.192,236.782313986
179.207,236.898423735
179.222,237.014094871
179.237,237.129318706
179.252,237.244086556
179.267,237.358389684
179.282,237.472219301
179.297,237.585566606
179.312,237.69842275
179.327,237.810778854
179.342,237.922626009
179.357,238.033955283
179.372,238.144757706
179.387,238.255024276
179.402,238.364745974
179.417,238.473913763
179.432,238.582518578
179.447,238.690551317
179.462,238.798002897
179.477,238.904864182
179.492,239.01112605
179.507,239.11677933
179.522,239.221814876
179.537,239.326223519
179.552,239.429996069
179.567,239.53312335
179.582,239.635596169
179.597,239.737405344
179.612,239.838541677
179.627,239.938996
179.642,240.038759113
179.657,240.13782185
179.672,240.236175053
179.687,240.33380957
179.702,240.430716262
179.717,240.526886013
179.732,240.622309695
179.747,240.716978254
179.762,240.810882634
179.777,240.904013792
179.792,240.996362738
179.807,241.087920492
179.822,241.178678136
179.837,241.268626746
179.852,241.357757484
179.867,241.446061539
179.882,241.533530111
179.897,241.620154507
179.91,241.694539408
179.912,241.705926038
179.927,241.790836083
179.942,241.874876094
179.957,241.958037553
179.972,242.040312034
179.987,242.121691152
180.002,242.202166607
180.017,242.28173015
180.032,242.360373634
180.047,242.438088951
180.062,242.514868115
180.077,242.59070321
180.092,242.665586395
180.107,242.739509908
180.122,242.812466131
180.137,242.884447462
180.152,242.955446479
180.167,243.025455803
180.182,243.094468205
180.197,243.16247652
180.212,243.229473733
180.227,243.295452922
180.242,243.360407264
180.257,243.424330117
180.272,243.487214891
180.287,243.549055192
180.302,243.609844689
180.317,243.669577238
180.332,243.728246799
180.347,243.785847491
180.362,243.842373551
180.377,243.89781938
180.392,243.95217953
180.407,244.005448696
180.422,244.057621724
180.437,244.108693622
180.452,244.158659553
180.467,244.207514866
180.482,244.255255029
180.497,244.301875714
180.512,244.34737276
180.527,244.391742167
180.542,244.434980136
180.557,244.477082992
180.56,244.485367048
180.572,244.51804731
180.587,244.557869811
180.602,244.596547391
180.617,244.634077171
180.632,244.670456424
180.647,244.705682645
180.66,244.735277555
180.662,244.73975351
180.677,244.772666879
180.692,244.804420847
180.707,244.835013673
180.722,244.864443856
180.737,244.892710054
180.752,244.919811169
180.767,244.945746284
180.782,244.970514704
180.797,244.994115963
180.812,245.016549773
180.827,245.037816082
180.842,245.057915022
180.857,245.076847003
180.872,245.094612575
180.887,245.111212566
180.902,245.126647996
180.917,245.140920091
180.932,245.154030332
180.947,245.165980388
180.962,245.176772168
180.977,245.186407801
180.992,245.194889616
181.007,245.202220178
181.022,245.208402298
181.037,245.213438947
181.052,245.217333395
181.067,245.22008907
181.082,245.221709655
181.097,245.222199026
181.112,245.221561303
181.127,245.219800824
181.142,245.216922129
181.157,245.212929984
181.172,245.207829384
181.187,245.201625514
181.202,245.194323793
181.217,245.185929855
181.232,245.176449526
181.247,245.165888867
181.262,245.154254142
181.277,245.141551823
181.292,245.127788569
181.307,245.11297127
181.31,245.109881956
181.322,245.097107023
181.337,245.080203094
181.352,245.062266987
181.367,245.043306379
181.382,245.023329147
181.397,245.002343379
181.412,244.980357326
181.427,244.957379466
181.442,244.933418425
181.457,244.908483063
181.472,244.882582366
181.487,244.855725552
181.502,244.827921998
181.517,244.799181272
181.532,244.769513074
181.547,244.738927325
181.562,244.70743411
181.577,244.675043664
181.592,244.641766394
181.607,244.607612863
181.622,244.572593824
181.637,244.536720158
181.652,244.500002929
181.667,244.462453327
181.682,244.424082707
181.697,244.384902585
181.712,244.344924588
181.727,244.304160551
181.742,244.262622391
181.757,244.220322195
181.772,244.177272171
181.787,244.133484692
181.802,244.088972212
181.817,244.043747371
181.832,243.997822905
181.847,243.951211675
181.862,243.903926685
181.877,243.855981026
181.892,243.807387942
181.907,243.758160763
181.922,243.708312945
181.937,243.65785805
181.952,243.606809736
181.967,243.555181772
181.982,243.50298803
181.997,243.450242441
182.012,243.396959063
182.027,243.343152042
182.042,243.288835563
182.057,243.234023936
182.06,243.223003445
182.072,243.178731494
182.087,243.12297266
182.102,243.066761915
182.117,243.010113774
182.132,242.95304282
182.147,242.895563627
182.162,242.837690833
182.177,242.779439067
182.192,242.720822959
182.207,242.661857132
182.222,242.602556188
182.237,242.542934683
182.252,242.483007119
182.267,242.422787915
182.282,242.362291404
182.297,242.301531776
182.312,242.240523115
182.327,242.179279296
182.342,242.117814008
182.357,242.056140696
182.372,241.994272517
182.387,241.932222341
182.402,241.870002657
182.417,241.80762553
182.432,241.745102571
182.447,241.682444841
182.462,241.619662785
182.477,241.556766214
182.492,241.493764093
182.507,241.430664589
182.522,241.367474847
182.537,241.304200942
182.552,241.240847704
182.567,241.177418591
182.582,241.11391551
182.597,241.050338617
182.612,240.986686142
182.627,240.922954095
182.642,240.859136063
182.657,240.795222838
182.672,240.731202105
182.687,240.667058071
182.702,240.602770976
182.717,240.538316605
182.732,240.473665725
182.747,240.408783397
182.762,240.343628169
182.777,240.278151282
182.792,240.212295574
182.807,240.145994287
182.822,240.079169673
182.837,240.011731404
182.852,239.943574558
182.867,239.874577375
182.882,239.804598536
182.897,239.733473889
182.912,239.661012495
182.927,239.586991923
182.942,239.51115239
182.957,239.433189641
182.972,239.3527461
182.987,239.269399895
183.002,239.182650906
183.017,239.091903205
183.032,238.996442428
183.047,238.895406455
183.062,238.787747123
183.077,238.672179379
183.092,238.547113224
183.107,238.410561238
183.122,238.260011719
183.137,238.092252011
183.152,237.903120141
183.167,237.687152979
183.182,237.437087356
183.197,237.143165717
183.212,236.792230078
183.227,236.366783653
183.242,235.845025189
183.257,235.206069408
183.367,235.368029359
183.382,235.972611506
183.397,236.464538694
183.412,236.866062522
183.427,237.19802421
183.442,237.476735582
183.457,237.714386776
183.472,237.92001746
183.487,238.100372057
183.502,238.260539799
183.517,238.404411031
183.532,238.534998946
183.547,238.654666894
183.562,238.765290498
183.577,238.868374542
183.592,238.965138276
183.607,239.056578559
183.622,239.143517033
183.637,239.226635904
183.652,239.306505285
183.667,239.383604406
183.682,239.458338158
183.697,239.531050196
183.712,239.60203331
183.727,239.671537805
183.742,239.739778239
183.757,239.806939029
183.772,239.873178817
183.787,239.93863439
183.802,240.003423715
183.817,240.067648498
183.832,240.131396475
183.847,240.194743191
183.862,240.257753592
183.877,240.320483414
183.892,240.382980265
183.907,240.445284633
183.922,240.507430804
183.937,240.56944748
183.952,240.631358556
183.967,240.693183608
183.982,240.754938384
183.997,240.81663527
184.012,240.878283623
184.027,240.939890162
184.042,241.001459214
184.057,241.062993014
184.072,241.12449189
184.087,241.185954519
184.102,241.247378099
184.117,241.308758477
184.132,241.370090338
184.147,241.431367314
184.162,241.492582117
184.177,241.553726623
184.192,241.614791977
184.207,241.675768689
184.222,241.736646685
184.237,241.797415415
184.252,241.858063833
184.267,241.918580576
184.282,241.978953903
184.297,242.039171792
184.312,242.09922199
184.327,242.159091992
184.342,242.218769172
184.357,242.2782407
184.372,242.337493638
184.387,242.396514972
184.402,242.455291586
184.417,242.513810315
184.432,242.572057973
184.447,242.63002131
184.462,242.687687129
184.477,242.745042173
184.492,242.802073232
184.507,242.858767144
184.522,242.915110748
184.537,242.971090944
184.552,243.026694696
184.56,243.05619161
184.567,243.081909012
184.582,243.136720972
184.597,243.191117739
184.612,243.245086542
184.627,243.2986147
184.642,243.351689622
184.657,243.404298797
184.672,243.456429829
184.687,243.508070387
184.702,243.559208295
184.717,243.609831409
184.732,243.659927764
184.747,243.709485437
184.762,243.758492695
184.777,243.806937834
184.792,243.85480933
184.807,243.902095745
184.822,243.948785749
184.837,243.994868164
184.852,244.040331923
184.867,244.085166063
184.882,244.129359775
184.897,244.172902354
184.912,244.215783239
184.927,244.257991984
184.942,244.299518289
184.957,244.340351982
184.972,244.380482991
184.987,244.419901446
185.002,244.458597561
185.017,244.496561697
185.032,244.533784361
185.047,244.570256204
185.062,244.605968009
185.077,244.64091071
185.092,244.675075381
185.107,244.708453248
185.122,244.741035665
185.137,244.772814162
185.152,244.803780416
185.167,244.833926227
185.182,244.863243568
185.197,244.891724579
185.212,244.91936153
185.227,244.946146865
185.242,244.972073182
185.257,244.997133237
185.272,245.021319941
185.287,245.044626392
185.302,245.067045819
185.31,245.078637868
185.317,245.088571626
185.332,245.109197397
185.347,245.128916878
185.362,245.147723973
185.377,245.165612753
185.392,245.182577486
185.407,245.198612576
185.422,245.213712625
185.437,245.227872389
185.452,245.241086839
185.467,245.253351064
185.482,245.264660359
185.497,245.275010205
185.512,245.284396236
185.527,245.292814281
185.542,245.300260344
185.557,245.306730619
185.572,245.312221448
185.587,245.316729377
185.602,245.320251139
185.617,245.32278363
185.632,245.324323923
185.647,245.324869292
185.662,245.324417178
185.677,245.322965221
185.692,245.320511198
185.707,245.317053126
185.722,245.312589151
185.737,245.307117627
185.752,245.30063709
185.767,245.293146234
185.782,245.284643957
185.797,245.275129296
185.812,245.264601525
185.827,245.253060047
185.842,245.240504451
185.857,245.226934527
185.872,245.212350195
185.887,245.196751593
185.902,245.180139005
185.917,245.162512881
185.932,245.143873869
185.947,245.124222761
185.96,245.10637388
185.962,245.103560538
185.977,245.081888329
185.992,245.059207435
186.007,245.035519321
186.022,245.0108256
186.037,244.985128085
186.052,244.958428696
186.06,244.943780108
186.067,244.930729558
186.082,244.902032923
186.097,244.872341204
186.112,244.841656953
186.127,244.809982897
186.142,244.777321912
186.157,244.743676983
186.172,244.709051285
186.187,244.673448095
186.202,244.636870861
186.217,244.599323163
186.232,244.560808708
186.247,244.521331326
186.262,244.480895017
186.277,244.439503871
186.292,244.39716213
186.307,244.353874151
186.322,244.309644406
186.337,244.264477516
186.352,244.218378178
186.367,244.171351249
186.382,244.123401662
186.397,244.07453448
186.412,244.024754884
186.427,243.974068133
186.442,243.922479619
186.457,243.869994802
186.472,243.816619275
186.487,243.762358719
186.502,243.707218893
186.517,243.651205659
186.532,243.594324968
186.547,243.536582844
186.562,243.47798544
186.577,243.418538935
186.592,243.358249615
186.607,243.297123828
186.622,243.235168026
186.637,243.172388702
186.652,243.10879244
186.667,243.044385871
186.682,242.979175717
186.697,242.913168737
186.71,242.855323424
186.712,242.846371765
186.727,242.778791683
186.742,242.710435444
186.757,242.641310028
186.772,242.571422496
186.787,242.500779946
186.802,242.429389506
186.817,242.357258361
186.832,242.284393761
186.847,242.210802949
186.862,242.136493234
186.877,242.061471964
186.892,241.985746505
186.907,241.909324267
186.922,241.832212681
186.937,241.754419194
186.952,241.675951311
186.967,241.59681652
186.982,241.51702236
186.997,241.436576375
187.012,241.355486125
187.027,241.273759197
187.042,241.19140318
187.057,241.108425667
187.072,241.024834281
187.087,240.940636643
187.102,240.85584037
187.117,240.770453102
187.132,240.68448247
187.147,240.597936098
187.162,240.510821627
187.177,240.423146689
187.192,240.334918912
187.207,240.2461459
187.222,240.156835291
187.237,240.066994676
187.252,239.976631645
187.267,239.885753789
187.282,239.794368679
187.297,239.70248387
187.312,239.610106898
187.327,239.517245297
187.342,239.423906561
187.357,239.330098185
187.372,239.235827634
187.387,239.141102341
187.402,239.045929744
187.417,238.950317213
187.432,238.854272153
187.447,238.757801874
187.46,238.673856018
187.462,238.660913716
187.477,238.563614961
187.492,238.465912866
187.507,238.367814663
187.522,238.269327547
187.537,238.170458688
187.552,238.071215204
187.567,237.971604218
187.582,237.871632776
187.597,237.771307899
187.612,237.670636589
187.627,237.569625806
187.642,237.468282449
187.657,237.366613412
187.672,237.264625521
187.687,237.16232558
187.702,237.059720347
187.717,236.956816545
187.732,236.853620832
187.747,236.750139846
187.762,236.64638018
187.777,236.542348381
187.792,236.438050954
187.807,236.333494346
187.822,236.228684978
187.837,236.123629229
187.852,236.018333392
187.867,235.912803777
187.882,235.807046579
187.897,235.701068006
187.912,235.594874193
187.927,235.488471218
187.942,235.381865128
187.957,235.275061914
187.972,235.168067519
187.987,235.060887852
188.002,234.953528733
188.017,234.845996001
188.032,234.738295366
188.047,234.63043255
188.062,234.522413201
188.077,234.414242921
188.092,234.30592726
188.107,234.197471714
188.122,234.088881759
188.137,233.980162764
188.152,233.871320118
188.167,233.762359092
188.182,233.653284944
188.197,233.544102892
188.21,233.449395135
188.212,233.434818081
188.227,233.325435607
188.242,233.215960523
188.257,233.106397834
188.272,232.996752487
188.287,232.887029403
188.302,232.777233404
188.317,232.667369307
188.332,232.557441867
188.347,232.44745578
188.362,232.337415695
188.377,232.227326227
188.392,232.117191919
188.407,232.007017272
188.422,231.896806753
188.437,231.786564761
188.452,231.67629565
188.467,231.566003737
188.482,231.455693278
188.497,231.345368477
188.512,231.235033506
188.527,231.124692477
188.542,231.014349452
188.557,230.904008455
188.572,230.793673459
188.587,230.683348391
188.602,230.573037117
188.617,230.462743484
188.632,230.352471262
188.647,230.242224183
188.66,230.146699932
188.662,230.132005961
188.677,230.02182023
188.692,229.91167059
188.707,229.801560596
188.722,229.691493761
188.737,229.581473539
