# 01004 ENAS Ny-Alesund Ii Observations at 12Z 19 Sep 2019
Frequency [GHz],TB
175.31,256.852702956
175.322,256.888415862
175.337,256.932922295
175.352,256.977277567
175.367,257.021480064
175.382,257.065528178
175.397,257.109420276
175.412,257.153154737
175.427,257.196729935
175.442,257.240144222
175.457,257.283395957
175.472,257.326483485
175.487,257.36940516
175.502,257.412159318
175.517,257.454744287
175.532,257.497158407
175.547,257.539399992
175.562,257.581467362
175.577,257.623358839
175.592,257.665072723
175.607,257.706607324
175.622,257.747960941
175.637,257.789131865
175.652,257.830118394
175.667,257.870918808
175.682,257.911531381
175.697,257.951954414
175.712,257.992186155
175.727,258.032224893
175.742,258.072068882
175.757,258.111716396
175.772,258.151165678
175.787,258.190414991
175.802,258.229462582
175.817,258.268306708
175.832,258.30694561
175.847,258.345377528
175.862,258.383600702
175.877,258.421613368
175.892,258.45941376
175.907,258.497000103
175.922,258.534370641
175.937,258.571523584
175.952,258.608457165
175.967,258.645169599
175.982,258.681659119
175.997,258.717923928
176.012,258.753962253
176.027,258.78977231
176.042,258.825352313
176.057,258.860700469
176.072,258.895814999
176.087,258.9306941
176.102,258.965336008
176.117,258.999738905
176.132,259.03390102
176.147,259.067820561
176.162,259.101495734
176.177,259.134924745
176.192,259.168105814
176.207,259.201037148
176.222,259.233716956
176.237,259.266143461
176.252,259.298314864
176.267,259.330229386
176.282,259.361885245
176.297,259.393280659
176.31,259.42027797
176.312,259.424413846
176.327,259.455283033
176.342,259.48588644
176.357,259.516222294
176.372,259.546288829
176.387,259.576084274
176.402,259.605606866
176.417,259.634854843
176.432,259.663826448
176.447,259.692519929
176.46,259.717161286
176.462,259.72093353
176.477,259.749065512
176.492,259.776914133
176.507,259.804477646
176.522,259.83175433
176.537,259.858742457
176.552,259.885440299
176.567,259.911846145
176.582,259.937958282
176.597,259.963775002
176.612,259.989294619
176.627,260.014515427
176.642,260.039435744
176.657,260.064053892
176.672,260.088368199
176.687,260.112377006
176.702,260.136078652
176.717,260.15947149
176.732,260.182553881
176.747,260.205324183
176.762,260.227780785
176.777,260.249922069
176.792,260.271746426
176.807,260.29325226
176.822,260.314437992
176.837,260.335302037
176.852,260.355842838
176.867,260.376058832
176.882,260.395948466
176.897,260.415510227
176.912,260.434742576
176.927,260.453644007
176.942,260.47221302
176.957,260.490448126
176.972,260.508347854
176.987,260.525910735
177.002,260.543135321
177.017,260.560020182
177.032,260.576563889
177.047,260.592765031
177.062,260.608622222
177.077,260.624134066
177.092,260.639299207
177.107,260.654116287
177.122,260.668583977
177.137,260.682700944
177.152,260.696465892
177.167,260.709877524
177.182,260.722934571
177.197,260.735635772
177.21,260.74635468
177.212,260.747979889
177.227,260.759965691
177.242,260.771591977
177.257,260.782857558
177.272,260.793761264
177.287,260.804301937
177.302,260.814478437
177.31,260.819756618
177.317,260.824289659
177.332,260.833734496
177.347,260.842811881
177.362,260.851520739
177.377,260.859860047
177.392,260.867828765
177.407,260.875425908
177.422,260.882650496
177.437,260.889501562
177.452,260.895978174
177.467,260.902079414
177.482,260.907804387
177.497,260.913152225
177.512,260.918122064
177.527,260.92271308
177.542,260.926924468
177.557,260.930755436
177.572,260.93420523
177.587,260.937273105
177.602,260.939958351
177.617,260.942260263
177.632,260.944178181
177.647,260.94571146
177.66,260.946728691
177.662,260.946859482
177.677,260.947621642
177.692,260.947997366
177.707,260.94798611
177.722,260.94758736
177.737,260.946800606
177.752,260.945625375
177.767,260.944061223
177.782,260.942107729
177.797,260.939764489
177.812,260.937031145
177.827,260.933907336
177.842,260.930392752
177.857,260.926487105
177.872,260.922190118
177.887,260.917501556
177.902,260.912421203
177.917,260.906948871
177.932,260.901084406
177.947,260.894827669
177.96,260.889087776
177.962,260.888178549
177.977,260.881136984
177.992,260.873702904
178.007,260.865876287
178.022,260.857657139
178.037,260.84904548
178.052,260.840041377
178.067,260.83064491
178.082,260.820856181
178.097,260.810675339
178.112,260.800102546
178.127,260.78913799
178.142,260.77778189
178.157,260.766034501
178.172,260.753896087
178.187,260.741366953
178.202,260.72844743
178.217,260.715137865
178.232,260.701438648
178.247,260.68735018
178.262,260.672872904
178.277,260.658007277
178.292,260.642753788
178.307,260.627112956
178.322,260.611085313
178.337,260.594671437
178.352,260.577871911
178.367,260.560687364
178.382,260.543118425
178.397,260.525165779
178.41,260.509296971
178.412,260.506830117
178.427,260.488112154
178.442,260.469012629
178.457,260.449532333
178.472,260.429672034
178.487,260.409432563
178.502,260.388814763
178.517,260.367819493
178.532,260.346447632
178.547,260.324700101
178.562,260.302577839
178.577,260.280081782
178.592,260.257212929
178.607,260.233972259
178.622,260.210360797
178.637,260.186379584
178.652,260.16202969
178.667,260.137312177
178.682,260.112228161
178.697,260.086778752
178.712,260.06096509
178.727,260.034788334
178.742,260.008249657
178.757,259.981350244
178.772,259.954091315
178.787,259.926474086
178.802,259.898499806
178.817,259.870169722
178.832,259.841485111
178.847,259.812447257
178.862,259.783057462
178.877,259.753317038
178.892,259.723227309
178.907,259.692789618
178.922,259.66200531
178.937,259.630875751
178.952,259.599402307
178.967,259.567586365
178.982,259.535429316
178.997,259.502932564
179.012,259.470097506
179.027,259.43692557
179.042,259.403418175
179.057,259.36957675
179.072,259.335402726
179.087,259.300897558
179.102,259.266062677
179.117,259.230899538
179.132,259.195409592
179.147,259.159594299
179.16,259.128292329
179.162,259.123455107
179.177,259.086993483
179.192,259.050210879
179.207,259.013108764
179.222,258.975688584
179.237,258.937951807
179.252,258.899899878
179.267,258.861534254
179.282,258.822856392
179.297,258.783867725
179.312,258.744569698
179.327,258.704963753
179.342,258.665051306
179.357,258.624833795
179.372,258.584312627
179.387,258.54348921
179.402,258.502364949
179.417,258.460941224
179.432,258.41921943
179.447,258.377200928
179.462,258.334887079
179.477,258.292279233
179.492,258.249378721
179.507,258.206186871
179.522,258.16270499
179.537,258.118934372
179.552,258.074876304
179.567,258.030532046
179.582,257.985902845
179.597,257.940989943
179.612,257.895794557
179.627,257.850317885
179.642,257.804561104
179.657,257.758525391
179.672,257.712211875
179.687,257.665621694
179.702,257.618755946
179.717,257.57161573
179.732,257.5242021
179.747,257.476516107
179.762,257.428558771
179.777,257.380331097
179.792,257.331834062
179.807,257.283068626
179.822,257.234035722
179.837,257.184736262
179.852,257.135171132
179.867,257.085341201
179.882,257.035247302
179.897,256.984890254
179.91,256.941035238
179.912,256.934270852
179.927,256.883389863
179.942,256.832248021
179.957,256.780846051
179.972,256.729184647
179.987,256.677264464
180.002,256.625086152
180.017,256.572650322
180.032,256.519957563
180.047,256.467008447
180.062,256.413803497
180.077,256.360343243
180.092,256.306628158
180.107,256.252658708
180.122,256.198435324
180.137,256.143958425
180.152,256.089228383
180.167,256.034245559
180.182,255.979010289
180.197,255.923522878
180.212,255.867783606
180.227,255.811792732
180.242,255.755550488
180.257,255.699057085
180.272,255.642312696
180.287,255.585317491
180.302,255.528071595
180.317,255.470575127
180.332,255.412828173
180.347,255.354830795
180.362,255.296583031
180.377,255.238084912
180.392,255.179336426
180.407,255.120337554
180.422,255.061088248
180.437,255.001588442
180.452,254.94183805
180.467,254.881836969
180.482,254.821585065
180.497,254.761082193
180.512,254.700328191
180.527,254.639322883
180.542,254.578066053
180.557,254.516557496
180.56,254.504225558
180.572,254.454796974
180.587,254.392784247
180.602,254.330519017
180.617,254.268001037
180.632,254.20523
180.647,254.142205594
180.66,254.087379239
180.662,254.078927496
180.677,254.015395365
180.692,253.951608862
180.707,253.887567623
180.722,253.823271277
180.737,253.758719439
180.752,253.693911727
180.767,253.628847735
180.782,253.563527049
180.797,253.497949263
180.812,253.432113944
180.827,253.366020666
180.842,253.299668991
180.857,253.233058482
180.872,253.166188685
180.887,253.09905915
180.902,253.031669433
180.917,252.96401907
180.932,252.896107604
180.947,252.82793458
180.962,252.759499533
180.977,252.690802017
180.992,252.621841561
181.007,252.552617714
181.022,252.483130025
181.037,252.413378045
181.052,252.343361326
181.067,252.273079425
181.082,252.202531921
181.097,252.131718375
181.112,252.060638367
181.127,251.989291494
181.142,251.917677345
181.157,251.845795535
181.172,251.773645682
181.187,251.701227414
181.202,251.628540378
181.217,251.55558424
181.232,251.482358669
181.247,251.408863355
181.262,251.335098012
181.277,251.261062359
181.292,251.186756153
181.307,251.112179162
181.31,251.097231251
181.322,251.037331177
181.337,250.962212014
181.352,250.886821514
181.367,250.81115955
181.382,250.73522602
181.397,250.659020852
181.412,250.582544005
181.427,250.505795482
181.442,250.428775305
181.457,250.351483551
181.472,250.273920331
181.487,250.1960858
181.502,250.117980147
181.517,250.03960364
181.532,249.960956561
181.547,249.882039262
181.562,249.802852165
181.577,249.723395718
181.592,249.643670473
181.607,249.563677014
181.622,249.483416018
181.637,249.402888224
181.652,249.322094457
181.667,249.241035624
181.682,249.159712715
181.697,249.078126824
181.712,248.996279131
181.727,248.914170926
181.742,248.831803613
181.757,248.749178698
181.772,248.666297835
181.787,248.583162772
181.802,248.499775433
181.817,248.416137851
181.832,248.33225224
181.847,248.248120956
181.862,248.163746534
181.877,248.079131692
181.892,247.994279316
181.907,247.909192538
181.922,247.823874651
181.937,247.738329197
181.952,247.652559954
181.967,247.56657094
181.982,247.480366428
181.997,247.393950989
182.012,247.307329465
182.027,247.220507016
182.042,247.133489111
182.057,247.046281564
182.06,247.028817833
182.072,246.95889055
182.087,246.871322615
182.102,246.783584704
182.117,246.695684166
182.132,246.607628799
182.147,246.519426849
182.162,246.431087047
182.177,246.342618622
182.192,246.25403134
182.207,246.16533552
182.222,246.076542055
182.237,245.987662454
182.252,245.898708845
182.267,245.809694044
182.282,245.720631547
182.297,245.631535577
182.312,245.54242112
182.327,245.45330395
182.342,245.364200655
182.357,245.275128695
182.372,245.186106409
182.387,245.097153079
182.402,245.008288932
182.417,244.919535207
182.432,244.83091416
182.447,244.742449145
182.462,244.654164602
182.477,244.566086133
182.492,244.47824051
182.507,244.390655718
182.522,244.303361014
182.537,244.216386918
182.552,244.129765295
182.567,244.043529338
182.582,243.957713632
182.597,243.872354171
182.612,243.787488386
182.627,243.703155162
182.642,243.619394852
182.657,243.536249318
182.672,243.453761928
182.687,243.371977543
182.702,243.29094256
182.717,243.210704885
182.732,243.131313908
182.747,243.052820528
182.762,242.975277108
182.777,242.898737446
182.792,242.823256724
182.807,242.748891482
182.822,242.675699563
182.837,242.603740019
182.852,242.533073055
182.867,242.463759944
182.882,242.39586291
182.897,242.329445035
182.912,242.264570114
182.927,242.201302536
182.942,242.139707136
182.957,242.079849011
182.972,242.021793373
182.987,241.96560534
183.002,241.911349746
183.017,241.859090936
183.032,241.808892532
183.047,241.760817202
183.062,241.714926427
183.077,241.671280244
183.092,241.629937008
183.107,241.590953102
183.122,241.554382709
183.137,241.520277541
183.152,241.488686555
183.167,241.459655742
183.182,241.433227854
183.197,241.409442175
183.212,241.388334299
183.227,241.369935925
183.242,241.354274673
183.257,241.341373907
183.367,241.332230619
183.382,241.342634306
183.397,241.35579605
183.412,241.371692002
183.427,241.3902941
183.442,241.411570231
183.457,241.435484411
183.472,241.461997011
183.487,241.491064969
183.502,241.522642032
183.517,241.556678998
183.532,241.593123958
183.547,241.631922608
183.562,241.673018428
183.577,241.716353
183.592,241.761866246
183.607,241.809496684
183.622,241.859181675
183.637,241.91085766
183.652,241.964460377
183.667,242.019925111
183.682,242.077186875
183.697,242.136180624
183.712,242.196841429
183.727,242.259104638
183.742,242.322906071
183.757,242.388182135
183.772,242.454869969
183.787,242.522907571
183.802,242.592233897
183.817,242.66278897
183.832,242.734513949
183.847,242.807351229
183.862,242.881244493
183.877,242.956138756
183.892,243.031980437
183.907,243.108717383
183.922,243.186298884
183.937,243.264675723
183.952,243.343800183
183.967,243.423626025
183.982,243.504108544
183.997,243.585204521
184.012,243.666872233
184.027,243.749071444
184.042,243.831763383
184.057,243.914910726
184.072,243.99847757
184.087,244.08242943
184.102,244.166733165
184.117,244.251356995
184.132,244.336270444
184.147,244.421444312
184.162,244.506850657
184.177,244.592462731
184.192,244.678254972
184.207,244.764202948
184.222,244.850283339
184.237,244.936473875
184.252,245.022753339
184.267,245.109101494
184.282,245.195499058
184.297,245.281927687
184.312,245.36836991
184.327,245.454809128
184.342,245.541229546
184.357,245.627616168
184.372,245.713954749
184.387,245.80023177
184.402,245.886434407
184.417,245.972550501
184.432,246.05856853
184.447,246.144477568
184.462,246.23026729
184.477,246.315927913
184.492,246.40145018
184.507,246.48682535
184.522,246.572045162
184.537,246.657101808
184.552,246.741987919
184.56,246.787188363
184.567,246.826696542
184.582,246.911221136
184.597,246.995555503
184.612,247.079693844
184.627,247.16363067
184.642,247.247360832
184.657,247.330879493
184.672,247.414182091
184.687,247.497264359
184.702,247.580122285
184.717,247.662752111
184.732,247.74515032
184.747,247.827313606
184.762,247.909238896
184.777,247.990923308
184.792,248.072364155
184.807,248.15355893
184.822,248.234505301
184.837,248.315201101
184.852,248.395644316
184.867,248.475833075
184.882,248.555765653
184.897,248.635440449
184.912,248.714856
184.927,248.794010942
184.942,248.872904039
184.957,248.95153415
184.972,249.029900233
184.987,249.10800136
185.002,249.185836672
185.017,249.263405396
185.032,249.340706849
185.047,249.417740424
185.062,249.494505577
185.077,249.571001836
185.092,249.647228793
185.107,249.723186112
185.122,249.7988735
185.137,249.874290723
185.152,249.949437597
185.167,250.024313997
185.182,250.098919831
185.197,250.173255061
185.212,250.247319687
185.227,250.321113749
185.242,250.39463732
185.257,250.467890524
185.272,250.540873486
185.287,250.613586402
185.302,250.68602947
185.31,250.724555517
185.317,250.758202927
185.332,250.830107042
185.347,250.901742096
185.362,250.973108406
185.377,251.044206302
185.392,251.115036147
185.407,251.185598313
185.422,251.255893197
185.437,251.325921217
185.452,251.395682794
185.467,251.465178385
185.482,251.53440845
185.497,251.60337346
185.512,251.672073914
185.527,251.740510308
185.542,251.808683155
185.557,251.876592986
185.572,251.944240331
185.587,252.011625735
185.602,252.07874975
185.617,252.145612937
185.632,252.212215864
185.647,252.27855911
185.662,252.344643249
185.677,252.410468868
185.692,252.476036557
185.707,252.541346924
185.722,252.606400546
185.737,252.671198041
185.752,252.735740006
185.767,252.800027054
185.782,252.864059776
185.797,252.927838798
185.812,252.991364719
185.827,253.054638142
185.842,253.117659685
185.857,253.180429949
185.872,253.242949547
185.887,253.305219066
185.902,253.367239113
185.917,253.42901029
185.932,253.490533185
185.947,253.551808384
185.96,253.604713654
185.962,253.612836477
185.977,253.673618036
185.992,253.73415364
186.007,253.794443859
186.022,253.854489253
186.037,253.914290376
186.052,253.973847773
186.06,254.005512254
186.067,254.033161991
186.082,254.092233559
186.097,254.151063
186.112,254.209650834
186.127,254.267997563
186.142,254.326103685
186.157,254.383969692
186.172,254.441596056
186.187,254.498983237
186.202,254.556131704
186.217,254.613041896
186.232,254.669714243
186.247,254.726149166
186.262,254.782347071
186.277,254.838308363
186.292,254.894033419
186.307,254.949522611
186.322,255.004776291
186.337,255.059794799
186.352,255.114578479
186.367,255.169127634
186.382,255.223442565
186.397,255.277523561
186.412,255.33137089
186.427,255.384984814
186.442,255.43836556
186.457,255.491513363
186.472,255.544428436
186.487,255.597110964
186.502,255.64956113
186.517,255.701779091
186.532,255.753764991
186.547,255.805518963
186.562,255.857041118
186.577,255.908331552
186.592,255.959390344
186.607,256.010217558
186.622,256.060813232
186.637,256.111177403
186.652,256.16131008
186.667,256.21121126
186.682,256.260880911
186.697,256.310319005
186.71,256.352977999
186.712,256.35952548
186.727,256.408500265
186.742,256.457243269
186.757,256.50575439
186.772,256.554033496
186.787,256.602080455
186.802,256.649895102
186.817,256.697477275
186.832,256.744826772
186.847,256.791943395
186.862,256.83882692
186.877,256.885477104
186.892,256.931893701
186.907,256.978076433
186.922,257.024025019
186.937,257.069739156
186.952,257.115218525
186.967,257.160462801
186.982,257.205471636
186.997,257.25024466
187.012,257.29478151
187.027,257.33908179
187.042,257.383145095
187.057,257.426971018
187.072,257.470559115
187.087,257.513908958
187.102,257.557020074
187.117,257.599892005
187.132,257.642524263
187.147,257.684916362
187.162,257.727067794
187.177,257.768978039
187.192,257.810646572
187.207,257.852072861
187.222,257.893256349
187.237,257.934196484
187.252,257.974892696
187.267,258.015344409
187.282,258.055551033
187.297,258.095511971
187.312,258.135226626
187.327,258.174694385
187.342,258.213914625
187.357,258.252886731
187.372,258.291610058
187.387,258.330083973
187.402,258.368307831
187.417,258.406280981
187.432,258.444002767
187.447,258.481472528
187.46,258.513741948
187.462,258.518689601
187.477,258.555653314
187.492,258.592362994
187.507,258.628817966
187.522,258.665017553
187.537,258.700961073
187.552,258.73664784
187.567,258.772077166
187.582,258.807248374
187.597,258.842160767
187.612,258.876813662
187.627,258.911206373
187.642,258.945338208
187.657,258.979208479
187.672,259.012816506
187.687,259.046161595
187.702,259.079243072
187.717,259.112060255
187.732,259.144612462
187.747,259.176899019
187.762,259.208919254
187.777,259.240672507
187.792,259.272158098
187.807,259.30337538
187.822,259.334323699
187.837,259.365002396
187.852,259.395410831
187.867,259.42554837
187.882,259.455414375
187.897,259.485008224
187.912,259.514329291
187.927,259.543376975
187.942,259.572150665
187.957,259.600649766
187.972,259.628873688
187.987,259.656821852
188.002,259.684493691
188.017,259.711888636
188.032,259.739006137
188.047,259.765845651
188.062,259.792406637
188.077,259.81868859
188.092,259.844690976
188.107,259.870413308
188.122,259.895855084
188.137,259.921015828
188.152,259.945895076
188.167,259.970492365
188.182,259.994807247
188.197,260.018839292
188.21,260.039437962
188.212,260.042588084
188.227,260.06605321
188.242,260.08923427
188.257,260.112130885
188.272,260.134742686
188.287,260.157069317
188.302,260.17911043
188.317,260.2008657
188.332,260.222334814
188.347,260.243517468
188.362,260.264413372
188.377,260.285022256
188.392,260.305343855
188.407,260.325377937
188.422,260.34512426
188.437,260.364582616
188.452,260.383752801
188.467,260.402634637
188.482,260.421227952
188.497,260.439532582
188.512,260.457548401
188.527,260.475275277
188.542,260.492713105
188.557,260.509861795
188.572,260.526721261
188.587,260.543291453
188.602,260.559572317
188.617,260.575563822
188.632,260.59126596
188.647,260.606678731
188.66,260.619802405
188.662,260.621802145
188.677,260.63663625
188.692,260.65118108
188.707,260.665436708
188.722,260.67940322
188.737,260.693080706
188.752,260.70646928
