# 48698 WSSS Singapore Observations at 12Z 19 May 2019
Frequency [GHz],TB
175.31,274.775303873
175.322,274.751713475
175.337,274.722156923
175.352,274.692523962
175.367,274.662814368
175.382,274.633027916
175.397,274.603164351
175.412,274.573223456
175.427,274.543204978
175.442,274.51310868
175.457,274.482934322
175.472,274.452681671
175.487,274.422350477
175.502,274.391940494
175.517,274.36145148
175.532,274.330883186
175.547,274.300235372
175.562,274.269507789
175.577,274.238700177
175.592,274.207812295
175.607,274.176843889
175.622,274.145794698
175.637,274.114664483
175.652,274.083452981
175.667,274.05215993
175.682,274.020785074
175.697,273.989328163
175.712,273.957788927
175.727,273.926167111
175.742,273.894462446
175.757,273.862674676
175.772,273.830803534
175.787,273.798848748
175.802,273.766810057
175.817,273.734687187
175.832,273.702479874
175.847,273.670187838
175.862,273.637810817
175.877,273.605348531
175.892,273.572800702
175.907,273.540167063
175.922,273.507447334
175.937,273.47464123
175.952,273.441748477
175.967,273.408768789
175.982,273.375701894
175.997,273.342547497
176.012,273.309305312
176.027,273.275975059
176.042,273.242556447
176.057,273.209049194
176.072,273.175452992
176.087,273.141767574
176.102,273.107992627
176.117,273.074127867
176.132,273.040172995
176.147,273.006127712
176.162,272.971991719
176.177,272.937764723
176.192,272.903446419
176.207,272.869036504
176.222,272.834534677
176.237,272.799940628
176.252,272.765254055
176.267,272.730474645
176.282,272.695602093
176.297,272.660636086
176.31,272.630256384
176.312,272.625576319
176.327,272.590422471
176.342,272.555174229
176.357,272.519831275
176.372,272.484393294
176.387,272.448859968
176.402,272.413230973
176.417,272.377505986
176.432,272.341684693
176.447,272.305766749
176.46,272.274559452
176.462,272.269751851
176.477,272.233639669
176.492,272.197429855
176.507,272.161122085
176.522,272.124716044
176.537,272.088211385
176.552,272.05160776
176.567,272.014904858
176.582,271.978102332
176.597,271.941199831
176.612,271.904197033
176.627,271.867093573
176.642,271.829889128
176.657,271.792583341
176.672,271.755175867
176.687,271.717666352
176.702,271.680054465
176.717,271.642339828
176.732,271.604522105
176.747,271.566600941
176.762,271.528575976
176.777,271.490446847
176.792,271.452213195
176.807,271.413874668
176.822,271.375430903
176.837,271.336881524
176.852,271.298226175
176.867,271.259464484
176.882,271.220596087
176.897,271.181620605
176.912,271.142537678
176.927,271.103346917
176.942,271.064047956
176.957,271.024640411
176.972,270.985123917
176.987,270.945498076
177.002,270.90576252
177.017,270.865916857
177.032,270.825960696
177.047,270.785893663
177.062,270.745715369
177.077,270.705425413
177.092,270.665023409
177.107,270.624508956
177.122,270.583881664
177.137,270.543141137
177.152,270.502286974
177.167,270.46131877
177.182,270.420236123
177.197,270.379038634
177.21,270.343240934
177.212,270.337725895
177.227,270.296297494
177.242,270.254753029
177.257,270.213092072
177.272,270.171314228
177.287,270.129419074
177.302,270.087406189
177.31,270.064951033
177.317,270.045275158
177.332,270.003025561
177.347,269.960656969
177.362,269.918168968
177.377,269.875561129
177.392,269.832833013
177.407,269.789984203
177.422,269.74701426
177.437,269.703922753
177.452,269.660709241
177.467,269.61737329
177.482,269.573914458
177.497,269.530332312
177.512,269.486626393
177.527,269.442796271
177.542,269.398841478
177.557,269.354761591
177.572,269.310556141
177.587,269.266224678
177.602,269.221766742
177.617,269.177181883
177.632,269.132469633
177.647,269.087629537
177.66,269.048664349
177.662,269.042661132
177.677,268.997563946
177.692,268.952337511
177.707,268.906981359
177.722,268.861495015
177.737,268.815878013
177.752,268.770129862
177.767,268.724250094
177.782,268.678238232
177.797,268.632093776
177.812,268.585816255
177.827,268.539405172
177.842,268.492860039
177.857,268.446180365
177.872,268.399365659
177.887,268.35241542
177.902,268.305329147
177.917,268.258106341
177.932,268.210746496
177.947,268.163249107
177.96,268.121973047
177.962,268.115613663
177.977,268.067839655
177.992,268.019926571
178.007,267.971873889
178.022,267.923681094
178.037,267.875347665
178.052,267.826873071
178.067,267.778256799
178.082,267.729498309
178.097,267.680597078
178.112,267.63155256
178.127,267.582364223
178.142,267.533031533
178.157,267.483553945
178.172,267.433930907
178.187,267.38416188
178.202,267.334246309
178.217,267.284183642
178.232,267.233973325
178.247,267.183614791
178.262,267.133107483
178.277,267.082450832
178.292,267.031644274
178.307,266.980687239
178.322,266.929579146
178.337,266.878319422
178.352,266.826907486
178.367,266.775342751
178.382,266.723624638
178.397,266.671752545
178.41,266.626671725
178.412,266.619725887
178.427,266.567544062
178.442,266.515206472
178.457,266.462712515
178.472,266.41006158
178.487,266.357253053
178.502,266.304286324
178.517,266.251160775
178.532,266.197875787
178.547,266.144430721
178.562,266.090824962
178.577,266.037057869
178.592,265.983128807
178.607,265.929037129
178.622,265.874782197
178.637,265.82036336
178.652,265.765779957
178.667,265.71103134
178.682,265.65611684
178.697,265.601035787
178.712,265.545787515
178.727,265.490371351
178.742,265.43478661
178.757,265.379032599
178.772,265.323108641
178.787,265.267014033
178.802,265.210748081
178.817,265.154310066
178.832,265.0976993
178.847,265.040915045
178.862,264.983956588
178.877,264.926823213
178.892,264.869514164
178.907,264.812028736
178.922,264.754366152
178.937,264.696525683
178.952,264.638506569
178.967,264.580308054
178.982,264.521929356
178.997,264.463369707
179.012,264.404628338
179.027,264.34570444
179.042,264.286597237
179.057,264.227305921
179.072,264.167829688
179.087,264.108167713
179.102,264.048319172
179.117,263.988283254
179.132,263.928059107
179.147,263.867645885
179.16,263.815134166
179.162,263.807042742
179.177,263.746248812
179.192,263.685263215
179.207,263.624085083
179.222,263.562713533
179.237,263.501147662
179.252,263.439386562
179.267,263.377429325
179.282,263.315275024
179.297,263.252922732
179.312,263.190371492
179.327,263.127620355
179.342,263.064668363
179.357,263.001514539
179.372,262.938157894
179.387,262.874597435
179.402,262.810832155
179.417,262.746861038
179.432,262.682683045
179.447,262.618297135
179.462,262.553702258
179.477,262.488897346
179.492,262.423881308
179.507,262.358653064
179.522,262.293211502
179.537,262.227555498
179.552,262.161683922
179.567,262.095595619
179.582,262.029289435
179.597,261.962764186
179.612,261.896018672
179.627,261.829051689
179.642,261.761862021
179.657,261.694448404
179.672,261.6268096
179.687,261.558944324
179.702,261.490851288
179.717,261.422529179
179.732,261.353976668
179.747,261.285192408
179.762,261.216175025
179.777,261.14692315
179.792,261.077435366
179.807,261.007710255
179.822,260.937746361
179.837,260.867542227
179.852,260.797096361
179.867,260.726407251
179.882,260.655473365
179.897,260.584293149
179.91,260.522403158
179.912,260.512865023
179.927,260.441187385
179.942,260.369258613
179.957,260.297077043
179.972,260.224641013
179.987,260.151948813
180.002,260.078998709
180.017,260.00578896
180.032,259.93231777
180.047,259.858583337
180.062,259.784583823
180.077,259.71031735
180.092,259.635782027
180.107,259.560975935
180.122,259.485897104
180.137,259.410543547
180.152,259.334913251
180.167,259.259004157
180.182,259.182814182
180.197,259.106341209
180.212,259.029583071
180.227,258.952537599
180.242,258.875202565
180.257,258.797575694
180.272,258.719654713
180.287,258.641437273
180.302,258.562921007
180.317,258.484103518
180.332,258.404982335
180.347,258.32555499
180.362,258.245818945
180.377,258.165771636
180.392,258.085410445
180.407,258.004732721
180.422,257.923735766
180.437,257.842416842
180.452,257.760773159
180.467,257.6788019
180.482,257.596500178
180.497,257.513865069
180.512,257.430893613
180.527,257.347582786
180.542,257.263929526
180.557,257.179930704
180.56,257.163089198
180.572,257.09558317
180.587,257.010883708
180.602,256.925829044
180.617,256.840415858
180.632,256.754640774
180.647,256.66850038
180.66,256.593547175
180.662,256.58199118
180.677,256.495109647
180.692,256.407852192
180.707,256.320215155
180.722,256.232194842
180.737,256.143787487
180.752,256.05498926
180.767,255.965796297
180.782,255.876204634
180.797,255.786210285
180.812,255.695809179
180.827,255.604997188
180.842,255.513770126
180.857,255.422123731
180.872,255.330053687
180.887,255.237555612
180.902,255.144625049
180.917,255.051257484
180.932,254.957448323
180.947,254.863192919
180.962,254.768486538
180.977,254.673324388
180.992,254.577701596
181.007,254.481613237
181.022,254.385054286
181.037,254.288019654
181.052,254.190504197
181.067,254.092502653
181.082,253.994009731
181.097,253.89502003
181.112,253.795528081
181.127,253.695528339
181.142,253.595015179
181.157,253.493982889
181.172,253.392425679
181.187,253.290337666
181.202,253.187712904
181.217,253.084545348
181.232,252.980828864
181.247,252.876557246
181.262,252.771724188
181.277,252.666323295
181.292,252.560348082
181.307,252.453791998
181.31,252.432410481
181.322,252.346648348
181.337,252.238910394
181.352,252.130571283
181.367,252.021624065
181.382,251.912061701
181.397,251.801877051
181.412,251.691062877
181.427,251.57961184
181.442,251.467516511
181.457,251.354769344
181.472,251.241362701
181.487,251.127288847
181.502,251.012539937
181.517,250.897108001
181.532,250.780985007
181.547,250.664162775
181.562,250.546633043
181.577,250.428387437
181.592,250.309417463
181.607,250.189714538
181.622,250.069269961
181.637,249.948074918
181.652,249.826120499
181.667,249.703397675
181.682,249.579897306
181.697,249.455610162
181.712,249.330526889
181.727,249.204638047
181.742,249.077934075
181.757,248.950405313
181.772,248.822042015
181.787,248.692834332
181.802,248.562772311
181.817,248.431845921
181.832,248.300045045
181.847,248.167359482
181.862,248.033778953
181.877,247.899293108
181.892,247.763891544
181.907,247.627563798
181.922,247.490299354
181.937,247.352087658
181.952,247.212918144
181.967,247.072780217
181.982,246.931663287
181.997,246.789556771
182.012,246.646450113
182.027,246.502332808
182.042,246.357194404
182.057,246.211024548
182.06,246.181665897
182.072,246.063812975
182.087,245.915549566
182.102,245.766224348
182.117,245.615827538
182.132,245.464349572
182.147,245.311781126
182.162,245.158113179
182.177,245.00333702
182.192,244.847444309
182.207,244.690427142
182.222,244.532278042
182.237,244.372990076
182.252,244.21255687
182.267,244.0509727
182.282,243.888232509
182.297,243.724332035
182.312,243.559267858
182.327,243.393037451
182.342,243.225639318
182.357,243.057073048
182.372,242.887339421
182.387,242.716440501
182.402,242.544379748
182.417,242.371162135
182.432,242.196794266
182.447,242.021284486
182.462,241.844643037
182.477,241.666882178
182.492,241.488016347
182.507,241.308062282
182.522,241.127039237
182.537,240.944969096
182.552,240.761876565
182.567,240.577789361
182.582,240.392738373
182.597,240.20675788
182.612,240.019885744
182.627,239.832163578
182.642,239.643637002
182.657,239.454355804
182.672,239.264374176
182.687,239.073750886
182.702,238.882549519
182.717,238.690838621
182.732,238.498691921
182.747,238.306188467
182.762,238.113412776
182.777,237.920454929
182.792,237.727410656
182.807,237.534381345
182.822,237.341473984
182.837,237.148801019
182.852,236.956480121
182.867,236.764633781
182.882,236.573388766
182.897,236.382875301
182.912,236.193226048
182.927,236.004574613
182.942,235.8170537
182.957,235.630792608
182.972,235.445913984
182.987,235.262529613
183.002,235.080734896
183.017,234.900601692
183.032,234.72216893
183.047,234.545430346
183.062,234.370318242
183.077,234.196682019
183.092,234.024259562
183.107,233.852638744
183.122,233.681205496
183.137,233.509073139
183.152,233.334986075
183.167,233.157188757
183.182,232.973249701
183.197,232.779833916
183.212,232.572437434
183.227,232.345172969
183.242,232.090945588
183.257,231.803156802
183.367,231.865322143
183.382,232.140445317
183.397,232.383429087
183.412,232.601342068
183.427,232.801041782
183.442,232.988055798
183.457,233.166566065
183.472,233.339653666
183.487,233.50955865
183.502,233.677894551
183.517,233.845812061
183.532,234.014120309
183.547,234.183375858
183.562,234.353948027
183.577,234.526067038
183.592,234.699859621
183.607,234.875375678
183.622,235.05260823
183.637,235.231508532
183.652,235.411997541
183.667,235.593974668
183.682,235.777324496
183.697,235.961921923
183.712,236.147636098
183.727,236.334333479
183.742,236.52188012
183.757,236.71014347
183.772,236.898993673
183.787,237.088304598
183.802,237.277954509
183.817,237.467826631
183.832,237.657809474
183.847,237.847797049
183.862,238.037688981
183.877,238.227390576
183.892,238.416812733
183.907,238.605871907
183.922,238.794489979
183.937,238.982594118
183.952,239.170116604
183.967,239.356994652
183.982,239.543170215
183.997,239.728589788
184.012,239.913204193
184.027,240.096968402
184.042,240.279841294
184.057,240.461785489
184.072,240.642767105
184.087,240.822755629
184.102,241.001723663
184.117,241.179646766
184.132,241.356503289
184.147,241.532274191
184.162,241.706942875
184.177,241.880495036
184.192,242.052918509
184.207,242.224203109
184.222,242.394340541
184.237,242.563324211
184.252,242.731149132
184.267,242.897811828
184.282,243.063310186
184.297,243.227643358
184.312,243.390811686
184.327,243.552816593
184.342,243.713660477
184.357,243.873346662
184.372,244.031879316
184.387,244.189263337
184.402,244.345504337
184.417,244.500608558
184.432,244.654582798
184.447,244.807434382
184.462,244.959171086
184.477,245.109801104
184.492,245.259332992
184.507,245.407775636
184.522,245.555138215
184.537,245.701430144
184.552,245.846661069
184.56,245.923687117
184.567,245.990840814
184.582,246.133979375
184.597,246.276086857
184.612,246.417173498
184.627,246.557249598
184.642,246.696325543
184.657,246.834411756
184.672,246.971518689
184.687,247.10765681
184.702,247.242836589
184.717,247.377068472
184.732,247.510362894
184.747,247.642730248
184.762,247.774180893
184.777,247.904725118
184.792,248.034373148
184.807,248.163135166
184.822,248.291021252
184.837,248.41804143
184.852,248.54420562
184.867,248.669523673
184.882,248.794005327
184.897,248.917660231
184.912,249.040497951
184.927,249.162527936
184.942,249.283759535
184.957,249.404201999
184.972,249.523864465
184.987,249.64275598
185.002,249.760885453
185.017,249.878261728
185.032,249.99489351
185.047,250.110789398
185.062,250.225957897
185.077,250.340407402
185.092,250.454146184
185.107,250.567182422
185.122,250.679524191
185.137,250.791179454
185.152,250.902156069
185.167,251.012461788
185.182,251.122104268
185.197,251.231091057
185.212,251.3394296
185.227,251.447127252
185.242,251.554191246
185.257,251.660628747
185.272,251.766446802
185.287,251.871652366
185.302,251.976252302
185.31,252.031793638
185.317,252.080253376
185.332,252.183662264
185.347,252.286485543
185.362,252.388729709
185.377,252.490401165
185.392,252.591506213
185.407,252.692051094
185.422,252.79204194
185.437,252.891484806
185.452,252.99038566
185.467,253.088750388
185.482,253.186584794
185.497,253.28389461
185.512,253.380685463
185.527,253.476962933
185.542,253.572732494
185.557,253.667999553
185.572,253.762769452
185.587,253.857047446
185.602,253.950838709
185.617,254.044148359
185.632,254.136981417
185.647,254.229342869
185.662,254.321237595
185.677,254.412670427
185.692,254.503646115
185.707,254.594169343
185.722,254.684244735
185.737,254.773876849
185.752,254.863070169
185.767,254.951829114
185.782,255.040158051
185.797,255.128061266
185.812,255.215542995
185.827,255.302607414
185.842,255.38925863
185.857,255.475500698
185.872,255.561337607
185.887,255.646773286
185.902,255.731811616
185.917,255.81645641
185.932,255.90071144
185.947,255.984580404
185.96,256.056957375
185.962,256.068066947
185.977,256.151174677
185.992,256.233907132
186.007,256.316267808
186.022,256.398260143
186.037,256.479887522
186.052,256.561153285
186.06,256.604348297
186.067,256.642060714
186.082,256.722613048
186.097,256.802813479
186.112,256.882665151
186.127,256.962171151
186.142,257.041334536
186.157,257.120158294
186.172,257.198645394
186.187,257.276798742
186.202,257.354621204
186.217,257.432115615
186.232,257.509284745
186.247,257.58613134
186.262,257.662658094
186.277,257.738867667
186.292,257.814762675
186.307,257.8903457
186.322,257.965619275
186.337,258.040585905
186.352,258.115248052
186.367,258.189608136
186.382,258.263668556
186.397,258.337431653
186.412,258.410899757
186.427,258.484075142
186.442,258.55696005
186.457,258.629556714
186.472,258.701867297
186.487,258.773893961
186.502,258.845638818
186.517,258.917103953
186.532,258.988291416
186.547,259.059203236
186.562,259.129841406
186.577,259.200207889
186.592,259.270304612
186.607,259.3401335
186.622,259.409696414
186.637,259.478995219
186.652,259.548031731
186.667,259.616807752
186.682,259.68532505
186.697,259.753585379
186.71,259.812537792
186.712,259.821590444
186.727,259.889341965
186.742,259.956841599
186.757,260.024091
186.772,260.09109178
186.787,260.157845569
186.802,260.224353924
186.817,260.290618408
186.832,260.356640567
186.847,260.422421912
186.862,260.487963922
186.877,260.553268101
186.892,260.618335878
186.907,260.683168701
186.922,260.747767971
186.937,260.812135107
186.952,260.876271467
186.967,260.940178423
186.982,261.003857303
186.997,261.06730945
187.012,261.130536166
187.027,261.193538723
187.042,261.256318423
187.057,261.318876498
187.072,261.381214213
187.087,261.443332779
187.102,261.505233413
187.117,261.566917314
187.132,261.628385657
187.147,261.689639616
187.162,261.750680347
187.177,261.811508979
187.192,261.872126646
187.207,261.932534458
187.222,261.99273352
187.237,262.052724911
187.252,262.112509715
187.267,262.172088989
187.282,262.231463784
187.297,262.290635145
187.312,262.349604093
187.327,262.408371646
187.342,262.466938809
187.357,262.525306574
187.372,262.583475939
187.387,262.641447861
187.402,262.699223305
187.417,262.756803232
187.432,262.814188577
187.447,262.871380284
187.46,262.920790502
187.462,262.928379266
187.477,262.985186449
187.492,263.041802731
187.507,263.098229009
187.522,263.154466177
187.537,263.210515118
187.552,263.266376698
187.567,263.322051777
187.582,263.377541212
187.597,263.432845855
187.612,263.487966546
187.627,263.542904112
187.642,263.597659377
187.657,263.652233169
187.672,263.706626278
187.687,263.760839534
187.702,263.814873711
187.717,263.868729598
187.732,263.922407997
187.747,263.975909668
187.762,264.029235391
187.777,264.082385911
187.792,264.135362007
187.807,264.188164416
187.822,264.240793887
187.837,264.293251164
187.852,264.345536977
187.867,264.397652051
187.882,264.449597106
187.897,264.501372862
187.912,264.552980037
187.927,264.604419322
187.942,264.655691435
187.957,264.706797056
187.972,264.757736886
187.987,264.808511604
188.002,264.859121897
188.017,264.909568435
188.032,264.95985189
188.047,265.009972935
188.062,265.059932227
188.077,265.109730423
188.092,265.159368177
188.107,265.208846131
188.122,265.25816494
188.137,265.30732524
188.152,265.356327665
188.167,265.40517285
188.182,265.453861417
188.197,265.502393997
188.21,265.544329867
188.212,265.550771211
188.227,265.598993663
188.242,265.647061975
188.257,265.694976756
188.272,265.742738611
188.287,265.790348133
188.302,265.837805921
188.317,265.885112577
188.332,265.932268682
188.347,265.979274833
188.362,266.026131605
188.377,266.072839576
188.392,266.119399332
188.407,266.165811434
188.422,266.212076466
188.437,266.258194983
188.452,266.304167561
188.467,266.349994747
188.482,266.395677104
188.497,266.44121519
188.512,266.486609548
188.527,266.531860734
188.542,266.576969291
188.557,266.621935762
188.572,266.666760684
188.587,266.711444593
188.602,266.755988027
188.617,266.800391518
188.632,266.844655583
188.647,266.888780758
188.66,266.926910621
188.662,266.932767554
188.677,266.976616514
188.692,267.020328131
188.707,267.063902932
188.722,267.107341431
