# 78954 TBPB Grantley Adams Observations at 12Z 19 Jan 2019
Frequency [GHz],TB
175.31,284.404986467
175.322,284.393362606
175.337,284.378770452
175.352,284.364109062
175.367,284.349378454
175.382,284.334578647
175.397,284.319709658
175.412,284.304771504
175.427,284.289764206
175.442,284.274687778
175.457,284.259542241
175.472,284.244327611
175.487,284.229043906
175.502,284.213691143
175.517,284.198269338
175.532,284.182778508
175.547,284.167218671
175.562,284.151589841
175.577,284.135892035
175.592,284.120125267
175.607,284.104289553
175.622,284.088384907
175.637,284.072411343
175.652,284.056368874
175.667,284.040257513
175.682,284.024077273
175.697,284.007828165
175.712,283.991510201
175.727,283.97512339
175.742,283.958667742
175.757,283.942143268
175.772,283.925549973
175.787,283.908887867
175.802,283.892156954
175.817,283.875357243
175.832,283.858488736
175.847,283.841551438
175.862,283.824545351
175.877,283.807470478
175.892,283.790326819
175.907,283.773114375
175.922,283.755833142
175.937,283.73848312
175.952,283.721064304
175.967,283.70357669
175.982,283.68602027
175.997,283.668395038
176.012,283.650700985
176.027,283.6329381
176.042,283.615106372
176.057,283.597205787
176.072,283.579236332
176.087,283.561197989
176.102,283.543090741
176.117,283.524914569
176.132,283.506669452
176.147,283.488355367
176.162,283.46997229
176.177,283.451520195
176.192,283.432999053
176.207,283.414408836
176.222,283.39574951
176.237,283.377021043
176.252,283.358223399
176.267,283.339356541
176.282,283.320420429
176.297,283.301415021
176.31,283.28488758
176.312,283.282340273
176.327,283.263196139
176.342,283.243982572
176.357,283.22469952
176.372,283.205346931
176.387,283.18592475
176.402,283.16643292
176.417,283.146871379
176.432,283.127240067
176.447,283.107538918
176.46,283.090408046
176.462,283.087767864
176.477,283.067926837
176.492,283.048015762
176.507,283.028034566
176.522,283.007983169
176.537,282.987861491
176.552,282.967669448
176.567,282.947406955
176.582,282.927073921
176.597,282.906670254
176.612,282.88619586
176.627,282.86565064
176.642,282.845034492
176.657,282.824347312
176.672,282.803588993
176.687,282.782759424
176.702,282.761858491
176.717,282.740886076
176.732,282.719842059
176.747,282.698726316
176.762,282.67753872
176.777,282.65627914
176.792,282.634947441
176.807,282.613543485
176.822,282.592067132
176.837,282.570518236
176.852,282.548896648
176.867,282.527202216
176.882,282.505434784
176.897,282.483594191
176.912,282.461680274
176.927,282.439692864
176.942,282.417631791
176.957,282.395496878
176.972,282.373287946
176.987,282.35100481
177.002,282.328647283
177.017,282.306215174
177.032,282.283708284
177.047,282.261126415
177.062,282.23846936
177.077,282.215736912
177.092,282.192928856
177.107,282.170044974
177.122,282.147085044
177.137,282.124048838
177.152,282.100936126
177.167,282.077746672
177.182,282.054480233
177.197,282.031136565
177.21,282.010842723
177.212,282.007715418
177.227,281.984216536
177.242,281.96063966
177.257,281.936984524
177.272,281.91325086
177.287,281.889438392
177.302,281.86554684
177.31,281.852772245
177.317,281.84157592
177.332,281.817525343
177.347,281.793394813
177.362,281.769184029
177.377,281.744892686
177.392,281.720520474
177.407,281.696067077
177.422,281.671532172
177.437,281.646915434
177.452,281.622216529
177.467,281.597435119
177.482,281.572570861
177.497,281.547623406
177.512,281.522592399
177.527,281.497477479
177.542,281.472278281
177.557,281.44699443
177.572,281.421625551
177.587,281.396171258
177.602,281.370631162
177.617,281.345004867
177.632,281.31929197
177.647,281.293492064
177.66,281.271061444
177.662,281.267604734
177.677,281.241629559
177.692,281.215566113
177.707,281.189413963
177.722,281.163172668
177.737,281.136841783
177.752,281.110420854
177.767,281.083909425
177.782,281.057307027
177.797,281.03061319
177.812,281.003827433
177.827,280.976949272
177.842,280.949978213
177.857,280.922913757
177.872,280.895755398
177.887,280.868502622
177.902,280.841154908
177.917,280.813711728
177.932,280.786172549
177.947,280.758536828
177.96,280.734507353
177.962,280.730804015
177.977,280.702973553
177.992,280.67504488
178.007,280.647017422
178.022,280.6188906
178.037,280.590663829
178.052,280.562336512
178.067,280.533908049
178.082,280.505377828
178.097,280.476745233
178.112,280.448009636
178.127,280.419170404
178.142,280.390226895
178.157,280.361178458
178.172,280.332024435
178.187,280.30276416
178.202,280.273396957
178.217,280.243922142
178.232,280.214339023
178.247,280.184646899
178.262,280.15484506
178.277,280.12493279
178.292,280.094909359
178.307,280.064774032
178.322,280.034526064
178.337,280.0041647
178.352,279.973689177
178.367,279.943098723
178.382,279.912392554
178.397,279.881569879
178.41,279.854762035
178.412,279.850629898
178.427,279.819571798
178.442,279.788394761
178.457,279.757097955
178.472,279.725680539
178.487,279.694141664
178.502,279.662480469
178.517,279.630696082
178.532,279.598787624
178.547,279.566754203
178.562,279.534594916
178.577,279.50230885
178.592,279.469895083
178.607,279.437352679
178.622,279.404680694
178.637,279.371878172
178.652,279.338944143
178.667,279.305877631
178.682,279.272677643
178.697,279.239343179
178.712,279.205873224
178.727,279.172266754
178.742,279.138522731
178.757,279.104640105
178.772,279.070617815
178.787,279.036454787
178.802,279.002149935
178.817,278.967702159
178.832,278.93311035
178.847,278.89837338
178.862,278.863490114
178.877,278.828459402
178.892,278.793280078
178.907,278.757950965
178.922,278.722470874
178.937,278.686838599
178.952,278.651052922
178.967,278.615112611
178.982,278.579016418
178.997,278.542763084
179.012,278.506351333
179.027,278.469779874
179.042,278.433047403
179.057,278.3961526
179.072,278.35909413
179.087,278.321870643
179.102,278.284480772
179.117,278.246923137
179.132,278.20919634
179.147,278.171298968
179.16,278.138315499
179.162,278.133229592
179.177,278.094986765
179.192,278.056569025
179.207,278.017974893
179.222,277.979202872
179.237,277.94025145
179.252,277.901119096
179.267,277.861804261
179.282,277.82230538
179.297,277.78262087
179.312,277.742749127
179.327,277.702688532
179.342,277.662437446
179.357,277.621994211
179.372,277.581357152
179.387,277.540524572
179.402,277.499494756
179.417,277.45826597
179.432,277.416836459
179.447,277.375204448
179.462,277.333368143
179.477,277.291325728
179.492,277.249075367
179.507,277.206615203
179.522,277.163943359
179.537,277.121057933
179.552,277.077957005
179.567,277.034638632
179.582,276.991100847
179.597,276.947341664
179.612,276.903359072
179.627,276.859151037
179.642,276.814715502
179.657,276.770050389
179.672,276.725153593
179.687,276.680022986
179.702,276.634656418
179.717,276.589051713
179.732,276.543206669
179.747,276.497119061
179.762,276.450786638
179.777,276.404207124
179.792,276.357378217
179.807,276.310297589
179.822,276.262962886
179.837,276.215371728
179.852,276.167521706
179.867,276.119410386
179.882,276.071035306
179.897,276.022393978
179.91,275.980020848
179.912,275.973483882
179.927,275.924302475
179.942,275.874847182
179.957,275.825115401
179.972,275.775104501
179.987,275.724811819
180.002,275.674234668
180.017,275.623370325
180.032,275.572216042
180.047,275.520769039
180.062,275.469026504
180.077,275.416985596
180.092,275.364643441
180.107,275.311997137
180.122,275.259043746
180.137,275.205780302
180.152,275.152203805
180.167,275.098311222
180.182,275.044099488
180.197,274.989565505
180.212,274.934706143
180.227,274.879518238
180.242,274.82399859
180.257,274.768143967
180.272,274.711951105
180.287,274.655416701
180.302,274.598537421
180.317,274.541309895
180.332,274.483730717
180.347,274.425796446
180.362,274.367503608
180.377,274.30884869
180.392,274.249828144
180.407,274.190438388
180.422,274.130675799
180.437,274.070536723
180.452,274.010017466
180.467,273.949114297
180.482,273.887823449
180.497,273.826141119
180.512,273.764063464
180.527,273.701586605
180.542,273.638706625
180.557,273.575419571
180.56,273.56271296
180.572,273.511721449
180.587,273.447608229
180.602,273.383075843
180.617,273.318120184
180.632,273.252737107
180.647,273.18692243
180.66,273.129530665
180.662,273.120671931
180.677,273.05398135
180.692,272.986846389
180.707,272.919262711
180.722,272.85122594
180.737,272.782731664
180.752,272.71377543
180.767,272.644352747
180.782,272.574459086
180.797,272.504089881
180.812,272.433240525
180.827,272.361906374
180.842,272.290082748
180.857,272.217764925
180.872,272.144948148
180.887,272.071627622
180.902,271.997798513
180.917,271.923455952
180.932,271.848595029
180.947,271.773210801
180.962,271.697298286
180.977,271.620852465
180.992,271.543868285
181.007,271.466340654
181.022,271.388264447
181.037,271.3096345
181.052,271.230445618
181.067,271.150692569
181.082,271.070370084
181.097,270.989472865
181.112,270.907995576
181.127,270.825932849
181.142,270.743279284
181.157,270.660029447
181.172,270.576177871
181.187,270.491719059
181.202,270.406647482
181.217,270.320957581
181.232,270.234643765
181.247,270.147700413
181.262,270.060121877
181.277,269.971902477
181.292,269.883036506
181.307,269.79351823
181.31,269.775535791
181.322,269.703341886
181.337,269.612501684
181.352,269.520991809
181.367,269.42880642
181.382,269.335939648
181.397,269.242385602
181.412,269.148138366
181.427,269.053191999
181.442,268.957540537
181.457,268.861177993
181.472,268.764098358
181.487,268.6662956
181.502,268.567763666
181.517,268.468496481
181.532,268.368487948
181.547,268.267731951
181.562,268.166222353
181.577,268.063952994
181.592,267.960917698
181.607,267.857110266
181.622,267.752524478
181.637,267.647154097
181.652,267.540992862
181.667,267.434034495
181.682,267.326272692
181.697,267.217701134
181.712,267.108313473
181.727,266.998103345
181.742,266.887064356
181.757,266.775190093
181.772,266.662474113
181.787,266.548909948
181.802,266.434491101
181.817,266.319211045
181.832,266.203063218
181.847,266.086041026
181.862,265.968137835
181.877,265.849346972
181.892,265.729661719
181.907,265.609075312
181.922,265.487580932
181.937,265.365171707
181.952,265.241840701
181.967,265.117580912
181.982,264.992385262
181.997,264.866246594
182.012,264.739157662
182.027,264.61111112
182.042,264.482099517
182.057,264.352115282
182.06,264.326001044
182.072,264.221150714
182.087,264.089197969
182.102,263.956249043
182.117,263.822295759
182.132,263.687329746
182.147,263.551342418
182.162,263.414324956
182.177,263.276268278
182.192,263.137163015
182.207,262.996999477
182.222,262.855767621
182.237,262.713457011
182.252,262.570056776
182.267,262.425555562
182.282,262.279941479
182.297,262.133202038
182.312,261.985324091
182.327,261.836293748
182.342,261.6860963
182.357,261.534716117
182.372,261.382136549
182.387,261.228339803
182.402,261.073306808
182.417,260.917017063
182.432,260.759448466
182.447,260.600577122
182.462,260.440377118
182.477,260.278820278
182.492,260.115875877
182.507,259.951510322
182.522,259.785686783
182.537,259.618364775
182.552,259.449499682
182.567,259.279042209
182.582,259.106937757
182.597,258.933125706
182.612,258.757538586
182.627,258.580101128
182.642,258.400729168
182.657,258.219328377
182.672,258.035792797
182.687,257.850003132
182.702,257.661824774
182.717,257.471105494
182.732,257.277672752
182.747,257.081330544
182.762,256.881855714
182.777,256.678993608
182.792,256.472452963
182.807,256.261899867
182.822,256.046950603
182.837,255.827163156
182.852,255.602027099
182.867,255.370951519
182.882,255.133250556
182.897,254.888126039
182.912,254.634646566
182.927,254.371722239
182.942,254.098074038
182.957,253.812196609
182.972,253.51231292
182.987,253.196318844
183.002,252.861715313
183.017,252.505525065
183.032,252.12419042
183.047,251.713447713
183.062,251.268173352
183.077,250.782195808
183.092,250.248067862
183.107,249.656794617
183.122,248.997516934
183.137,248.257160124
183.152,247.420080413
183.167,246.467789803
183.182,245.378939378
183.197,244.129942977
183.212,242.697026897
183.227,241.061281137
183.242,239.219763715
183.257,237.208129774
183.367,237.707136722
183.382,239.675945451
183.397,241.460440053
183.412,243.037853434
183.427,244.416700203
183.442,245.617800575
183.457,246.665139811
183.472,247.581801309
183.487,248.388388991
183.502,249.102618811
183.517,249.739425165
183.532,250.311266206
183.547,250.82848055
183.562,251.299630515
183.577,251.731806877
183.592,252.130888671
183.607,252.501759848
183.622,252.848487679
183.637,253.17446869
183.652,253.482547626
183.667,253.775114312
183.682,254.054182555
183.697,254.321454492
183.712,254.578373164
183.727,254.826165586
183.742,255.065878111
183.757,255.298405559
183.772,255.52451527
183.787,255.744867043
183.802,255.960029687
183.817,256.170494826
183.832,256.376688436
183.847,256.578980508
183.862,256.77769318
183.877,256.973107581
183.892,257.165469624
183.907,257.354994907
183.922,257.541872876
183.937,257.726270376
183.952,257.908334671
183.967,258.088196036
183.982,258.265969972
183.997,258.441759112
184.012,258.615654862
184.027,258.787738814
184.042,258.958083965
184.057,259.126755782
184.072,259.293813109
184.087,259.459308973
184.102,259.623291271
184.117,259.785803379
184.132,259.946884675
184.147,260.106571005
184.162,260.264895082
184.177,260.421886845
184.192,260.577573768
184.207,260.731981133
184.222,260.885132274
184.237,261.037048785
184.252,261.187750713
184.267,261.337256719
184.282,261.48558423
184.297,261.632749565
184.312,261.778768051
184.327,261.923654131
184.342,262.067421448
184.357,262.21008293
184.372,262.351650863
184.387,262.492136953
184.402,262.631552388
184.417,262.769907884
184.432,262.907213736
184.447,263.043479857
184.462,263.178715816
184.477,263.31293087
184.492,263.446133993
184.507,263.578333907
184.522,263.709539102
184.537,263.839757859
184.552,263.968998269
184.56,264.037529193
184.567,264.097268251
184.582,264.224575567
184.597,264.350927839
184.612,264.476332557
184.627,264.600797094
184.642,264.724328717
184.657,264.846934592
184.672,264.968621799
184.687,265.089397332
184.702,265.209268113
184.717,265.328240994
184.732,265.446322762
184.747,265.563520148
184.762,265.679839828
184.777,265.795288427
184.792,265.909872525
184.807,266.023598658
184.822,266.136473323
184.837,266.248502977
184.852,266.359694045
184.867,266.470052916
184.882,266.579585948
184.897,266.688299469
184.912,266.796199779
184.927,266.903293149
184.942,267.009585826
184.957,267.11508403
184.972,267.219793955
184.987,267.323721772
185.002,267.426873629
185.017,267.52925565
185.032,267.630873936
185.047,267.731734565
185.062,267.831843592
185.077,267.931207051
185.092,268.029830951
185.107,268.127721281
185.122,268.224884006
185.137,268.321325067
185.152,268.417050384
185.167,268.512065852
185.182,268.606377345
185.197,268.69999071
185.212,268.792911771
185.227,268.885146329
185.242,268.976700158
185.257,269.067579008
185.272,269.157788605
185.287,269.247334644
185.302,269.3362228
185.31,269.383362765
185.317,269.424458716
185.332,269.512048012
185.347,269.598996276
185.362,269.685309072
185.377,269.770991933
185.392,269.856050365
185.407,269.940489843
185.422,270.024315813
185.437,270.107533692
185.452,270.190148866
185.467,270.272166688
185.482,270.353592483
185.497,270.434431543
185.512,270.514689128
185.527,270.594370466
185.542,270.673480751
185.557,270.752025147
185.572,270.830008782
185.587,270.907436751
185.602,270.984314117
185.617,271.060645907
185.632,271.136437113
185.647,271.211692695
185.662,271.286417575
185.677,271.360616643
185.692,271.434294751
185.707,271.507456717
185.722,271.580107323
185.737,271.652251314
185.752,271.723893402
185.767,271.795038259
185.782,271.865690524
185.797,271.935854797
185.812,272.005535644
185.827,272.074737591
185.842,272.14346513
185.857,272.211722716
185.872,272.279514767
185.887,272.346845663
185.902,272.413719748
185.917,272.48014133
185.932,272.546114678
185.947,272.611644025
185.96,272.668080224
185.962,272.676733568
185.977,272.741387467
185.992,272.805609844
186.007,272.869404784
186.022,272.932776338
186.037,272.995728516
186.052,273.058265295
186.06,273.091449754
186.067,273.120390615
186.082,273.182108378
186.097,273.243422451
186.112,273.304336664
186.127,273.364854811
186.142,273.424980652
186.157,273.484717907
186.172,273.544070265
186.187,273.603041376
186.202,273.661634856
186.217,273.719854286
186.232,273.777703212
186.247,273.835185145
186.262,273.892303559
186.277,273.949061898
186.292,274.005463568
186.307,274.061511943
186.322,274.117210361
186.337,274.172562128
186.352,274.227570516
186.367,274.282238764
186.382,274.336570076
186.397,274.390567627
186.412,274.444234555
186.427,274.497573969
186.442,274.550588944
186.457,274.603282523
186.472,274.655657718
186.487,274.70771751
186.502,274.759464848
186.517,274.810902649
186.532,274.862033802
186.547,274.912861162
186.562,274.963387556
186.577,275.013615782
186.592,275.063548605
186.607,275.113188763
186.622,275.162538965
186.637,275.211601889
186.652,275.260380185
186.667,275.308876476
186.682,275.357093354
186.697,275.405033387
186.71,275.446359439
186.712,275.452699111
186.727,275.500093037
186.742,275.547217648
186.757,275.594075401
186.772,275.640668726
186.787,275.687000024
186.802,275.733071675
186.817,275.778886027
186.832,275.824445408
186.847,275.869752116
186.862,275.914808428
186.877,275.959616592
186.892,276.004178834
186.907,276.048497355
186.922,276.092574331
186.937,276.136411916
186.952,276.180012239
186.967,276.223377404
186.982,276.266509495
186.997,276.309410572
187.012,276.352082671
187.027,276.394527807
187.042,276.436747972
187.057,276.478745136
187.072,276.520521248
187.087,276.562078236
187.102,276.603418004
187.117,276.644542439
187.132,276.685453403
187.147,276.72615274
187.162,276.766642273
187.177,276.806923806
187.192,276.84699912
187.207,276.886869981
187.222,276.926538131
187.237,276.966005295
187.252,277.00527318
187.267,277.044343471
187.282,277.083217837
187.297,277.121897928
187.312,277.160385375
187.327,277.198681793
187.342,277.236788777
187.357,277.274707905
187.372,277.312440739
187.387,277.349988821
187.402,277.38735368
187.417,277.424536825
187.432,277.461539749
187.447,277.49836393
187.46,277.530134766
187.462,277.535010829
187.477,277.571481889
187.492,277.60777854
187.507,277.643902196
187.522,277.679854254
187.537,277.715636096
187.552,277.751249091
187.567,277.78669459
187.582,277.821973931
187.597,277.857088437
187.612,277.892039417
187.627,277.926828165
187.642,277.961455961
187.657,277.995924071
187.672,278.030233749
187.687,278.064386232
187.702,278.098382747
187.717,278.132224505
187.732,278.165912705
187.747,278.199448533
187.762,278.232833163
187.777,278.266067753
187.792,278.299153453
187.807,278.332091398
187.822,278.364882711
187.837,278.397528502
187.852,278.43002987
187.867,278.462387903
187.882,278.494603677
187.897,278.526678254
187.912,278.558612687
187.927,278.590408018
187.942,278.622065275
187.957,278.653585479
187.972,278.684969636
187.987,278.716218743
188.002,278.747333788
188.017,278.778315745
188.032,278.80916558
188.047,278.839884248
188.062,278.870472693
188.077,278.900931851
188.092,278.931262646
188.107,278.961465992
188.122,278.991542796
188.137,279.021493951
188.152,279.051320344
188.167,279.081022852
188.182,279.110602341
188.197,279.14005967
188.21,279.165491196
188.212,279.169395686
188.227,279.19861123
188.242,279.227707133
188.257,279.256684216
188.272,279.285543292
188.287,279.314285167
188.302,279.342910636
188.317,279.371420487
188.332,279.399815499
188.347,279.428096444
188.362,279.456264083
188.377,279.484319172
188.392,279.512262458
188.407,279.54009468
188.422,279.567816567
188.437,279.595428846
188.452,279.622932229
188.467,279.650327427
188.482,279.677615139
188.497,279.704796058
188.512,279.731870872
188.527,279.758840257
188.542,279.785704887
188.557,279.812465425
188.572,279.839122528
188.587,279.865676848
188.602,279.892129028
188.617,279.918479704
188.632,279.944729507
188.647,279.970879061
188.66,279.993461393
188.662,279.996928981
188.677,280.022879879
188.692,280.048732359
188.707,280.074487017
188.722,280.100144446
