# 10410 EDZE Essen Observations at 12Z 24 Feb 2020
Frequency [GHz],TB
175.31,265.843802136
175.322,265.835566343
175.337,265.825133636
175.352,265.814547425
175.367,265.803807494
175.382,265.792913624
175.397,265.781865604
175.412,265.770663225
175.427,265.759306281
175.442,265.747794569
175.457,265.73612789
175.472,265.724306047
175.487,265.712328848
175.502,265.700196101
175.517,265.687907622
175.532,265.675463226
175.547,265.662862735
175.562,265.65010597
175.577,265.637192757
175.592,265.624122928
175.607,265.610896314
175.622,265.597512753
175.637,265.583972081
175.652,265.570274144
175.667,265.556418786
175.682,265.542405856
175.697,265.528235206
175.712,265.513906693
175.727,265.499420174
175.742,265.484775511
175.757,265.469972571
175.772,265.455011217
175.787,265.439891325
175.802,265.424612769
175.817,265.409175423
175.832,265.393579173
175.847,265.377823897
175.862,265.361909486
175.877,265.345835828
175.892,265.329602815
175.907,265.313210344
175.922,265.296658315
175.937,265.279946629
175.952,265.26307519
175.967,265.246043906
175.982,265.228852688
175.997,265.211501451
176.012,265.193990109
176.027,265.176318583
176.042,265.158486794
176.057,265.140494668
176.072,265.122342131
176.087,265.104029115
176.102,265.085555554
176.117,265.066921381
176.132,265.048126536
176.147,265.02917096
176.162,265.010054596
176.177,264.99077739
176.192,264.971339292
176.207,264.951740251
176.222,264.931980223
176.237,264.912059161
176.252,264.891977025
176.267,264.871733774
176.282,264.851329374
176.297,264.830763787
176.31,264.812809871
176.312,264.810036981
176.327,264.789148924
176.342,264.76809959
176.357,264.74688895
176.372,264.725516982
176.387,264.703983661
176.402,264.682288966
176.417,264.66043288
176.432,264.638415386
176.447,264.616236467
176.46,264.596884153
176.462,264.59389611
176.477,264.571394304
176.492,264.548731037
176.507,264.525906302
176.522,264.502920089
176.537,264.479772393
176.552,264.456463211
176.567,264.432992538
176.582,264.409360374
176.597,264.385566715
176.612,264.361611563
176.627,264.337494919
176.642,264.313216787
176.657,264.288777168
176.672,264.264176067
176.687,264.239413489
176.702,264.214489441
176.717,264.189403929
176.732,264.164156958
176.747,264.138748539
176.762,264.113178677
176.777,264.087447383
176.792,264.061554666
176.807,264.035500532
176.822,264.009284995
176.837,263.982908064
176.852,263.956369745
176.867,263.929670052
176.882,263.902808993
176.897,263.875786579
176.912,263.848602818
176.927,263.821257719
176.942,263.793751292
176.957,263.766083546
176.972,263.738254489
176.987,263.710264127
177.002,263.682112468
177.017,263.65379952
177.032,263.625325286
177.047,263.596689771
177.062,263.567892982
177.077,263.538934918
177.092,263.509815583
177.107,263.480534978
177.122,263.451093101
177.137,263.421489952
177.152,263.391725527
177.167,263.361799822
177.182,263.331712832
177.197,263.301464549
177.21,263.275118897
177.212,263.271054966
177.227,263.240484068
177.242,263.209751847
177.257,263.178858287
177.272,263.147803374
177.287,263.116587087
177.302,263.085209409
177.31,263.068408648
177.317,263.053670316
177.332,263.021969786
177.347,262.99010779
177.362,262.958084302
177.377,262.925899291
177.392,262.893552723
177.407,262.86104456
177.422,262.828374768
177.437,262.795543303
177.452,262.762550124
177.467,262.729395182
177.482,262.696078429
177.497,262.662599815
177.512,262.628959284
177.527,262.595156778
177.542,262.561192237
177.557,262.527065597
177.572,262.492776792
177.587,262.458325751
177.602,262.423712401
177.617,262.388936667
177.632,262.353998466
177.647,262.318897719
177.66,262.288345521
177.662,262.283634338
177.677,262.248208232
177.692,262.212619308
177.707,262.17686747
177.722,262.140952617
177.737,262.104874645
177.752,262.068633445
177.767,262.032228907
177.782,261.995660915
177.797,261.95892935
177.812,261.922034089
177.827,261.884975006
177.842,261.847751969
177.857,261.810364845
177.872,261.772813494
177.887,261.735097775
177.902,261.697217541
177.917,261.659172641
177.932,261.620962922
177.947,261.582588224
177.96,261.549196577
177.962,261.544048385
177.977,261.505343237
177.992,261.466472611
178.007,261.427436331
178.022,261.388234218
178.037,261.348866088
178.052,261.309331754
178.067,261.269631025
178.082,261.229763703
178.097,261.189729589
178.112,261.149528477
178.127,261.109160162
178.142,261.068624426
178.157,261.027921055
178.172,260.987049828
178.187,260.946010517
178.202,260.904802892
178.217,260.86342672
178.232,260.821881762
178.247,260.780167775
178.262,260.738284512
178.277,260.696231721
178.292,260.654009146
178.307,260.611616527
178.322,260.569053601
178.337,260.526320099
178.352,260.483415748
178.367,260.440340271
178.382,260.397093387
178.397,260.35367481
178.41,260.315906272
178.412,260.31008425
178.427,260.266321414
178.442,260.222386003
178.457,260.178277715
178.472,260.133996245
178.487,260.08954128
178.502,260.044912505
178.517,260.000109603
178.532,259.955132247
178.547,259.909980114
178.562,259.864652869
178.577,259.819150178
178.592,259.7734717
178.607,259.727617091
178.622,259.681586005
178.637,259.635378085
178.652,259.588992978
178.667,259.542430322
178.682,259.495689753
178.697,259.448770902
178.712,259.401673394
178.727,259.354396853
178.742,259.306940898
178.757,259.259305142
178.772,259.211489197
178.787,259.163492667
178.802,259.115315155
178.817,259.066956257
178.832,259.018415569
178.847,258.969692677
178.862,258.920787166
178.877,258.871698618
178.892,258.822426607
178.907,258.772970707
178.922,258.723330483
178.937,258.673505498
178.952,258.623495311
178.967,258.573299474
178.982,258.522917538
178.997,258.472349046
179.012,258.421593538
179.027,258.37065055
179.042,258.31951961
179.057,258.268200244
179.072,258.216691972
179.087,258.16499431
179.102,258.113106767
179.117,258.061028849
179.132,258.008760054
179.147,257.956299877
179.16,257.910679188
179.162,257.903647806
179.177,257.850803325
179.192,257.797765911
179.207,257.744535035
179.222,257.691110163
179.237,257.637490754
179.252,257.583676263
179.267,257.529666135
179.282,257.475459812
179.297,257.421056727
179.312,257.366456308
179.327,257.311657975
179.342,257.256661142
179.357,257.201465215
179.372,257.146069592
179.387,257.090473664
179.402,257.034676814
179.417,256.978678419
179.432,256.922477845
179.447,256.866074451
179.462,256.809467588
179.477,256.752656596
179.492,256.695640808
179.507,256.638419548
179.522,256.58099213
179.537,256.523357857
179.552,256.465516024
179.567,256.407465914
179.582,256.3492068
179.597,256.290737947
179.612,256.232058604
179.627,256.173168013
179.642,256.114065402
179.657,256.054749987
179.672,255.995220975
179.687,255.935477557
179.702,255.875518912
179.717,255.815344207
179.732,255.754952595
179.747,255.694343214
179.762,255.633515189
179.777,255.572467633
179.792,255.511199639
179.807,255.449710289
179.822,255.387998648
179.837,255.326063766
179.852,255.263904675
179.867,255.201520391
179.882,255.138909915
179.897,255.076072228
179.91,255.021428312
179.912,255.013006296
179.927,254.949711063
179.942,254.886185458
179.957,254.82242839
179.972,254.758438748
179.987,254.694215401
180.002,254.629757199
180.017,254.565062972
180.032,254.500131526
180.047,254.434961649
180.062,254.369552106
180.077,254.303901637
180.092,254.238008965
180.107,254.171872784
180.122,254.105491768
180.137,254.038864567
180.152,253.971989805
180.167,253.904866082
180.182,253.837491972
180.197,253.769866026
180.212,253.701986764
180.227,253.633852686
180.242,253.565462258
180.257,253.496813925
180.272,253.4279061
180.287,253.358737169
180.302,253.28930549
180.317,253.219609391
180.332,253.149647173
180.347,253.079417104
180.362,253.008917423
180.377,252.938146341
180.392,252.867102033
180.407,252.795782648
180.422,252.724186301
180.437,252.652311074
180.452,252.580155018
180.467,252.507716152
180.482,252.434992461
180.497,252.361981898
180.512,252.288682381
180.527,252.215091795
180.542,252.141207992
180.557,252.067028788
180.56,252.052157305
180.572,251.992551966
180.587,251.917775274
180.602,251.842696424
180.617,251.767313095
180.632,251.69162293
180.647,251.615623537
180.66,251.549505388
180.662,251.539312486
180.677,251.462687318
180.692,251.385745531
180.707,251.308484593
180.722,251.230901934
180.737,251.15299495
180.752,251.074760999
180.767,250.996197406
180.782,250.917301461
180.797,250.838070419
180.812,250.758501497
180.827,250.678591881
180.842,250.598338721
180.857,250.517739133
180.872,250.4367902
180.887,250.355488971
180.902,250.273832461
180.917,250.191817654
180.932,250.109441501
180.947,250.026700923
180.962,249.943592807
180.977,249.860114013
180.992,249.776261368
181.007,249.692031674
181.022,249.607421701
181.037,249.522428195
181.052,249.437047873
181.067,249.351277428
181.082,249.265113528
181.097,249.178552819
181.112,249.091591921
181.127,249.004227438
181.142,248.916455951
181.157,248.828274024
181.172,248.739678202
181.187,248.650665017
181.202,248.561230987
181.217,248.471372615
181.232,248.381086397
181.247,248.290368817
181.262,248.199216354
181.277,248.107625483
181.292,248.015592674
181.307,247.923114399
181.31,247.904564977
181.322,247.830187129
181.337,247.736807342
181.352,247.642971522
181.367,247.54867616
181.382,247.453917761
181.397,247.358692847
181.412,247.262997953
181.427,247.166829638
181.442,247.070184487
181.457,246.973059109
181.472,246.875450146
181.487,246.777354276
181.502,246.678768214
181.517,246.579688717
181.532,246.480112593
181.547,246.380036698
181.562,246.279457943
181.577,246.178373303
181.592,246.076779817
181.607,245.974674593
181.622,245.872054818
181.637,245.768917759
181.652,245.66526077
181.667,245.5610813
181.682,245.456376896
181.697,245.351145213
181.712,245.245384017
181.727,245.139091196
181.742,245.032264767
181.757,244.924902878
181.772,244.817003823
181.787,244.70856605
181.802,244.599588162
181.817,244.490068936
181.832,244.380007325
181.847,244.269402472
181.862,244.158253718
181.877,244.046560614
181.892,243.934322931
181.907,243.821540672
181.922,243.708214082
181.937,243.594343665
181.952,243.479930191
181.967,243.364974714
181.982,243.249478584
181.997,243.133443462
182.012,243.016871333
182.027,242.899764526
182.042,242.782125724
182.057,242.663957988
182.06,242.640261265
182.072,242.545264767
182.087,242.426049924
182.102,242.306317746
182.117,242.186072972
182.132,242.065320807
182.147,241.944066946
182.162,241.822317595
182.177,241.700079493
182.192,241.577359934
182.207,241.454166795
182.222,241.330508555
182.237,241.206394326
182.252,241.081833875
182.267,240.956837653
182.282,240.831416823
182.297,240.705583286
182.312,240.579349713
182.327,240.452729574
182.342,240.325737168
182.357,240.198387652
182.372,240.070697074
182.387,239.942682407
182.402,239.814361573
182.417,239.685753484
182.432,239.556878065
182.447,239.427756288
182.462,239.298410204
182.477,239.168862968
182.492,239.039138868
182.507,238.909263347
182.522,238.779263029
182.537,238.649165736
182.552,238.519000501
182.567,238.388797578
182.582,238.258588443
182.597,238.128405792
182.612,237.998283523
182.627,237.868256712
182.642,237.738361573
182.657,237.608635401
182.672,237.4791165
182.687,237.349844088
182.702,237.220858168
182.717,237.092199378
182.732,236.963908797
182.747,236.836027708
182.762,236.708597314
182.777,236.581658382
182.792,236.455250825
182.807,236.32941319
182.822,236.204182043
182.837,236.079591234
182.852,235.955671011
182.867,235.832446952
182.882,235.709938688
182.897,235.588158358
182.912,235.467108741
182.927,235.346780998
182.942,235.227151912
182.957,235.108180518
182.972,234.98980395
182.987,234.871932291
183.002,234.754442128
183.017,234.637168433
183.032,234.519894203
183.047,234.402337099
183.062,234.284132007
183.077,234.164807936
183.092,234.04375697
183.107,233.92019186
183.122,233.793087105
183.137,233.661095665
183.152,233.522429085
183.167,233.374681995
183.182,233.21457119
183.197,233.037543773
183.212,232.837189971
183.227,232.604394464
183.242,232.326279953
183.257,231.985729105
183.367,232.065370463
183.382,232.385022269
183.397,232.646936706
183.412,232.867228063
183.427,233.057719358
183.442,233.226742397
183.457,233.380165754
183.472,233.522172942
183.487,233.655792999
183.502,233.783253714
183.517,233.906217234
183.532,234.025939127
183.547,234.14337747
183.562,234.259269004
183.577,234.37418323
183.592,234.488561528
183.607,234.602745914
183.622,234.717000514
183.637,234.831527844
183.652,234.946481319
183.667,235.061974977
183.682,235.178091137
183.697,235.294886473
183.712,235.412396893
183.727,235.530641473
183.742,235.649625662
183.757,235.769343903
183.772,235.889781787
183.787,236.010917831
183.802,236.132724952
183.817,236.255171689
183.832,236.378223223
183.847,236.501842218
183.862,236.62598953
183.877,236.750624794
183.892,236.875706905
183.907,237.00119443
183.922,237.127045935
183.937,237.253220261
183.952,237.379676752
183.967,237.506375431
183.982,237.633277153
183.997,237.760343716
184.012,237.887537953
184.027,238.014823803
184.042,238.142166359
184.057,238.269531904
184.072,238.396887938
184.087,238.524203183
184.102,238.65144759
184.117,238.778592334
184.132,238.905609803
184.147,239.032473582
184.162,239.159158434
184.177,239.285640276
184.192,239.411896151
184.207,239.537904207
184.222,239.663643661
184.237,239.789094771
184.252,239.914238805
184.267,240.039058011
184.282,240.163535581
184.297,240.287655623
184.312,240.411403129
184.327,240.534763941
184.342,240.657724724
184.357,240.780272932
184.372,240.902396779
184.387,241.024085213
184.402,241.145327883
184.417,241.266115116
184.432,241.386437885
184.447,241.506287787
184.462,241.625657016
184.477,241.744538336
184.492,241.862925064
184.507,241.98081104
184.522,242.098190606
184.537,242.21505859
184.552,242.331410277
184.56,242.393251909
184.567,242.447241395
184.582,242.562548093
184.597,242.677326925
184.612,242.791574828
184.627,242.905289108
184.642,243.018467423
184.657,243.131107763
184.672,243.243208443
184.687,243.354768078
184.702,243.465785578
184.717,243.576260127
184.732,243.686191175
184.747,243.795578422
184.762,243.904421807
184.777,244.012721497
184.792,244.120477874
184.807,244.227691528
184.822,244.33436324
184.837,244.440493978
184.852,244.546084886
184.867,244.651137273
184.882,244.755652605
184.897,244.859632497
184.912,244.963078706
184.927,245.065993121
184.942,245.168377755
184.957,245.27023474
184.972,245.371566322
184.987,245.472374846
185.002,245.57266276
185.017,245.672432602
185.032,245.771686997
185.047,245.870428651
185.062,245.968660343
185.077,246.066384924
185.092,246.163605311
185.107,246.260324478
185.122,246.356545459
185.137,246.452271337
185.152,246.547505241
185.167,246.642250346
185.182,246.736509865
185.197,246.830287046
185.212,246.923585171
185.227,247.016407548
185.242,247.108757514
185.257,247.200638425
185.272,247.292053658
185.287,247.383006608
185.302,247.47350068
185.31,247.521577735
185.317,247.563539293
185.332,247.653125875
185.347,247.742263859
185.362,247.830956683
185.377,247.919207786
185.392,248.007020606
185.407,248.094398582
185.422,248.181345146
185.437,248.267863725
185.452,248.353957739
185.467,248.439630597
185.482,248.524885698
185.497,248.609726431
185.512,248.694156168
185.527,248.778178266
185.542,248.861796069
185.557,248.945012899
185.572,249.027832063
185.587,249.110256846
185.602,249.192290514
185.617,249.273936308
185.632,249.35519745
185.647,249.436077137
185.662,249.51657854
185.677,249.596704807
185.692,249.67645906
185.707,249.755844393
185.722,249.834863875
185.737,249.913520546
185.752,249.991817417
185.767,250.069757471
185.782,250.147343664
185.797,250.224578919
185.812,250.301466132
185.827,250.378008165
185.842,250.454207854
185.857,250.530068001
185.872,250.605591378
185.887,250.680780724
185.902,250.75563875
185.917,250.830168133
185.932,250.904371517
185.947,250.978251517
185.96,251.042021265
185.962,251.051810714
185.977,251.125051659
185.992,251.197976869
186.007,251.270588829
186.022,251.342889994
186.037,251.414882785
186.052,251.486569592
186.06,251.524678257
186.067,251.557952773
186.082,251.629034655
186.097,251.699817531
186.112,251.770303668
186.127,251.840495294
186.142,251.910394613
186.157,251.980003793
186.172,252.049324973
186.187,252.118360263
186.202,252.187111741
186.217,252.255581454
186.232,252.32377142
186.247,252.391683629
186.262,252.459320041
186.277,252.526682584
186.292,252.59377316
186.307,252.660593642
186.322,252.727145876
186.337,252.793431676
186.352,252.859452833
186.367,252.925211109
186.382,252.990708237
186.397,253.055945928
186.412,253.120925861
186.427,253.185649694
186.442,253.250119057
186.457,253.314335554
186.472,253.378300765
186.487,253.442016248
186.502,253.505483532
186.517,253.568704124
186.532,253.63167951
186.547,253.69441115
186.562,253.756900481
186.577,253.819148919
186.592,253.881157858
186.607,253.942928668
186.622,254.004462702
186.637,254.065761287
186.652,254.126825733
186.667,254.187657328
186.682,254.24825734
186.697,254.308627019
186.71,254.360762044
186.712,254.368767593
186.727,254.428680276
186.742,254.488366256
186.757,254.54782671
186.772,254.607062794
186.787,254.666075646
186.802,254.724866388
186.817,254.783436125
186.832,254.841785945
186.847,254.89991692
186.862,254.957830107
186.877,255.015526547
186.892,255.073007265
186.907,255.130273272
186.922,255.187325564
186.937,255.244165123
186.952,255.300792918
186.967,255.357209903
186.982,255.413417018
186.997,255.469415192
187.012,255.525205341
187.027,255.580788366
187.042,255.636165158
187.057,255.691336596
187.072,255.746303546
187.087,255.801066865
187.102,255.855627396
187.117,255.909985972
187.132,255.964143418
187.147,256.018100545
187.162,256.071858155
187.177,256.12541704
187.192,256.178777983
187.207,256.231941758
187.222,256.284909128
187.237,256.337680848
187.252,256.390257663
187.267,256.442640313
187.282,256.494829524
187.297,256.54682602
187.312,256.598630512
187.327,256.650243704
187.342,256.701666296
187.357,256.752898976
187.372,256.803942427
187.387,256.854797326
187.402,256.90546434
187.417,256.955944131
187.432,257.006237355
187.447,257.056344661
187.46,257.099621101
187.462,257.10626669
187.477,257.15600408
187.492,257.205557461
187.507,257.254927456
187.522,257.304114685
187.537,257.353119762
187.552,257.401943292
187.567,257.450585879
187.582,257.49904812
187.597,257.547330606
187.612,257.595433924
187.627,257.643358657
187.642,257.691105381
187.657,257.738674669
187.672,257.786067088
187.687,257.833283202
187.702,257.880323569
187.717,257.927188745
187.732,257.973879279
187.747,258.020395717
187.762,258.066738602
187.777,258.112908471
187.792,258.158905859
187.807,258.204731296
187.822,258.250385307
187.837,258.295868416
187.852,258.341181142
187.867,258.386323998
187.882,258.431297499
187.897,258.476102151
187.912,258.52073846
187.927,258.565206927
187.942,258.60950805
187.957,258.653642322
187.972,258.697610238
187.987,258.741412283
188.002,258.785048944
188.017,258.828520701
188.032,258.871828035
188.047,258.91497142
188.062,258.957951329
188.077,259.000768231
188.092,259.043422594
188.107,259.08591488
188.122,259.128245551
188.137,259.170415065
188.152,259.212423875
188.167,259.254272435
188.182,259.295961194
188.197,259.337490598
188.21,259.37335419
188.212,259.37886109
188.227,259.420073111
188.242,259.4611271
188.257,259.502023492
188.272,259.542762719
188.287,259.583345211
188.302,259.623771395
188.317,259.664041696
188.332,259.704156536
188.347,259.744116333
188.362,259.783921505
188.377,259.823572464
188.392,259.863069623
188.407,259.90241339
188.422,259.94160417
188.437,259.980642366
188.452,260.019528381
188.467,260.058262612
188.482,260.096845454
188.497,260.135277301
188.512,260.173558543
188.527,260.211689566
188.542,260.249670759
188.557,260.287502502
188.572,260.325185177
188.587,260.362719161
188.602,260.400104828
188.617,260.437342553
188.632,260.474432704
188.647,260.511375651
188.66,260.54327408
188.662,260.548171757
188.677,260.584821385
188.692,260.621324897
188.707,260.65768265
188.722,260.693894998
