# 78954 TBPB Grantley Adams Observations at 12Z 24 Feb 2020
Frequency [GHz],TB
175.31,282.893134199
175.322,282.880894991
175.337,282.865561008
175.352,282.850188104
175.367,282.83477621
175.382,282.819325256
175.397,282.80383517
175.412,282.788305882
175.427,282.772737317
175.442,282.757129402
175.457,282.741482063
175.472,282.725795221
175.487,282.710068801
175.502,282.694302723
175.517,282.678496907
175.532,282.662651274
175.547,282.646765741
175.562,282.630840224
175.577,282.61487464
175.592,282.598868903
175.607,282.582822925
175.622,282.566736619
175.637,282.550609896
175.652,282.534442665
175.667,282.518234833
175.682,282.501986309
175.697,282.485696998
175.712,282.469366803
175.727,282.452995628
175.742,282.436583374
175.757,282.420129942
175.772,282.40363523
175.787,282.387099137
175.802,282.370521557
175.817,282.353902386
175.832,282.337241518
175.847,282.320538843
175.862,282.303794253
175.877,282.287007636
175.892,282.27017888
175.907,282.25330787
175.922,282.236394492
175.937,282.219438628
175.952,282.20244016
175.967,282.185398967
175.982,282.168314929
175.997,282.151187921
176.012,282.134017819
176.027,282.116804496
176.042,282.099547825
176.057,282.082247676
176.072,282.064903917
176.087,282.047516415
176.102,282.030085037
176.117,282.012609645
176.132,281.995090102
176.147,281.977526268
176.162,281.959918001
176.177,281.942265159
176.192,281.924567595
176.207,281.906825164
176.222,281.889037717
176.237,281.871205103
176.252,281.853327171
176.267,281.835403767
176.282,281.817434733
176.297,281.799419914
176.31,281.783769911
176.312,281.781359149
176.327,281.763252276
176.342,281.745099133
176.357,281.726899553
176.372,281.70865337
176.387,281.690360414
176.402,281.672020514
176.417,281.653633497
176.432,281.635199187
176.447,281.616717407
176.46,281.600661328
176.462,281.598187978
176.477,281.579610718
176.492,281.560985443
176.507,281.542311969
176.522,281.523590108
176.537,281.504819668
176.552,281.48600046
176.567,281.467132287
176.582,281.448214955
176.597,281.429248263
176.612,281.410232013
176.627,281.391165999
176.642,281.372050018
176.657,281.352883861
176.672,281.333667319
176.687,281.31440018
176.702,281.295082228
176.717,281.275713247
176.732,281.256293018
176.747,281.236821319
176.762,281.217297925
176.777,281.197722612
176.792,281.178095148
176.807,281.158415304
176.822,281.138682844
176.837,281.118897533
176.852,281.099059132
176.867,281.079167399
176.882,281.059222089
176.897,281.039222957
176.912,281.019169752
176.927,280.999062224
176.942,280.978900116
176.957,280.958683173
176.972,280.938411133
176.987,280.918083734
177.002,280.897700711
177.017,280.877261795
177.032,280.856766715
177.047,280.836215197
177.062,280.815606965
177.077,280.794941738
177.092,280.774219235
177.107,280.753439169
177.122,280.732601253
177.137,280.711705195
177.152,280.6907507
177.167,280.669737472
177.182,280.648665209
177.197,280.627533609
177.21,280.609171321
177.212,280.606342365
177.227,280.585091166
177.242,280.563779701
177.257,280.542407653
177.272,280.520974702
177.287,280.499480527
177.302,280.477924802
177.31,280.466403134
177.317,280.456307197
177.332,280.43462738
177.347,280.412885016
177.362,280.391079766
177.377,280.369211286
177.392,280.347279232
177.407,280.325283253
177.422,280.303222997
177.437,280.281098107
177.452,280.258908224
177.467,280.236652984
177.482,280.214332019
177.497,280.19194496
177.512,280.16949143
177.527,280.146971053
177.542,280.124383446
177.557,280.101728223
177.572,280.079004995
177.587,280.056213368
177.602,280.033352945
177.617,280.010423325
177.632,279.987424102
177.647,279.964354866
177.66,279.944304578
177.662,279.941215206
177.677,279.918004703
177.692,279.894722935
177.707,279.871369478
177.722,279.847943901
177.737,279.82444577
177.752,279.800874647
177.767,279.777230089
177.782,279.753511649
177.797,279.729718876
177.812,279.705851314
177.827,279.681908502
177.842,279.657889975
177.857,279.633795265
177.872,279.609623896
177.887,279.585375391
177.902,279.561049266
177.917,279.536645032
177.932,279.512162196
177.947,279.487600261
177.96,279.46624888
177.962,279.462958725
177.977,279.438237078
177.992,279.413434809
178.007,279.3885514
178.022,279.363586327
178.037,279.338539064
178.052,279.313409076
178.067,279.288195825
178.082,279.262898768
178.097,279.237517355
178.112,279.212051032
178.127,279.186499238
178.142,279.160861409
178.157,279.135136972
178.172,279.109325351
178.187,279.083425964
178.202,279.057438221
178.217,279.031361529
178.232,279.005195288
178.247,278.978938891
178.262,278.952591726
178.277,278.926153175
178.292,278.899622614
178.307,278.872999412
178.322,278.846282931
178.337,278.819472529
178.352,278.792567556
178.367,278.765567355
178.382,278.738471263
178.397,278.71127861
178.41,278.687633015
178.412,278.68398872
178.427,278.65660091
178.442,278.629114489
178.457,278.60152876
178.472,278.573843019
178.487,278.546056554
178.502,278.518168646
178.517,278.49017857
178.532,278.46208559
178.547,278.433888967
178.562,278.405587952
178.577,278.377181787
178.592,278.348669709
178.607,278.320050945
178.622,278.291324714
178.637,278.262490229
178.652,278.233546693
178.667,278.204493299
178.682,278.175329236
178.697,278.14605368
178.712,278.116665801
178.727,278.087164759
178.742,278.057549706
178.757,278.027819784
178.772,277.997974126
178.787,277.968011856
178.802,277.937932088
178.817,277.907733928
178.832,277.87741647
178.847,277.846978801
178.862,277.816419994
178.877,277.785739116
178.892,277.754935221
178.907,277.724007354
178.922,277.692954548
178.937,277.661775827
178.952,277.630470204
178.967,277.599036679
178.982,277.567474242
178.997,277.535781871
179.012,277.503958534
179.027,277.472003186
179.042,277.439914769
179.057,277.407692216
179.072,277.375334443
179.087,277.342840359
179.102,277.310208855
179.117,277.277438812
179.132,277.244529097
179.147,277.211478564
179.16,277.182719967
179.162,277.178286054
179.177,277.144950392
179.192,277.11147039
179.207,277.077844847
179.222,277.044072546
179.237,277.010152254
179.252,276.976082726
179.267,276.941862699
179.282,276.907490896
179.297,276.872966022
179.312,276.838286769
179.327,276.803451809
179.342,276.7684598
179.357,276.733309382
179.372,276.697999175
179.387,276.662527787
179.402,276.626893801
179.417,276.591095787
179.432,276.555132295
179.447,276.519001853
179.462,276.482702973
179.477,276.446234145
179.492,276.409593841
179.507,276.372780509
179.522,276.335792578
179.537,276.298628456
179.552,276.261286528
179.567,276.223765158
179.582,276.186062684
179.597,276.148177424
179.612,276.110107672
179.627,276.071851697
179.642,276.033407742
179.657,275.994774026
179.672,275.955948744
179.687,275.916930062
179.702,275.87771612
179.717,275.838305032
179.732,275.798694882
179.747,275.758883726
179.762,275.718869592
179.777,275.678650478
179.792,275.63822435
179.807,275.597589144
179.822,275.556742765
179.837,275.515683085
179.852,275.474407942
179.867,275.432915142
179.882,275.391202455
179.897,275.349267616
179.91,275.312742616
179.912,275.307108325
179.927,275.264722243
179.942,275.222106996
179.957,275.179260169
179.972,275.13617931
179.987,275.092861924
180.002,275.049305478
180.017,275.005507395
180.032,274.961465056
180.047,274.917175797
180.062,274.872636911
180.077,274.827845644
180.092,274.782799195
180.107,274.737494715
180.122,274.691929307
180.137,274.646100023
180.152,274.600003864
180.167,274.553637781
180.182,274.506998667
180.197,274.460083363
180.212,274.412888656
180.227,274.365411272
180.242,274.317647882
180.257,274.269595095
180.272,274.22124946
180.287,274.172607463
180.302,274.123665528
180.317,274.074420012
180.332,274.024867206
180.347,273.975003333
180.362,273.924824547
180.377,273.874326931
180.392,273.823506494
180.407,273.772359172
180.422,273.720880825
180.437,273.669067235
180.452,273.616914106
180.467,273.56441706
180.482,273.511571637
180.497,273.458373292
180.512,273.404817394
180.527,273.350899225
180.542,273.296613977
180.557,273.241956747
180.56,273.230980226
180.572,273.186922543
180.587,273.131506274
180.602,273.075702752
180.617,273.01950669
180.632,272.962912699
180.647,272.905915284
180.66,272.856186875
180.662,272.848508847
180.677,272.79068768
180.692,272.732445964
180.707,272.673777769
180.722,272.614677048
180.737,272.555137639
180.752,272.495153258
180.767,272.434717501
180.782,272.373823839
180.797,272.312465615
180.812,272.250636044
180.827,272.188328209
180.842,272.125535059
180.857,272.062249406
180.872,271.998463922
180.887,271.934171137
180.902,271.869363438
180.917,271.804033062
180.932,271.738172099
180.947,271.671772485
180.962,271.604826
180.977,271.537324267
180.992,271.469258748
181.007,271.40062074
181.022,271.331401375
181.037,271.261591616
181.052,271.191182253
181.067,271.120163902
181.082,271.048527
181.097,270.976261804
181.112,270.903358388
181.127,270.829806639
181.142,270.755596255
181.157,270.680716743
181.172,270.605157414
181.187,270.52890738
181.202,270.451955555
181.217,270.374290648
181.232,270.295901161
181.247,270.216775389
181.262,270.136901413
181.277,270.0562671
181.292,269.9748601
181.307,269.892667841
181.31,269.876134036
181.322,269.809677531
181.337,269.725876149
181.352,269.641250449
181.367,269.555786952
181.382,269.469471946
181.397,269.382291482
181.412,269.294231376
181.427,269.2052772
181.442,269.115414282
181.457,269.024627708
181.472,268.932902314
181.487,268.840222684
181.502,268.746573154
181.517,268.651937803
181.532,268.556300453
181.547,268.459644669
181.562,268.361953757
181.577,268.263210757
181.592,268.163398449
181.607,268.062499344
181.622,267.960495688
181.637,267.857369458
181.652,267.753102357
181.667,267.64767582
181.682,267.541071006
181.697,267.433268798
181.712,267.324249803
181.727,267.21399435
181.742,267.102482487
181.757,266.989693981
181.772,266.875608315
181.787,266.760204687
181.802,266.643462008
181.817,266.525358899
181.832,266.405873691
181.847,266.284984418
181.862,266.16266882
181.877,266.038904336
181.892,265.913668098
181.907,265.786936935
181.922,265.658687359
181.937,265.528895565
181.952,265.397537425
181.967,265.264588477
181.982,265.13002392
181.997,264.993818606
182.012,264.855947024
182.027,264.716383292
182.042,264.575101142
182.057,264.432073906
182.06,264.403256672
182.072,264.287274492
182.087,264.140675368
182.102,263.992248539
182.117,263.841965515
182.132,263.689797285
182.147,263.535714281
182.162,263.379686335
182.177,263.22168264
182.192,263.061671695
182.207,262.899621246
182.222,262.735498227
182.237,262.56926868
182.252,262.400897674
182.267,262.230349212
182.282,262.057586123
182.297,261.882569942
182.312,261.705260776
182.327,261.525617148
182.342,261.343595826
182.357,261.159151629
182.372,260.972237205
182.387,260.782802781
182.402,260.590795886
182.417,260.396161028
182.432,260.198839342
182.447,259.998768179
182.462,259.795880647
182.477,259.590105097
182.492,259.381364527
182.507,259.169575919
182.522,258.954649484
182.537,258.736487797
182.552,258.514984825
182.567,258.290024813
182.582,258.061481021
182.597,257.829214279
182.612,257.593071344
182.627,257.352883011
182.642,257.108461968
182.657,256.859600324
182.672,256.606066778
182.687,256.347603364
182.702,256.083921713
182.717,255.814698732
182.732,255.539571625
182.747,255.258132136
182.762,254.96991988
182.777,254.674414613
182.792,254.371027249
182.807,254.059089415
182.822,253.737841287
182.837,253.406417398
182.852,253.063830073
182.867,252.708950077
182.882,252.340483986
182.897,251.956947731
182.912,251.556635692
182.927,251.137584627
182.942,250.697531688
182.957,250.233865755
182.972,249.743571363
182.987,249.223164738
183.002,248.668621857
183.017,248.075299364
183.032,247.437850726
183.047,246.750142813
183.062,246.005182786
183.077,245.195073163
183.092,244.311026133
183.107,243.343489882
183.122,242.282474967
183.137,241.11822503
183.152,239.842463488
183.167,238.450576613
183.182,236.945262942
183.197,235.34234127
183.212,233.679360643
183.227,232.026763525
183.242,230.498019327
183.257,229.246515685
183.367,229.514291399
183.382,230.843822275
183.397,232.408742154
183.412,234.064452816
183.427,235.709266241
183.442,237.282328283
183.457,238.752604328
183.472,240.108272495
183.487,241.348890976
183.502,242.480223936
183.517,243.511032315
183.532,244.451174639
183.547,245.310535689
183.562,246.098460811
183.577,246.8234906
183.592,247.493268791
183.607,248.114546086
183.622,248.693233783
183.637,249.234480144
183.652,249.742754085
183.667,250.221927709
183.682,250.675353361
183.697,251.105933271
183.712,251.516181256
183.727,251.908276654
183.742,252.284111071
183.757,252.645328668
183.772,252.993360748
183.787,253.329455392
183.802,253.654702822
183.817,253.970057095
183.832,254.276354663
183.847,254.574330268
183.862,254.864630554
183.877,255.147825755
183.892,255.424419718
183.907,255.694858543
183.922,255.959538008
183.937,256.218809989
183.952,256.472987996
183.967,256.722351973
183.982,256.967152451
183.997,257.207614159
184.012,257.44393916
184.027,257.67630958
184.042,257.904889994
184.057,258.129829501
184.072,258.351263544
184.087,258.569315503
184.102,258.784098086
184.117,258.995714558
184.132,259.204259811
184.147,259.409821314
184.162,259.612479945
184.177,259.812310721
184.192,260.00938345
184.207,260.203763298
184.222,260.395511296
184.237,260.584684784
184.252,260.771337806
184.267,260.955521457
184.282,261.137284195
184.297,261.316672113
184.312,261.493729179
184.327,261.668497454
184.342,261.84101728
184.357,262.01132745
184.372,262.179465358
184.387,262.345467127
184.402,262.509367734
184.417,262.671201108
184.432,262.831000225
184.447,262.988797188
184.462,263.144623302
184.477,263.298509135
184.492,263.450484577
184.507,263.600578888
184.522,263.748820747
184.537,263.895238284
184.552,264.039859119
184.56,264.116264969
184.567,264.182710393
184.582,264.323818791
184.597,264.463210571
184.612,264.60091158
184.627,264.736947274
184.642,264.871342733
184.657,265.004122679
184.672,265.135311482
184.687,265.264933177
184.702,265.393011468
184.717,265.519569741
184.732,265.644631068
184.747,265.768218214
184.762,265.890353643
184.777,266.011059523
184.792,266.130357732
184.807,266.248269855
184.822,266.364817197
184.837,266.480020777
184.852,266.593901339
184.867,266.706479346
184.882,266.817774989
184.897,266.927808184
184.912,267.036598578
184.927,267.144165549
184.942,267.250528206
184.957,267.355705392
184.972,267.459715687
184.987,267.562577407
185.002,267.664308608
185.017,267.764927086
185.032,267.864450376
185.047,267.962895759
185.062,268.060280261
185.077,268.156620654
185.092,268.251933456
185.107,268.346234939
185.122,268.439541123
185.137,268.531867783
185.152,268.62323045
185.167,268.71364441
185.182,268.80312471
185.197,268.891686159
185.212,268.979343327
185.227,269.06611055
185.242,269.152001934
185.257,269.237031351
185.272,269.321212447
185.287,269.404558644
185.302,269.487083138
185.31,269.530764705
185.317,269.568798905
185.332,269.649718704
185.347,269.729855075
185.362,269.809220348
185.377,269.88782664
185.392,269.96568586
185.407,270.042809711
185.422,270.119209693
185.437,270.194897105
185.452,270.269883048
185.467,270.344178429
185.482,270.417793961
185.497,270.490740166
185.512,270.563027381
185.527,270.634665757
185.542,270.705665263
185.557,270.776035688
185.572,270.845786645
185.587,270.914927574
185.602,270.983467743
185.617,271.05141625
185.632,271.118782028
185.647,271.185573848
185.662,271.251800318
185.677,271.317469888
185.692,271.382590854
185.707,271.447171359
185.722,271.511219394
185.737,271.574742803
185.752,271.637749285
185.767,271.700246396
185.782,271.762241552
185.797,271.82374203
185.812,271.884754972
185.827,271.945287388
185.842,272.005346158
185.857,272.06493803
185.872,272.12406963
185.887,272.18274746
185.902,272.240977897
185.917,272.298767205
185.932,272.356121525
185.947,272.413046888
185.96,272.4620398
185.962,272.46954921
185.977,272.525634298
185.992,272.58130785
186.007,272.636575459
186.022,272.691442612
186.037,272.745914696
186.052,272.799996997
186.06,272.828683309
186.067,272.853694704
186.082,272.907012907
186.097,272.959956606
186.112,273.012530705
186.127,273.064740019
186.142,273.116589275
186.157,273.168083112
186.172,273.219226084
186.187,273.270022663
186.202,273.320477236
186.217,273.370594114
186.232,273.420377527
186.247,273.469831629
186.262,273.518960498
186.277,273.56776814
186.292,273.616258486
186.307,273.6644354
186.322,273.712302674
186.337,273.759864033
186.352,273.807123136
186.367,273.854083577
186.382,273.900748886
186.397,273.947122531
186.412,273.99320792
186.427,274.039008398
186.442,274.084527257
186.457,274.129767726
186.472,274.174732982
186.487,274.219426145
186.502,274.263850283
186.517,274.30800841
186.532,274.35190349
186.547,274.395538436
186.562,274.43891611
186.577,274.482039329
186.592,274.52491086
186.607,274.567533426
186.622,274.609909703
186.637,274.652042324
186.652,274.693933876
186.667,274.735586908
186.682,274.777003924
186.697,274.818187388
186.71,274.853692681
186.712,274.859139725
186.727,274.89986332
186.742,274.94036052
186.757,274.980633636
186.772,275.020684941
186.787,275.060516672
186.802,275.100131031
186.817,275.139530188
186.832,275.178716275
186.847,275.217691395
186.862,275.256457617
186.877,275.295016978
186.892,275.333371485
186.907,275.371523114
186.922,275.409473812
186.937,275.447225497
186.952,275.484780057
186.967,275.522139354
186.982,275.559305222
186.997,275.596279467
187.012,275.633063869
187.027,275.669660185
187.042,275.706070144
187.057,275.742295451
187.072,275.778337787
187.087,275.814198809
187.102,275.84988015
187.117,275.885383422
187.132,275.920710214
187.147,275.955862091
187.162,275.9908406
187.177,276.025647264
187.192,276.060283586
187.207,276.094751051
187.222,276.12905112
187.237,276.163185238
187.252,276.19715483
187.267,276.2309613
187.282,276.264606036
187.297,276.298090408
187.312,276.331415767
187.327,276.364583446
187.342,276.397594763
187.357,276.430451018
187.372,276.463153494
187.387,276.495703458
187.402,276.528102163
187.417,276.560350843
187.432,276.59245072
187.447,276.624402998
187.46,276.651976503
187.462,276.656208869
187.477,276.687869508
187.492,276.719386078
187.507,276.750759725
187.522,276.781991584
187.537,276.813082775
187.552,276.844034405
187.567,276.874847568
187.582,276.905523344
187.597,276.936062803
187.612,276.966467
187.627,276.996736978
187.642,277.026873769
187.657,277.056878393
187.672,277.086751857
187.687,277.116495158
187.702,277.146109282
187.717,277.175595202
187.732,277.204953881
187.747,277.234186271
187.762,277.263293315
187.777,277.292275944
187.792,277.321135078
187.807,277.349871629
187.822,277.378486497
187.837,277.406980573
187.852,277.435354739
187.867,277.463609867
187.882,277.491746819
187.897,277.519766449
187.912,277.5476696
187.927,277.575457107
187.942,277.603129798
187.957,277.630688489
187.972,277.65813399
187.987,277.6854671
188.002,277.712688613
188.017,277.739799312
188.032,277.766799973
188.047,277.793691363
188.062,277.820474243
188.077,277.847149364
188.092,277.873717471
188.107,277.900179301
188.122,277.926535582
188.137,277.952787038
188.152,277.978934382
188.167,278.004978323
188.182,278.03091956
188.197,278.056758786
188.21,278.079070798
188.212,278.082496689
188.227,278.108133948
188.242,278.133671235
188.257,278.159109218
188.272,278.184448555
188.287,278.2096899
188.302,278.2348339
188.317,278.259881195
188.332,278.28483242
188.347,278.309688202
188.362,278.334449164
188.377,278.359115921
188.392,278.383689084
188.407,278.408169256
188.422,278.432557037
188.437,278.456853019
188.452,278.481057789
188.467,278.505171927
188.482,278.529196011
188.497,278.55313061
188.512,278.57697629
188.527,278.60073361
188.542,278.624403124
188.557,278.647985382
188.572,278.671480928
188.587,278.694890301
188.602,278.718214034
188.617,278.741452657
188.632,278.764606693
188.647,278.787676662
188.66,278.807603032
188.662,278.810663078
188.677,278.833566451
188.692,278.856387285
188.707,278.87912608
188.722,278.901783333
188.737,278.924359534
