# 78954 TBPB Grantley Adams Observations at 12Z 13 Feb 2019
Frequency [GHz],TB
175.31,285.753035607
175.322,285.743533002
175.337,285.731601959
175.352,285.719612313
175.367,285.707564119
175.382,285.695457433
175.397,285.683292308
175.412,285.6710688
175.427,285.658786964
175.442,285.646446855
175.457,285.634048527
175.472,285.621592036
175.487,285.609077435
175.502,285.59650478
175.517,285.583874125
175.532,285.571185523
175.547,285.55843903
175.562,285.545634697
175.577,285.532772579
175.592,285.519852729
175.607,285.506875199
175.622,285.493840041
175.637,285.480747307
175.652,285.467597049
175.667,285.454389316
175.682,285.441124161
175.697,285.427801631
175.712,285.414421777
175.727,285.400984646
175.742,285.387490287
175.757,285.373938747
175.772,285.360330072
175.787,285.346664307
175.802,285.332941498
175.817,285.319161688
175.832,285.30532492
175.847,285.291431237
175.862,285.27748068
175.877,285.263473288
175.892,285.249409101
175.907,285.235288157
175.922,285.221110493
175.937,285.206876145
175.952,285.192585146
175.967,285.178237531
175.982,285.163833332
175.997,285.149372579
176.012,285.134855301
176.027,285.120281527
176.042,285.105651282
176.057,285.090964593
176.072,285.076221482
176.087,285.061421972
176.102,285.046566083
176.117,285.031653833
176.132,285.016685239
176.147,285.001660317
176.162,284.98657908
176.177,284.971441539
176.192,284.956247705
176.207,284.940997585
176.222,284.925691185
176.237,284.910328509
176.252,284.894909558
176.267,284.879434332
176.282,284.863902829
176.297,284.848315044
176.31,284.834760099
176.312,284.83267097
176.327,284.816970597
176.342,284.801213915
176.357,284.785400908
176.372,284.769531562
176.387,284.753605857
176.402,284.73762377
176.417,284.72158528
176.432,284.705490358
176.447,284.689338976
176.46,284.675295416
176.462,284.673131101
176.477,284.656866699
176.492,284.640545732
176.507,284.624168159
176.522,284.607733938
176.537,284.591243021
176.552,284.574695359
176.567,284.5580909
176.582,284.541429588
176.597,284.524711364
176.612,284.507936167
176.627,284.49110393
176.642,284.474214586
176.657,284.457268061
176.672,284.440264281
176.687,284.423203166
176.702,284.406084634
176.717,284.388908599
176.732,284.371674971
176.747,284.354383656
176.762,284.337034557
176.777,284.319627574
176.792,284.3021626
176.807,284.284639528
176.822,284.267058243
176.837,284.249418631
176.852,284.231720569
176.867,284.213963932
176.882,284.196148591
176.897,284.178274412
176.912,284.160341258
176.927,284.142348986
176.942,284.12429745
176.957,284.106186498
176.972,284.088015975
176.987,284.06978572
177.002,284.051495569
177.017,284.033145352
177.032,284.014734894
177.047,283.996264017
177.062,283.977732536
177.077,283.959140262
177.092,283.940487002
177.107,283.921772555
177.122,283.902996719
177.137,283.884159283
177.152,283.865260033
177.167,283.846298749
177.182,283.827275206
177.197,283.808189173
177.21,283.791597215
177.212,283.789040414
177.227,283.769828688
177.242,283.750553747
177.257,283.731215338
177.272,283.711813203
177.287,283.692347077
177.302,283.67281669
177.31,283.662374113
177.317,283.653221766
177.332,283.633562023
177.347,283.613837172
177.362,283.59404692
177.377,283.574190965
177.392,283.554269003
177.407,283.534280718
177.422,283.514225793
177.437,283.494103901
177.452,283.47391471
177.467,283.453657882
177.482,283.433333071
177.497,283.412939926
177.512,283.392478087
177.527,283.371947188
177.542,283.351346859
177.557,283.330676718
177.572,283.30993638
177.587,283.28912545
177.602,283.268243529
177.617,283.247290208
177.632,283.226265072
177.647,283.205167698
177.66,283.186824543
177.662,283.183997657
177.677,283.16275451
177.692,283.141437812
177.707,283.120047111
177.722,283.098581945
177.737,283.077041847
177.752,283.055426339
177.767,283.033734938
177.782,283.011967151
177.797,282.990122477
177.812,282.968200408
177.827,282.946200427
177.842,282.924122008
177.857,282.901964618
177.872,282.879727713
177.887,282.857410743
177.902,282.835013149
177.917,282.812534361
177.932,282.789973802
177.947,282.767330886
177.96,282.747639949
177.962,282.744605018
177.977,282.721795594
177.992,282.698901998
178.007,282.675923609
178.022,282.652859794
178.037,282.629709911
178.052,282.606473308
178.067,282.583149326
178.082,282.559737292
178.097,282.536236525
178.112,282.512646336
178.127,282.488966024
178.142,282.465194877
178.157,282.441332175
178.172,282.417377185
178.187,282.393329167
178.202,282.369187368
178.217,282.344951023
178.232,282.320619361
178.247,282.296191596
178.262,282.271666932
178.277,282.247044563
178.292,282.22232367
178.307,282.197503425
178.322,282.172582987
178.337,282.147561504
178.352,282.122438111
178.367,282.097211934
178.382,282.071882085
178.397,282.046447665
178.41,282.02431921
178.412,282.020907762
178.427,281.995261453
178.442,281.969507801
178.457,281.943645859
178.472,281.917674665
178.487,281.891593245
178.502,281.865400613
178.517,281.839095769
178.532,281.812677701
178.547,281.786145382
178.562,281.759497773
178.577,281.732733822
178.592,281.705852461
178.607,281.678852612
178.622,281.651733178
178.637,281.624493053
178.652,281.597131114
178.667,281.569646224
178.682,281.542037231
178.697,281.51430297
178.712,281.486442259
178.727,281.458453904
178.742,281.430336692
178.757,281.402089399
178.772,281.373710781
178.787,281.345199583
178.802,281.31655453
178.817,281.287774335
178.832,281.258857692
178.847,281.229803279
178.862,281.200609759
178.877,281.171275778
178.892,281.141799965
178.907,281.11218093
178.922,281.08241727
178.937,281.05250756
178.952,281.022450362
178.967,280.992244218
178.982,280.961887651
178.997,280.931379167
179.012,280.900717255
179.027,280.869900383
179.042,280.838927003
179.057,280.807795546
179.072,280.776504424
179.087,280.745052031
179.102,280.713436741
179.117,280.681656908
179.132,280.649710865
179.147,280.617596927
179.16,280.58962772
179.162,280.585313386
179.177,280.552858517
179.192,280.520230569
179.207,280.487427775
179.222,280.454448344
179.237,280.421290463
179.252,280.387952298
179.267,280.354431994
179.282,280.320727672
179.297,280.28683743
179.312,280.252759346
179.327,280.218491471
179.342,280.184031836
179.357,280.149378446
179.372,280.114529283
179.387,280.079482305
179.402,280.044235446
179.417,280.008786612
179.432,279.973133689
179.447,279.937274534
179.462,279.901206979
179.477,279.864928831
179.492,279.828437868
179.507,279.791731845
179.522,279.754808487
179.537,279.717665495
179.552,279.680300538
179.567,279.642711261
179.582,279.604895278
179.597,279.566850177
179.612,279.528573513
179.627,279.490062816
179.642,279.451315583
179.657,279.412329282
179.672,279.373101351
179.687,279.333629197
179.702,279.293910194
179.717,279.253941686
179.732,279.213720984
179.747,279.173245368
179.762,279.132512082
179.777,279.091518339
179.792,279.050261318
179.807,279.008738163
179.822,278.966945982
179.837,278.92488185
179.852,278.882542804
179.867,278.839925848
179.882,278.797027946
179.897,278.753846025
179.91,278.716189552
179.912,278.710376977
179.927,278.666617652
179.942,278.622564865
179.957,278.578215388
179.972,278.533565954
179.987,278.488613258
180.002,278.443353951
180.017,278.397784642
180.032,278.351901901
180.047,278.305702251
180.062,278.259182174
180.077,278.212338108
180.092,278.165166443
180.107,278.117663527
180.122,278.069825661
180.137,278.021649097
180.152,277.97313004
180.167,277.924264649
180.182,277.875049032
180.197,277.825479246
180.212,277.775551299
180.227,277.725261148
180.242,277.674604695
180.257,277.623577791
180.272,277.572176234
180.287,277.520395765
180.302,277.46823207
180.317,277.415680779
180.332,277.362737463
180.347,277.309397638
180.362,277.255656756
180.377,277.201510213
180.392,277.146953341
180.407,277.091981411
180.422,277.036589629
180.437,276.98077314
180.452,276.924527019
180.467,276.867846279
180.482,276.810725864
180.497,276.753160646
180.512,276.695145433
180.527,276.636674958
180.542,276.577743882
180.557,276.518346796
180.56,276.506410976
180.572,276.458478213
180.587,276.398132571
180.602,276.337304232
180.617,276.27598748
180.632,276.214176518
180.647,276.15186547
180.66,276.097453442
180.662,276.089048375
180.677,276.025719193
180.692,275.961871795
180.707,275.897499969
180.722,275.832597413
180.737,275.767157737
180.752,275.701174462
180.767,275.634641015
180.782,275.567550733
180.797,275.499896854
180.812,275.431672524
180.827,275.362870789
180.842,275.293484598
180.857,275.223506799
180.872,275.152930137
180.887,275.081747256
180.902,275.009950692
180.917,274.937532878
180.932,274.864486138
180.947,274.790802687
180.962,274.716474628
180.977,274.641493956
180.992,274.565852548
181.007,274.48954217
181.022,274.412554469
181.037,274.334880978
181.052,274.256513107
181.067,274.177442151
181.082,274.097659279
181.097,274.017155542
181.112,273.935921865
181.127,273.853949048
181.142,273.771227768
181.157,273.687748574
181.172,273.603501887
181.187,273.518478002
181.202,273.432667084
181.217,273.346059168
181.232,273.25864416
181.247,273.170411836
181.262,273.08135184
181.277,272.991453687
181.292,272.900706761
181.307,272.809100314
181.31,272.790674927
181.322,272.716623468
181.337,272.623265218
181.352,272.529014425
181.367,272.433859825
181.382,272.337790026
181.397,272.240793509
181.412,272.142858631
181.427,272.043973624
181.442,271.9441266
181.457,271.843305554
181.472,271.741498362
181.487,271.638692785
181.502,271.534876477
181.517,271.430036981
181.532,271.324161739
181.547,271.217238091
181.562,271.109253285
181.577,271.000194475
181.592,270.890048732
181.607,270.778803049
181.622,270.666444342
181.637,270.552959464
181.652,270.438335205
181.667,270.322558306
181.682,270.205615463
181.697,270.087493334
181.712,269.968178555
181.727,269.847657743
181.742,269.725917508
181.757,269.602944467
181.772,269.478725252
181.787,269.353246522
181.802,269.226494981
181.817,269.098457385
181.832,268.969120559
181.847,268.838471414
181.862,268.706496956
181.877,268.573184313
181.892,268.43852074
181.907,268.302493645
181.922,268.165090604
181.937,268.026299381
181.952,267.886107948
181.967,267.744504504
181.982,267.601477497
181.997,267.457015645
182.012,267.311107959
182.027,267.163743766
182.042,267.014912731
182.057,266.864604879
182.06,266.834365241
182.072,266.712810625
182.087,266.559520789
182.102,266.404726627
182.117,266.248419853
182.132,266.090592662
182.147,265.931237754
182.162,265.770348355
182.177,265.607918244
182.192,265.443941768
182.207,265.278413866
182.222,265.111330082
182.237,264.942686585
182.252,264.772480182
182.267,264.600708323
182.282,264.427369111
182.297,264.252461303
182.312,264.075984307
182.327,263.89793817
182.342,263.718323563
182.357,263.537141757
182.372,263.354394586
182.387,263.170084403
182.402,262.984214022
182.417,262.796786643
182.432,262.607805762
182.447,262.417275065
182.462,262.225198289
182.477,262.031579067
182.492,261.836420741
182.507,261.639726131
182.522,261.441497277
182.537,261.241735129
182.552,261.040439175
182.567,260.837607022
182.582,260.633233892
182.597,260.427312042
182.612,260.219830078
182.627,260.010772166
182.642,259.800117103
182.657,259.587837229
182.672,259.373897173
182.687,259.158252365
182.702,258.940847316
182.717,258.721613589
182.732,258.500467426
182.747,258.277306963
182.762,258.052008948
182.777,257.824424877
182.792,257.594376431
182.807,257.361650068
182.822,257.12599062
182.837,256.887093664
182.852,256.644596434
182.867,256.398066949
182.882,256.14699098
182.897,255.890756363
182.912,255.628634082
182.927,255.359755369
182.942,255.083083892
182.957,254.797381876
182.972,254.5011687
182.987,254.192670146
183.002,253.869756001
183.017,253.52986316
183.032,253.169900672
183.047,252.786132326
183.062,252.374031505
183.077,251.928102019
183.092,251.441657979
183.107,250.906555651
183.122,250.312871927
183.137,249.648529446
183.152,248.89888172
183.167,248.046301529
183.182,247.069879893
183.197,245.945480007
183.212,244.646688648
183.227,243.147882177
183.242,241.432214975
183.257,239.51110767
183.367,239.989262522
183.382,241.855710956
183.397,243.50961069
183.412,244.949622372
183.427,246.195999672
183.442,247.275009837
183.457,248.21262148
183.472,249.032157271
183.487,249.753649514
183.502,250.39391106
183.517,250.966879218
183.532,251.484033897
183.547,251.954803883
183.562,252.386927947
183.577,252.786761905
183.592,253.159533473
183.607,253.50955096
183.622,253.840372873
183.637,254.154945268
183.652,254.455712834
183.667,254.744708768
183.682,255.023627595
183.697,255.293884291
183.712,255.556662419
183.727,255.812953426
183.742,256.063588829
183.757,256.309266654
183.772,256.550573231
183.787,256.788001219
183.802,257.021964552
183.817,257.25281088
183.832,257.480831944
183.847,257.706272269
183.862,257.929336449
183.877,258.150195285
183.892,258.368990955
183.907,258.585841391
183.922,258.800843982
183.937,259.014078721
183.952,259.22561088
183.967,259.435493287
183.982,259.643768274
183.997,259.850469336
184.012,260.055622549
184.027,260.25924779
184.042,260.461359776
184.057,260.661968956
184.072,260.861082277
184.087,261.058703837
184.102,261.254835451
184.117,261.449477128
184.132,261.642627486
184.147,261.834284098
184.162,262.024443795
184.177,262.213102922
184.192,262.40025755
184.207,262.585903661
184.222,262.770037299
184.237,262.9526547
184.252,263.133752397
184.267,263.313327307
184.282,263.491376802
184.297,263.667898764
184.312,263.842891631
184.327,264.016354429
184.342,264.188286796
184.357,264.358688999
184.372,264.527561943
184.387,264.694907174
184.402,264.860726877
184.417,265.025023873
184.432,265.187801605
184.447,265.34906413
184.462,265.5088161
184.477,265.667062749
184.492,265.82380987
184.507,265.979063797
184.522,266.132831386
184.537,266.285119989
184.552,266.435937431
184.56,266.515774701
184.567,266.585291993
184.582,266.733192381
184.597,266.879647708
184.612,267.024667469
184.627,267.168261519
184.642,267.310440048
184.657,267.451213561
184.672,267.590592854
184.687,267.728588993
184.702,267.865213295
184.717,268.000477306
184.732,268.13439278
184.747,268.266971661
184.762,268.398226065
184.777,268.528168263
184.792,268.656810659
184.807,268.784165779
184.822,268.910246253
184.837,269.035064799
184.852,269.15863421
184.867,269.280967337
184.882,269.40207708
184.897,269.521976373
184.912,269.640678173
184.927,269.758195445
184.942,269.874541159
184.957,269.989728271
184.972,270.103769719
184.987,270.216678412
185.002,270.328467223
185.017,270.439148979
185.032,270.548736454
185.047,270.657242363
185.062,270.764679353
185.077,270.871060001
185.092,270.976396805
185.107,271.080702178
185.122,271.183988447
185.137,271.286267844
185.152,271.387552507
185.167,271.487854471
185.182,271.587185666
185.197,271.685557917
185.212,271.782982938
185.227,271.879472328
185.242,271.975037574
185.257,272.069690045
185.272,272.163440989
185.287,272.256301537
185.302,272.348282694
185.31,272.396983502
185.317,272.439395346
185.332,272.529650251
185.347,272.619058047
185.362,272.707629243
185.377,272.795374222
185.392,272.882303245
185.407,272.968426443
185.422,273.053753822
185.437,273.138295262
185.452,273.222060518
185.467,273.30505922
185.482,273.38730087
185.497,273.46879485
185.512,273.549550415
185.527,273.629576699
185.542,273.708882712
185.557,273.787477345
185.572,273.865369368
185.587,273.942567429
185.602,274.019080062
185.617,274.094915681
185.632,274.170082584
185.647,274.244588956
185.662,274.318442866
185.677,274.391652273
185.692,274.464225023
185.707,274.536168853
185.722,274.607491392
185.737,274.67820016
185.752,274.748302573
185.767,274.817805943
185.782,274.886717476
185.797,274.95504428
185.812,275.022793359
185.827,275.089971623
185.842,275.156585878
185.857,275.222642841
185.872,275.288149128
185.887,275.353111266
185.902,275.417535687
185.917,275.481428735
185.932,275.544796664
185.947,275.607645638
185.96,275.661699674
185.962,275.669981738
185.977,275.731810956
185.992,275.793139205
186.007,275.85397231
186.022,275.914316019
186.037,275.974175997
186.052,276.033557833
186.06,276.065034544
186.067,276.092467036
186.082,276.150909042
186.097,276.208889208
186.112,276.266412819
186.127,276.32348509
186.142,276.38011116
186.157,276.4362961
186.172,276.492044913
186.187,276.547362532
186.202,276.602253824
186.217,276.656723591
186.232,276.710776567
186.247,276.764417426
186.262,276.817650778
186.277,276.87048117
186.292,276.922913091
186.307,276.974950968
186.322,277.02659917
186.337,277.077862009
186.352,277.128743739
186.367,277.179248558
186.382,277.22938061
186.397,277.279143985
186.412,277.328542718
186.427,277.377580792
186.442,277.426262141
186.457,277.474590644
186.472,277.522570133
186.487,277.57020439
186.502,277.617497149
186.517,277.664452094
186.532,277.711072865
186.547,277.757363054
186.562,277.803326208
186.577,277.848965829
186.592,277.894285375
186.607,277.939288262
186.622,277.983977859
186.637,278.028357498
186.652,278.072430465
186.667,278.116200009
186.682,278.159669335
186.697,278.202841611
186.71,278.240019721
186.712,278.245719964
186.727,278.288307485
186.742,278.330607224
186.757,278.372622196
186.772,278.414355377
186.787,278.455809708
186.802,278.496988094
186.817,278.537893405
186.832,278.578528475
186.847,278.618896104
186.862,278.658999059
186.877,278.698840073
186.892,278.738421847
186.907,278.777747047
186.922,278.81681831
186.937,278.855638239
186.952,278.894209408
186.967,278.932534359
186.982,278.970615604
186.997,279.008455625
187.012,279.046056874
187.027,279.083421775
187.042,279.120552722
187.057,279.157452082
187.072,279.194122194
187.087,279.230565368
187.102,279.266783888
187.117,279.302780009
187.132,279.338555964
187.147,279.374113955
187.162,279.409456161
187.177,279.444584734
187.192,279.479501801
187.207,279.514209465
187.222,279.548709805
187.237,279.583004873
187.252,279.617096699
187.267,279.650987289
187.282,279.684678627
187.297,279.718172671
187.312,279.751471358
187.327,279.784576603
187.342,279.817490298
187.357,279.850214312
187.372,279.882750494
187.387,279.915100672
187.402,279.947266651
187.417,279.979250215
187.432,280.011053129
187.447,280.042677137
187.46,280.069941228
187.462,280.074123962
187.477,280.105395309
187.492,280.13649286
187.507,280.167418281
187.522,280.198173216
187.537,280.228759293
187.552,280.259178118
187.567,280.28943128
187.582,280.319520351
187.597,280.349446882
187.612,280.379212408
187.627,280.408818446
187.642,280.438266494
187.657,280.467558036
187.672,280.496694536
187.687,280.525677442
187.702,280.554508185
187.717,280.58318818
187.732,280.611718825
187.747,280.640101503
187.762,280.66833758
187.777,280.696428407
187.792,280.724375318
187.807,280.752179632
187.822,280.779842655
187.837,280.807365675
187.852,280.834749967
187.867,280.86199679
187.882,280.889107389
187.897,280.916082995
187.912,280.942924823
187.927,280.969634077
187.942,280.996211945
187.957,281.0226596
187.972,281.048978204
187.987,281.075168905
188.002,281.101232836
188.017,281.127171119
188.032,281.152984861
188.047,281.178675158
188.062,281.204243091
188.077,281.229689731
188.092,281.255016135
188.107,281.280223348
188.122,281.305312403
188.137,281.33028432
188.152,281.355140108
188.167,281.379880765
188.182,281.404507275
188.197,281.429020614
188.21,281.450174707
188.212,281.453421742
188.227,281.477711612
188.242,281.501891164
188.257,281.525961327
188.272,281.549923018
188.287,281.573777146
188.302,281.597524607
188.317,281.621166288
188.332,281.644703063
188.347,281.6681358
188.362,281.691465352
188.377,281.714692565
188.392,281.737818275
188.407,281.760843306
188.422,281.783768475
188.437,281.806594586
188.452,281.829322438
188.467,281.851952815
188.482,281.874486497
188.497,281.896924251
188.512,281.919266837
188.527,281.941515005
188.542,281.963669496
188.557,281.985731042
188.572,282.007700368
188.587,282.029578187
188.602,282.051365208
188.617,282.073062126
188.632,282.094669633
188.647,282.11618841
188.66,282.134766763
188.662,282.137619129
188.677,282.158962456
188.692,282.180219047
188.707,282.201389552
188.722,282.222474613
