# 48698 WSSS Singapore Observations at 12Z 13 Feb 2019
Frequency [GHz],TB
175.31,274.398670224
175.322,274.376422622
175.337,274.348546984
175.352,274.320597663
175.367,274.292574414
175.382,274.264476974
175.397,274.236305109
175.412,274.208058549
175.427,274.179737053
175.442,274.151340363
175.457,274.122868235
175.472,274.094320397
175.487,274.065696602
175.502,274.036996595
175.517,274.008220108
175.532,273.979366886
175.547,273.950436669
175.562,273.921429193
175.577,273.892344195
175.592,273.863181403
175.607,273.833940566
175.622,273.804621403
175.637,273.775223663
175.652,273.745747068
175.667,273.716191338
175.682,273.686556214
175.697,273.656841418
175.712,273.627046678
175.727,273.597171726
175.742,273.56721628
175.757,273.537180054
175.772,273.507062786
175.787,273.476864198
175.802,273.446583986
175.817,273.416221892
175.832,273.385777626
175.847,273.355250908
175.862,273.324641439
175.877,273.293948949
175.892,273.263173142
175.907,273.232313729
175.922,273.201370435
175.937,273.170342955
175.952,273.139231
175.967,273.108034278
175.982,273.07675249
175.997,273.045385351
176.012,273.013932554
176.027,272.982393816
176.042,272.950768824
176.057,272.919057284
176.072,272.887258895
176.087,272.855373358
176.102,272.823400364
176.117,272.791339607
176.132,272.759190795
176.147,272.726953606
176.162,272.694627739
176.177,272.662212887
176.192,272.62970874
176.207,272.597114976
176.222,272.56443129
176.237,272.531657379
176.252,272.498792918
176.267,272.465837594
176.282,272.432791082
176.297,272.399653068
176.31,272.370859204
176.312,272.366423245
176.327,272.33310128
176.342,272.299686853
176.357,272.266179647
176.372,272.232579331
176.387,272.198885583
176.402,272.165098078
176.417,272.131216493
176.432,272.097240499
176.447,272.063169755
176.46,272.033564891
176.462,272.029003946
176.477,271.994742729
176.492,271.960385781
176.507,271.925932758
176.522,271.891383335
176.537,271.856737169
176.552,271.821993931
176.567,271.787153276
176.582,271.752214868
176.597,271.71717836
176.612,271.682043423
176.627,271.646809706
176.642,271.611476861
176.657,271.57604456
176.672,271.540512442
176.687,271.504880168
176.702,271.469147386
176.717,271.433313745
176.732,271.397378907
176.747,271.361342504
176.762,271.325204196
176.777,271.28896363
176.792,271.252620453
176.807,271.216174292
176.822,271.179624819
176.837,271.142971646
176.852,271.106214446
176.867,271.06935284
176.882,271.032386475
176.897,270.995314983
176.912,270.958138009
176.927,270.920855185
176.942,270.883466149
176.957,270.845970541
176.972,270.808367981
176.987,270.770658112
177.002,270.732840572
177.017,270.694914971
177.032,270.656880957
177.047,270.618738152
177.062,270.580486192
177.077,270.542124693
177.092,270.503653285
177.107,270.465071596
177.122,270.426379246
177.137,270.387575859
177.152,270.348661068
177.167,270.309634482
177.182,270.270495723
177.197,270.231244409
177.21,270.197135271
177.212,270.191880167
177.227,270.152402608
177.242,270.112811358
177.257,270.073106019
177.272,270.033286219
177.287,269.993351567
177.302,269.953301677
177.31,269.931894486
177.317,269.913136161
177.332,269.872854635
177.347,269.832456709
177.362,269.791941991
177.377,269.751310085
177.392,269.710560609
177.407,269.669693169
177.422,269.628707368
177.437,269.58760282
177.452,269.546379123
177.467,269.505035888
177.482,269.463572708
177.497,269.421989201
177.512,269.380284958
177.527,269.33845958
177.542,269.296512681
177.557,269.25444385
177.572,269.212252689
177.587,269.169938797
177.602,269.127501772
177.617,269.084941213
177.632,269.042256709
177.647,268.999447864
177.66,268.96224597
177.662,268.956514272
177.677,268.913455525
177.692,268.870271223
177.707,268.82696095
177.722,268.783524304
177.737,268.739960869
177.752,268.696270248
177.767,268.65245203
177.782,268.608505797
177.797,268.564431141
177.812,268.520227647
177.827,268.47589491
177.842,268.43143251
177.857,268.386840046
177.872,268.342117089
177.887,268.297263227
177.902,268.252278049
177.917,268.207161141
177.932,268.161912081
177.947,268.116530441
177.96,268.077092146
177.962,268.071015825
177.977,268.025367808
177.992,267.97958596
178.007,267.933669864
178.022,267.887619104
178.037,267.841433257
178.052,267.795111899
178.067,267.74865461
178.082,267.702060969
178.097,267.65533054
178.112,267.608462907
178.127,267.561457643
178.142,267.51431433
178.157,267.467032522
178.172,267.419611804
178.187,267.372051743
178.202,267.324351915
178.217,267.276511886
178.232,267.228531223
178.247,267.180409494
178.262,267.132146277
178.277,267.083741126
178.292,267.03519361
178.307,266.986503292
178.322,266.93766974
178.337,266.888692516
178.352,266.839571184
178.367,266.790305305
178.382,266.740894431
178.397,266.691338132
178.41,266.648271355
178.412,266.641635955
178.427,266.591787465
178.442,266.541792212
178.457,266.491649766
178.472,266.441359652
178.487,266.390921447
178.502,266.340334696
178.517,266.289598939
178.532,266.238713735
178.547,266.187678624
178.562,266.136493154
178.577,266.085156872
178.592,266.033669308
178.607,265.982030023
178.622,265.930238542
178.637,265.878294399
178.652,265.826197142
178.667,265.773946292
178.682,265.721541385
178.697,265.668981953
178.712,265.616267531
178.727,265.563397629
178.742,265.510371779
178.757,265.457189505
178.772,265.403850312
178.787,265.350353731
178.802,265.296699268
178.817,265.242886437
178.832,265.188914742
178.847,265.134783696
178.862,265.080492795
178.877,265.026041542
178.892,264.971429427
178.907,264.916655948
178.922,264.861720593
178.937,264.806622847
178.952,264.751362206
178.967,264.695938127
178.982,264.640350094
178.997,264.584597586
179.012,264.52868005
179.027,264.472596968
179.042,264.416347794
179.057,264.359931966
179.072,264.303348948
179.087,264.246598178
179.102,264.189679095
179.117,264.132591129
179.132,264.07533371
179.147,264.017906263
179.16,263.96799781
179.162,263.960308192
179.177,263.902538915
179.192,263.844597843
179.207,263.786484351
179.222,263.728197857
179.237,263.669737722
179.252,263.611103325
179.267,263.552294049
179.282,263.493309241
179.297,263.434148256
179.312,263.374810449
179.327,263.315295143
179.342,263.255601675
179.357,263.195729355
179.372,263.135677505
179.387,263.075445421
179.402,263.015032382
179.417,262.954437687
179.432,262.893660596
179.447,262.832700365
179.462,262.771556251
179.477,262.710227487
179.492,262.648713294
179.507,262.587012894
179.522,262.525125474
179.537,262.463050239
179.552,262.40078635
179.567,262.338332976
179.582,262.275689261
179.597,262.212854334
179.612,262.149827318
179.627,262.086607321
179.642,262.02319341
179.657,261.959584689
179.672,261.895780182
179.687,261.831778949
179.702,261.767580001
179.717,261.703182339
179.732,261.638584954
179.747,261.573786805
179.762,261.508786839
179.777,261.44358399
179.792,261.378177156
179.807,261.312565235
179.822,261.246747076
179.837,261.180721525
179.852,261.114487414
179.867,261.048043527
179.882,260.981388637
179.897,260.914521503
179.91,260.856397314
179.912,260.847440842
179.927,260.780145351
179.942,260.712633707
179.957,260.644904559
179.972,260.576956523
179.987,260.508788188
180.002,260.440398116
180.017,260.371784843
180.032,260.302946882
180.047,260.233882695
180.062,260.164590728
180.077,260.095069386
180.092,260.025317049
180.107,259.955332062
180.122,259.885112736
180.137,259.814657349
180.152,259.743964143
180.167,259.673031315
180.182,259.601857037
180.197,259.530439428
180.212,259.458776591
180.227,259.386866573
180.242,259.31470739
180.257,259.242297011
180.272,259.169633362
180.287,259.096714326
180.302,259.023537756
180.317,258.950101446
180.332,258.876403149
180.347,258.802440583
180.362,258.728211408
180.377,258.653713235
180.392,258.578943631
180.407,258.503900124
180.422,258.428580174
180.437,258.352981198
180.452,258.27710058
180.467,258.200935616
180.482,258.124483582
180.497,258.047741682
180.512,257.970707063
180.527,257.893376836
180.542,257.815748041
180.557,257.737817659
180.56,257.722195124
180.572,257.659582622
180.587,257.581039796
180.602,257.502185992
180.617,257.423017973
180.632,257.34353241
180.647,257.263725937
180.66,257.194298099
180.662,257.183595126
180.677,257.103136476
180.692,257.022346428
180.707,256.941221358
180.722,256.859757569
180.737,256.777951312
180.752,256.695798769
180.767,256.613296044
180.782,256.530439187
180.797,256.447224168
180.812,256.36364691
180.827,256.279703237
180.842,256.195388927
180.857,256.110699676
180.872,256.025631119
180.887,255.940178818
180.902,255.85433826
180.917,255.768104862
180.932,255.681473973
180.947,255.594440867
180.962,255.507000754
180.977,255.419148763
180.992,255.330879964
181.007,255.242189335
181.022,255.153071803
181.037,255.06352222
181.052,254.973535356
181.067,254.88310592
181.082,254.792228544
181.097,254.700897805
181.112,254.609108189
181.127,254.516854138
181.142,254.424129996
181.157,254.330930068
181.172,254.237248581
181.187,254.143079684
181.202,254.048417485
181.217,253.953256016
181.232,253.857589255
181.247,253.761411097
181.262,253.664715409
181.277,253.567495971
181.292,253.469746529
181.307,253.371460765
181.31,253.351738695
181.322,253.272632308
181.337,253.173254741
181.352,253.073321588
181.367,252.972826357
181.382,252.871762468
181.397,252.770123335
181.412,252.667902328
181.427,252.565092763
181.442,252.461687951
181.457,252.357681155
181.472,252.253065627
181.487,252.147834582
181.502,252.041981237
181.517,251.935498779
181.532,251.828380391
181.547,251.720619259
181.562,251.612208555
181.577,251.503141474
181.592,251.393411201
181.607,251.283010955
181.622,251.17193397
181.637,251.060173502
181.652,250.947722855
181.667,250.834575359
181.682,250.720724406
181.697,250.606163417
181.712,250.490885926
181.727,250.374885483
181.742,250.258155758
181.757,250.140690482
181.772,250.022483501
181.787,249.903528764
181.802,249.783820338
181.817,249.663352418
181.832,249.542119342
181.847,249.420115605
181.862,249.297335851
181.877,249.173774912
181.892,249.04942783
181.907,248.924289815
181.922,248.798356336
181.937,248.671623081
181.952,248.544085994
181.967,248.4157413
181.982,248.286585522
181.997,248.156615464
182.012,248.025828304
182.027,247.894221537
182.042,247.761793069
182.057,247.628541181
182.06,247.601791872
182.072,247.494464603
182.087,247.359562507
182.102,247.223834554
182.117,247.087280905
182.132,246.949902288
182.147,246.811700001
182.162,246.67267594
182.177,246.532832661
182.192,246.392173415
182.207,246.250702159
182.222,246.10842366
182.237,245.965343462
182.252,245.821467989
182.267,245.676804573
182.282,245.531361521
182.297,245.385148137
182.312,245.238174835
182.327,245.09045313
182.342,244.941995751
182.357,244.792816703
182.372,244.642931294
182.387,244.492356268
182.402,244.341109824
182.417,244.189211744
182.432,244.036683406
182.447,243.88354796
182.462,243.729830334
182.477,243.575557358
182.492,243.42075789
182.507,243.265462832
182.522,243.109705329
182.537,242.953520784
182.552,242.796947028
182.567,242.640024406
182.582,242.482795879
182.597,242.325307159
182.612,242.167606815
182.627,242.009746381
182.642,241.851780516
182.657,241.693767069
182.672,241.535767249
182.687,241.377845709
182.702,241.2200707
182.717,241.062514175
182.732,240.905251898
182.747,240.74836356
182.762,240.591932916
182.777,240.436047856
182.792,240.280800522
182.807,240.126287396
182.822,239.972609388
182.837,239.819871902
182.852,239.668184937
182.867,239.517663089
182.882,239.368425644
182.897,239.220596591
182.912,239.074304676
182.927,238.929683408
182.942,238.786871101
182.957,238.646010926
182.972,238.507250981
182.987,238.370744444
183.002,238.236649773
183.017,238.105131096
183.032,237.976358815
183.047,237.850510517
183.062,237.727772485
183.077,237.608341748
183.092,237.492429292
183.107,237.380264595
183.122,237.272101999
183.137,237.168229537
183.152,237.068980722
183.167,236.974749654
183.182,236.886009572
183.197,236.803333582
183.212,236.727414888
183.227,236.659080848
183.242,236.599291674
183.257,236.549111804
183.367,236.548377845
183.382,236.597837704
183.397,236.656648068
183.412,236.723767211
183.427,236.798267474
183.442,236.879355983
183.457,236.966371162
183.472,237.058766503
183.487,237.156089951
183.502,237.257963549
183.517,237.364065773
183.532,237.474117317
183.547,237.587870073
183.562,237.70509905
183.577,237.825596471
183.592,237.949167627
183.607,238.075628023
183.622,238.204801434
183.637,238.336518603
183.652,238.470616402
183.667,238.606937302
183.682,238.745329026
183.697,238.885644379
183.712,239.027741082
183.727,239.171481748
183.742,239.316733811
183.757,239.4633695
183.772,239.611265803
183.787,239.760304449
183.802,239.910371838
183.817,240.061359019
183.832,240.213161608
183.847,240.365679714
183.862,240.518817883
183.877,240.67248499
183.892,240.826594145
183.907,240.98106259
183.922,241.135811591
183.937,241.290766343
183.952,241.445855817
183.967,241.60101268
183.982,241.756173147
183.997,241.911276865
184.012,242.066266804
184.027,242.221089117
184.042,242.375693019
184.057,242.530030701
184.072,242.684057146
184.087,242.837730069
184.102,242.99100978
184.117,243.143859075
184.132,243.29624312
184.147,243.448129356
184.162,243.599487391
184.177,243.750288874
184.192,243.900507466
184.207,244.050118666
184.222,244.199099768
184.237,244.347429772
184.252,244.495089274
184.267,244.642060408
184.282,244.788326779
184.297,244.93387334
184.312,245.078686382
184.327,245.222753437
184.342,245.366063189
184.357,245.508605459
184.372,245.650371121
184.387,245.791352039
184.402,245.93154103
184.417,246.070931805
184.432,246.209518908
184.447,246.347297704
184.462,246.484264283
184.477,246.620415476
184.492,246.755748761
184.507,246.890262265
184.522,247.02395472
184.537,247.156825385
184.552,247.288874093
184.56,247.358964065
184.567,247.420101155
184.582,247.550507343
184.597,247.68009389
184.612,247.808862442
184.627,247.936815021
184.642,248.063954029
184.657,248.190282207
184.672,248.315802625
184.687,248.440518643
184.702,248.564433916
184.717,248.687552345
184.732,248.809878104
184.747,248.931415571
184.762,249.05216935
184.777,249.172144254
184.792,249.291345266
184.807,249.40977754
184.822,249.527446402
184.837,249.644357312
184.852,249.760515879
184.867,249.875927817
184.882,249.990598969
184.897,250.104535275
184.912,250.217742773
184.927,250.330227578
184.942,250.441995892
184.957,250.553053982
184.972,250.663408171
184.987,250.773064838
185.002,250.88203041
185.017,250.990311352
185.032,251.097914169
185.047,251.204845377
185.062,251.311111532
185.077,251.416719193
185.092,251.521674932
185.107,251.62598534
185.122,251.729656986
185.137,251.832696455
185.152,251.935110309
185.167,252.036905118
185.182,252.138087424
185.197,252.238663753
185.212,252.338640595
185.227,252.438024438
185.242,252.536821725
185.257,252.635038879
185.272,252.732682276
185.287,252.829758261
185.302,252.926273142
185.31,252.97752048
185.317,253.02223318
185.332,253.11764459
185.347,253.21251356
185.362,253.306846202
185.377,253.4006486
185.392,253.493926771
185.407,253.586686693
185.422,253.678934281
185.437,253.770675397
185.452,253.861915843
185.467,253.95266137
185.482,254.042917661
185.497,254.132690344
185.512,254.221984992
185.527,254.310807101
185.542,254.399162108
185.557,254.487055405
185.572,254.574492298
185.587,254.661478042
185.602,254.748017816
185.617,254.834116752
185.632,254.919779895
185.647,255.005012232
185.662,255.089818703
185.677,255.174204151
185.692,255.258173382
185.707,255.341731109
185.722,255.424881994
185.737,255.507630645
185.752,255.589981574
185.767,255.67193925
185.782,255.753508083
185.797,255.834692389
185.812,255.915496443
185.827,255.995924448
185.842,256.075980542
185.857,256.155668804
185.872,256.234993245
185.887,256.313957804
185.902,256.39256638
185.917,256.470822789
185.932,256.548730802
185.947,256.626294115
185.96,256.693239635
185.962,256.70351636
185.977,256.780401136
185.992,256.856951954
186.007,256.933172283
186.022,257.009065518
186.037,257.084635012
186.052,257.159884056
186.06,257.199886971
186.067,257.234815885
186.082,257.309433683
186.097,257.383740559
186.112,257.45773959
186.127,257.531433793
186.142,257.604826135
186.157,257.67791951
186.172,257.750716793
186.187,257.823220795
186.202,257.895434264
186.217,257.967359911
186.232,258.039000407
186.247,258.110358351
186.262,258.181436315
186.277,258.252236815
186.292,258.322762335
186.307,258.393015287
186.322,258.462998072
186.337,258.532713014
186.352,258.602162432
186.367,258.671348563
186.382,258.740273632
186.397,258.808939804
186.412,258.877349222
186.427,258.945503975
186.442,259.013406123
186.457,259.081057681
186.472,259.148460621
186.487,259.215616908
186.502,259.282528435
186.517,259.349197082
186.532,259.415624682
186.547,259.481813038
186.562,259.547763931
186.577,259.613479095
186.592,259.678960241
186.607,259.744209028
186.622,259.809227125
186.637,259.874016133
186.652,259.938577639
186.667,260.002913209
186.682,260.067024362
186.697,260.130912588
186.71,260.186103224
186.712,260.194579387
186.727,260.258026182
186.742,260.321254416
186.757,260.384265466
186.772,260.447060703
186.787,260.509641486
186.802,260.572009132
186.817,260.634164941
186.832,260.696110184
186.847,260.757846125
186.862,260.819373985
186.877,260.880694987
186.892,260.94181031
186.907,261.002721135
186.922,261.0634286
186.937,261.123933845
186.952,261.184237979
186.967,261.244342099
186.982,261.304247275
186.997,261.363954563
187.012,261.423465011
187.027,261.482779636
187.042,261.541899443
187.057,261.60082543
187.072,261.65955857
187.087,261.718099817
187.102,261.77645012
187.117,261.834610413
187.132,261.892581607
187.147,261.950364614
187.162,262.007960309
187.177,262.065369581
187.192,262.122593279
187.207,262.179632264
187.222,262.236487374
187.237,262.293159433
187.252,262.349649254
187.267,262.405957643
187.282,262.462085392
187.297,262.518033286
187.312,262.573802092
187.327,262.629392571
187.342,262.684805485
187.357,262.740041559
187.372,262.795101538
187.387,262.849986137
187.402,262.904696077
187.417,262.959232058
187.432,263.013594778
187.447,263.067784942
187.46,263.114610674
187.462,263.121803207
187.477,263.175650257
187.492,263.229326762
187.507,263.28283337
187.522,263.336170743
187.537,263.389339517
187.552,263.442340336
187.567,263.495173826
187.582,263.547840611
187.597,263.600341316
187.612,263.65267655
187.627,263.704846916
187.642,263.756853019
187.657,263.808695448
187.672,263.860374799
187.687,263.911891643
187.702,263.963246578
187.717,264.014440174
187.732,264.065472985
187.747,264.116345591
187.762,264.167058553
187.777,264.217612409
187.792,264.268007723
187.807,264.318245041
187.822,264.36832491
187.837,264.418247855
187.852,264.468014426
187.867,264.517625147
187.882,264.567080538
187.897,264.616381135
187.912,264.665527452
187.927,264.714520005
187.942,264.76335932
187.957,264.812045887
187.972,264.860580221
187.987,264.90896283
188.002,264.957194219
188.017,265.005274877
188.032,265.053205302
188.047,265.100985984
188.062,265.148617423
188.077,265.196100096
188.092,265.243434492
188.107,265.290621102
188.122,265.33766039
188.137,265.384552842
188.152,265.431298934
188.167,265.477899138
188.182,265.524353922
188.197,265.570663758
188.21,265.610682068
188.212,265.616829113
188.227,265.662850456
188.242,265.708728243
188.257,265.754462935
188.272,265.800054995
188.287,265.845504875
188.302,265.890813036
188.317,265.935979926
188.332,265.981006005
188.347,266.025891714
188.362,266.070637509
188.377,266.11524383
188.392,266.159711122
188.407,266.204039839
188.422,266.248230417
188.437,266.292283293
188.452,266.336198907
188.467,266.379977705
188.482,266.423620112
188.497,266.467126574
188.512,266.510497516
188.527,266.553733375
188.542,266.596834571
188.557,266.639801557
188.572,266.682634737
188.587,266.725334547
188.602,266.767901424
188.617,266.810335776
188.632,266.85263803
188.647,266.894808618
188.66,266.931250275
188.662,266.936847947
188.677,266.97875645
188.692,267.020534541
188.707,267.062182629
188.722,267.103701142
188.737,267.145090485
