# 78954 TBPB Grantley Adams Observations at 12Z 27 Dec 2019
Frequency [GHz],TB
175.31,284.619446646
175.322,284.604733703
175.337,284.58627731
175.352,284.567748276
175.367,284.549146403
175.382,284.53047149
175.397,284.511723335
175.412,284.492901731
175.427,284.474006472
175.442,284.455037348
175.457,284.435994145
175.472,284.416876648
175.487,284.39768464
175.502,284.3784179
175.517,284.359076204
175.532,284.339659328
175.547,284.320167041
175.562,284.300599114
175.577,284.280955311
175.592,284.261235396
175.607,284.241439129
175.622,284.221566266
175.637,284.201616562
175.652,284.181589768
175.667,284.161485633
175.682,284.1413039
175.697,284.121044313
175.712,284.100706608
175.727,284.080290523
175.742,284.05979579
175.757,284.039222136
175.772,284.018569289
175.787,283.99783697
175.802,283.977024898
175.817,283.956132788
175.832,283.935160352
175.847,283.914107299
175.862,283.892973334
175.877,283.871758157
175.892,283.850461466
175.907,283.829082955
175.922,283.807622314
175.937,283.786079229
175.952,283.764453383
175.967,283.742744453
175.982,283.720952116
175.997,283.69907604
176.012,283.677115894
176.027,283.655071339
176.042,283.632942033
176.057,283.610727632
176.072,283.588427786
176.087,283.566042139
176.102,283.543570334
176.117,283.521012008
176.132,283.498366793
176.147,283.475634319
176.162,283.452814209
176.177,283.429906082
176.192,283.406909554
176.207,283.383824234
176.222,283.360649728
176.237,283.337385637
176.252,283.314031556
176.267,283.290587078
176.282,283.267051789
176.297,283.243425269
176.31,283.22287483
176.312,283.219707096
176.327,283.195896841
176.342,283.17199407
176.357,283.147998344
176.372,283.12390922
176.387,283.099726249
176.402,283.075448977
176.417,283.051076942
176.432,283.026609681
176.447,283.002046723
176.46,282.98068105
176.462,282.977387592
176.477,282.952631807
176.492,282.927778879
176.507,282.902828318
176.522,282.877779623
176.537,282.852632291
176.552,282.827385813
176.567,282.802039671
176.582,282.776593344
176.597,282.751046305
176.612,282.72539802
176.627,282.699647949
176.642,282.673795546
176.657,282.647840258
176.672,282.621781528
176.687,282.59561879
176.702,282.569351474
176.717,282.542979002
176.732,282.516500789
176.747,282.489916246
176.762,282.463224775
176.777,282.436425773
176.792,282.409518628
176.807,282.382502724
176.822,282.355377436
176.837,282.328142133
176.852,282.300796178
176.867,282.273338925
176.882,282.245769721
176.897,282.218087909
176.912,282.190292821
176.927,282.162383783
176.942,282.134360115
176.957,282.106221127
176.972,282.077966125
176.987,282.049594403
177.002,282.021105252
177.017,281.992497953
177.032,281.963771778
177.047,281.934925994
177.062,281.905959858
177.077,281.876872621
177.092,281.847663524
177.107,281.818331802
177.122,281.788876679
177.137,281.759297373
177.152,281.729593094
177.167,281.699763043
177.182,281.669806411
177.197,281.639722383
177.21,281.613545872
177.212,281.609510134
177.227,281.579168832
177.242,281.548697634
177.257,281.518095689
177.272,281.487362137
177.287,281.456496112
177.302,281.425496734
177.31,281.408908901
177.317,281.394363118
177.332,281.363094367
177.347,281.331689576
177.362,281.300147833
177.377,281.268468212
177.392,281.23664978
177.407,281.204691596
177.422,281.172592706
177.437,281.140352149
177.452,281.107968953
177.467,281.075442136
177.482,281.042770706
177.497,281.009953663
177.512,280.976989994
177.527,280.943878677
177.542,280.91061868
177.557,280.87720896
177.572,280.843648465
177.587,280.80993613
177.602,280.776070882
177.617,280.742051635
177.632,280.707877293
177.647,280.67354675
177.66,280.6436664
177.662,280.639058888
177.677,280.604412578
177.692,280.569606681
177.707,280.534640044
177.722,280.499511505
177.737,280.46421989
177.752,280.428764014
177.767,280.393142678
177.782,280.357354674
177.797,280.321398781
177.812,280.285273766
177.827,280.248978384
177.842,280.212511378
177.857,280.175871477
177.872,280.139057402
177.887,280.102067856
177.902,280.064901534
177.917,280.027557116
177.932,279.990033269
177.947,279.952328649
177.96,279.919504036
177.962,279.914441897
177.977,279.876371642
177.992,279.838116499
178.007,279.79967507
178.022,279.761045945
178.037,279.722227698
178.052,279.683218891
178.067,279.64401807
178.082,279.604623772
178.097,279.565034513
178.112,279.525248801
178.127,279.485265127
178.142,279.445081967
178.157,279.404697785
178.172,279.364111026
178.187,279.323320126
178.202,279.282323501
178.217,279.241119555
178.232,279.199706676
178.247,279.158083237
178.262,279.116247594
178.277,279.07419809
178.292,279.031933051
178.307,278.989450787
178.322,278.946749593
178.337,278.903827746
178.352,278.860683509
178.367,278.817315128
178.382,278.773720832
178.397,278.729898834
178.41,278.69173419
178.412,278.68584733
178.427,278.641564499
178.442,278.597048502
178.457,278.552297484
178.472,278.507309574
178.487,278.462082881
178.502,278.416615497
178.517,278.370905497
178.532,278.324950938
178.547,278.278749858
178.562,278.232300277
178.577,278.185600197
178.592,278.138647602
178.607,278.091440457
178.622,278.043976706
178.637,277.996254277
178.652,277.948271077
178.667,277.900024994
178.682,277.851513898
178.697,277.802735637
178.712,277.75368804
178.727,277.704368917
178.742,277.654776056
178.757,277.604907226
178.772,277.554760174
178.787,277.504332629
178.802,277.453622297
178.817,277.402626864
178.832,277.351343993
178.847,277.299771327
178.862,277.247906488
178.877,277.195747076
178.892,277.143290667
178.907,277.090534818
178.922,277.037477061
178.937,276.984114908
178.952,276.930445846
178.967,276.876467341
178.982,276.822176835
178.997,276.767571746
179.012,276.712649471
179.027,276.657407382
179.042,276.601842827
179.057,276.54595313
179.072,276.489735591
179.087,276.433187486
179.102,276.376306066
179.117,276.319088559
179.132,276.261532165
179.147,276.20363406
179.16,276.153177097
179.162,276.145391397
179.177,276.086801301
179.192,276.027860873
179.207,275.968567185
179.222,275.908917286
179.237,275.848908198
179.252,275.788536917
179.267,275.727800411
179.282,275.666695621
179.297,275.605219464
179.312,275.543368825
179.327,275.481140566
179.342,275.418531518
179.357,275.355538488
179.372,275.29215825
179.387,275.228387554
179.402,275.16422312
179.417,275.09966164
179.432,275.034699776
179.447,274.969334162
179.462,274.903561403
179.477,274.837378075
179.492,274.770780723
179.507,274.703765864
179.522,274.636329985
179.537,274.568469541
179.552,274.500180959
179.567,274.431460636
179.582,274.362304937
179.597,274.292710196
179.612,274.222672717
179.627,274.152188775
179.642,274.08125461
179.657,274.009866433
179.672,273.938020424
179.687,273.86571273
179.702,273.792939466
179.717,273.719696718
179.732,273.645980538
179.747,273.571786944
179.762,273.497111926
179.777,273.421951439
179.792,273.346301407
179.807,273.270157719
179.822,273.193516234
179.837,273.116372779
179.852,273.038723144
179.867,272.960563091
179.882,272.881888346
179.897,272.802694604
179.91,272.733636864
179.912,272.722977526
179.927,272.64273274
179.942,272.561955842
179.957,272.480642393
179.972,272.398787923
179.987,272.316387927
180.002,272.23343787
180.017,272.149933181
180.032,272.065869257
180.047,271.981241463
180.062,271.89604513
180.077,271.810275557
180.092,271.72392801
180.107,271.636997723
180.122,271.549479896
180.137,271.461369698
180.152,271.372662267
180.167,271.283352706
180.182,271.193436088
180.197,271.102907455
180.212,271.011761816
180.227,270.91999415
180.242,270.827599405
180.257,270.734572496
180.272,270.640908311
180.287,270.546601707
180.302,270.451647509
180.317,270.356040515
180.332,270.259775494
180.347,270.162847183
180.362,270.065250294
180.377,269.966979511
180.392,269.868029489
180.407,269.768394856
180.422,269.668070215
180.437,269.567050142
180.452,269.465329187
180.467,269.362901875
180.482,269.259762709
180.497,269.155906164
180.512,269.051326697
180.527,268.946018737
180.542,268.839976696
180.557,268.733194961
180.56,268.711749355
180.572,268.6256679
180.587,268.517389863
180.602,268.408355177
180.617,268.298558154
180.632,268.187993088
180.647,268.076654255
180.66,267.979530273
180.662,267.964535917
180.677,267.851632318
180.692,267.737937691
180.707,267.623446255
180.722,267.508152215
180.737,267.392049767
180.752,267.275133095
180.767,267.157396373
180.782,267.038833767
180.797,266.919439437
180.812,266.799207533
180.827,266.678132203
180.842,266.556207587
180.857,266.433427823
180.872,266.309787047
180.887,266.185279391
180.902,266.059898988
180.917,265.933639971
180.932,265.806496475
180.947,265.678462635
180.962,265.54953259
180.977,265.419700484
180.992,265.288960465
181.007,265.157306686
181.022,265.024733309
181.037,264.891234501
181.052,264.756804437
181.067,264.621437302
181.082,264.485127291
181.097,264.347868606
181.112,264.209655462
181.127,264.070482084
181.142,263.930342708
181.157,263.789231582
181.172,263.647142965
181.187,263.504071127
181.202,263.360010352
181.217,263.214954932
181.232,263.068899172
181.247,262.921837386
181.262,262.7737639
181.277,262.624673047
181.292,262.474559169
181.307,262.323416614
181.31,262.293064165
181.322,262.171239736
181.337,262.018022892
181.352,261.863760442
181.367,261.708446745
181.382,261.552076158
181.397,261.394643033
181.412,261.236141713
181.427,261.07656653
181.442,260.915911802
181.457,260.754171827
181.472,260.59134088
181.487,260.427413209
181.502,260.262383029
181.517,260.096244517
181.532,259.928991804
181.547,259.760618974
181.562,259.591120049
181.577,259.420488991
181.592,259.248719684
181.607,259.075805936
181.622,258.901741461
181.637,258.726519874
181.652,258.550134681
181.667,258.372579265
181.682,258.193846878
181.697,258.013930625
181.712,257.832823453
181.727,257.650518138
181.742,257.467007268
181.757,257.282283229
181.772,257.096338188
181.787,256.909164074
181.802,256.720752566
181.817,256.531095064
181.832,256.340182677
181.847,256.148006198
181.862,255.954556081
181.877,255.759822421
181.892,255.563794924
181.907,255.366462884
181.922,255.167815154
181.937,254.96784012
181.952,254.766525667
181.967,254.56385915
181.982,254.359827356
181.997,254.154416474
182.012,253.947612055
182.027,253.739398974
182.042,253.529761384
182.057,253.318682682
182.06,253.27629249
182.072,253.106145452
182.087,252.892131423
182.102,252.676621418
182.117,252.459595295
182.132,252.241031891
182.147,252.02090896
182.162,251.799203109
182.177,251.575889723
182.192,251.350942896
182.207,251.124335342
182.222,250.896038315
182.237,250.666021511
182.252,250.434252968
182.267,250.200698953
182.282,249.965323847
182.297,249.728090009
182.312,249.488957636
182.327,249.247884604
182.342,249.004826301
182.357,248.759735429
182.372,248.512561803
182.387,248.263252114
182.402,248.01174967
182.417,247.757994117
182.432,247.501921113
182.447,247.243461975
182.462,246.982543281
182.477,246.719086425
182.492,246.453007114
182.507,246.184214808
182.522,245.912612085
182.537,245.638093931
182.552,245.360546934
182.567,245.079848378
182.582,244.795865214
182.597,244.508452903
182.612,244.217454099
182.627,243.922697164
182.642,243.623994482
182.657,243.321140545
182.672,243.013909787
182.687,242.702054127
182.702,242.38530018
182.717,242.063346099
182.732,241.735857994
182.747,241.402465878
182.762,241.062759091
182.777,240.716281125
182.792,240.362523803
182.807,240.000920753
182.822,239.630840104
182.837,239.25157638
182.852,238.862341562
182.867,238.462255338
182.882,238.050334617
182.897,237.625482492
182.912,237.186476967
182.927,236.731959995
182.942,236.260427701
182.957,235.770223152
182.972,235.259533734
182.987,234.726396221
183.002,234.16871413
183.017,233.584294014
183.032,232.9709104
183.047,232.326413178
183.062,231.648896981
183.077,230.936959527
183.092,230.190085256
183.107,229.409200983
183.122,228.597459195
183.137,227.761305256
183.152,226.911862056
183.167,226.066588844
183.182,225.25098416
183.197,224.499722073
183.212,223.855964778
183.227,223.366815142
183.242,223.072803169
183.257,222.992004269
183.367,222.988409357
183.382,223.118921764
183.397,223.45978121
183.412,223.985972292
183.427,224.654330139
183.442,225.41834035
183.457,226.236988688
183.472,227.078112999
183.487,227.918483808
183.502,228.742455254
183.517,229.540250576
183.532,230.306372415
183.547,231.03830663
183.562,231.735536727
183.577,232.398826873
183.592,233.029716625
183.607,233.630174048
183.622,234.202363437
183.637,234.74849405
183.652,235.270725069
183.667,235.771108939
183.682,236.251560508
183.697,236.713843164
183.712,237.159565908
183.727,237.590187239
183.742,238.007023058
183.757,238.411256719
183.772,238.803950032
183.787,239.186054422
183.802,239.558421773
183.817,239.921814662
183.832,240.276915857
183.847,240.62433699
183.862,240.964626416
183.877,241.298276275
183.892,241.625728807
183.907,241.94738198
183.922,242.26359448
183.937,242.574690135
183.952,242.880961826
183.967,243.182674946
183.982,243.480070446
183.997,243.773367527
184.012,244.062766014
184.027,244.348448445
184.042,244.630581921
184.057,244.909319732
184.072,245.184802793
184.087,245.457160916
184.102,245.726513927
184.117,245.992972663
184.132,246.256639842
184.147,246.517610848
184.162,246.775974413
184.177,247.031813234
184.192,247.285204513
184.207,247.536220442
184.222,247.784928634
184.237,248.031392508
184.252,248.275671633
184.267,248.517822034
184.282,248.757896471
184.297,248.995944686
184.312,249.232013628
184.327,249.466147653
184.342,249.698388709
184.357,249.928776502
184.372,250.157348643
184.387,250.384140793
184.402,250.609186779
184.417,250.83251872
184.432,251.054167122
184.447,251.274160986
184.462,251.492527888
184.477,251.709294072
184.492,251.924484521
184.507,252.138123031
184.522,252.350232278
184.537,252.560833883
184.552,252.769948468
184.56,252.880875053
184.567,252.977595714
184.582,253.18379441
184.597,253.388562505
184.612,253.591917155
184.627,253.793874763
184.642,253.994451023
184.657,254.193660961
184.672,254.391518966
184.687,254.588038836
184.702,254.7832338
184.717,254.977116557
184.732,255.169699307
184.747,255.360993776
184.762,255.551011246
184.777,255.739762579
184.792,255.927258247
184.807,256.11350835
184.822,256.298522641
184.837,256.48231055
184.852,256.6648812
184.867,256.84624343
184.882,257.026405813
184.897,257.20537667
184.912,257.383164092
184.927,257.559775955
184.942,257.73521993
184.957,257.909503504
184.972,258.082633989
184.987,258.254618536
185.002,258.425464148
185.017,258.595177692
185.032,258.763765907
185.047,258.931235416
185.062,259.097592736
185.077,259.262844286
185.092,259.426996396
185.107,259.590055314
185.122,259.752027216
185.137,259.91291821
185.152,260.072734344
185.167,260.23148161
185.182,260.389165955
185.197,260.545793281
185.212,260.701369449
185.227,260.85590029
185.242,261.009391602
185.257,261.161849159
185.272,261.313278712
185.287,261.463685991
185.302,261.613076712
185.31,261.692338073
185.317,261.761456577
185.332,261.908831274
185.347,262.055206485
185.362,262.200587882
185.377,262.344981135
185.392,262.488391907
185.407,262.630825859
185.422,262.77228865
185.437,262.912785941
185.452,263.052323391
185.467,263.19090666
185.482,263.328541411
185.497,263.465233308
185.512,263.600988018
185.527,263.735811209
185.542,263.869708554
185.557,264.002685726
185.572,264.134748402
185.587,264.265902262
185.602,264.396152986
185.617,264.525506258
185.632,264.653967762
185.647,264.781543184
185.662,264.908238208
185.677,265.034058522
185.692,265.15900981
185.707,265.283097757
185.722,265.406328044
185.737,265.528706351
185.752,265.650238356
185.767,265.77092973
185.782,265.890786142
185.797,266.009813254
185.812,266.128016723
185.827,266.245402199
185.842,266.361975323
185.857,266.477741729
185.872,266.592707042
185.887,266.706876876
185.902,266.820256834
185.917,266.932852509
185.932,267.044669481
185.947,267.155713316
185.96,267.251330217
185.962,267.265989567
185.977,267.375503774
185.992,267.484261458
186.007,267.592268128
186.022,267.699529274
186.037,267.806050369
186.052,267.911836869
186.06,267.967957845
186.067,268.016894209
186.082,268.121227807
186.097,268.224843061
186.112,268.327745346
186.127,268.429940017
186.142,268.53143241
186.157,268.632227834
186.172,268.732331578
186.187,268.831748907
186.202,268.930485063
186.217,269.028545261
186.232,269.125934694
186.247,269.222658528
186.262,269.318721904
186.277,269.414129936
186.292,269.508887712
186.307,269.603000293
186.322,269.696472713
186.337,269.789309979
186.352,269.881517067
186.367,269.973098927
186.382,270.064060481
186.397,270.154406621
186.412,270.24414221
186.427,270.333272081
186.442,270.421801039
186.457,270.509733857
186.472,270.59707528
186.487,270.683830022
186.502,270.770002765
186.517,270.855598163
186.532,270.940620839
186.547,271.025075382
186.562,271.108966355
186.577,271.192298285
186.592,271.275075672
186.607,271.357302982
186.622,271.438984651
186.637,271.520125083
186.652,271.600728652
186.667,271.680799697
186.682,271.76034253
186.697,271.839361429
186.71,271.907423954
186.712,271.917860641
186.727,271.995844382
186.742,272.073316835
186.757,272.150282153
186.772,272.226744458
186.787,272.30270784
186.802,272.378176356
186.817,272.453154035
186.832,272.527644872
186.847,272.601652833
186.862,272.675181851
186.877,272.74823583
186.892,272.820818641
186.907,272.892934126
186.922,272.964586095
186.937,273.035778329
186.952,273.106514578
186.967,273.176798559
186.982,273.246633964
186.997,273.31602445
187.012,273.384973647
187.027,273.453485153
187.042,273.521562539
187.057,273.589209345
187.072,273.65642908
187.087,273.723225227
187.102,273.789601238
187.117,273.855560535
187.132,273.921106515
187.147,273.986242542
187.162,274.050971954
187.177,274.11529806
187.192,274.179224142
187.207,274.242753453
187.222,274.305889219
187.237,274.368634636
187.252,274.430992876
187.267,274.492967082
187.282,274.55456037
187.297,274.615775829
187.312,274.676616522
187.327,274.737085485
187.342,274.797185728
187.357,274.856920235
187.372,274.916291962
187.387,274.975303843
187.402,275.033958783
187.417,275.092259664
187.432,275.15020934
187.447,275.207810644
187.46,275.257452147
187.462,275.265066379
187.477,275.321979329
187.492,275.37855225
187.507,275.434787873
187.522,275.490688909
187.537,275.54625804
187.552,275.601497928
187.567,275.65641121
187.582,275.7110005
187.597,275.765268389
187.612,275.819217445
187.627,275.872850212
187.642,275.926169214
187.657,275.979176949
187.672,276.031875897
187.687,276.084268512
187.702,276.136357229
187.717,276.18814446
187.732,276.239632595
187.747,276.290824005
187.762,276.341721036
187.777,276.392326017
187.792,276.442641253
187.807,276.492669032
187.822,276.542411617
187.837,276.591871255
187.852,276.641050171
187.867,276.689950569
187.882,276.738574634
187.897,276.786924534
187.912,276.835002414
187.927,276.882810401
187.942,276.930350603
187.957,276.97762511
187.972,277.024635993
187.987,277.071385302
188.002,277.117875071
188.017,277.164107317
188.032,277.210084035
188.047,277.255807204
188.062,277.301278787
188.077,277.346500727
188.092,277.391474951
188.107,277.436203366
188.122,277.480687866
188.137,277.524930324
188.152,277.5689326
188.167,277.612696533
188.182,277.65622395
188.197,277.699516657
188.21,277.736848536
188.212,277.742576448
188.227,277.785405097
188.242,277.828004366
188.257,277.870375998
188.272,277.912521722
188.287,277.954443249
188.302,277.996142279
188.317,278.037620493
188.332,278.078879558
188.347,278.119921126
188.362,278.160746834
188.377,278.201358306
188.392,278.241757148
188.407,278.281944954
188.422,278.321923303
188.437,278.36169376
188.452,278.401257877
188.467,278.440617189
188.482,278.479773219
188.497,278.518727477
188.512,278.55748146
188.527,278.596036648
188.542,278.634394511
188.557,278.672556504
188.572,278.710524071
188.587,278.748298641
188.602,278.785881631
188.617,278.823274444
188.632,278.860478473
188.647,278.897495096
188.66,278.929425635
188.662,278.934325679
188.677,278.970971577
188.692,279.007434133
188.707,279.043714675
188.722,279.079814522
188.737,279.115734981
