# 01004 ENAS Ny-Alesund Ii Observations at 12Z 27 Dec 2019
Frequency [GHz],TB
175.31,244.328297348
175.322,244.384309656
175.337,244.454298886
175.352,244.524257626
175.367,244.594184332
175.382,244.664077442
175.397,244.733935389
175.412,244.803756587
175.427,244.873539439
175.442,244.943282334
175.457,245.012983648
175.472,245.082641744
175.487,245.152254971
175.502,245.221821669
175.517,245.291340158
175.532,245.360808748
175.547,245.430225735
175.562,245.499589404
175.577,245.568898023
175.592,245.638149849
175.607,245.707343122
175.622,245.776476073
175.637,245.845546917
175.652,245.914553855
175.667,245.983495077
175.682,246.052368754
175.697,246.121173052
175.712,246.189906113
175.727,246.258566074
175.742,246.327151054
175.757,246.39565916
175.772,246.464088481
175.787,246.532437099
175.802,246.60070308
175.817,246.668884471
175.832,246.736979314
175.847,246.804985632
175.862,246.87290143
175.877,246.940724712
175.892,247.008453455
175.907,247.076085632
175.922,247.143619195
175.937,247.211052086
175.952,247.278382234
175.967,247.345607553
175.982,247.412725943
175.997,247.479735291
176.012,247.54663347
176.027,247.61341834
176.042,247.680087748
176.057,247.746639523
176.072,247.813071488
176.087,247.879381448
176.102,247.945567192
176.117,248.011626503
176.132,248.077557141
176.147,248.143356864
176.162,248.209023407
176.177,248.274554499
176.192,248.339947847
176.207,248.405201152
176.222,248.470312105
176.237,248.535278372
176.252,248.60009762
176.267,248.664767491
176.282,248.729285622
176.297,248.793649638
176.31,248.849305268
176.312,248.85785714
176.327,248.921905732
176.342,248.985792996
176.357,249.049516501
176.372,249.11307381
176.387,249.176462469
176.402,249.239680012
176.417,249.302723963
176.432,249.365591835
176.447,249.428281124
176.46,249.482465446
176.462,249.490789318
176.477,249.553113895
176.492,249.615252317
176.507,249.677202038
176.522,249.738960501
176.537,249.800525136
176.552,249.861893362
176.567,249.923062587
176.582,249.984030212
176.597,250.044793623
176.612,250.105350197
176.627,250.165697299
176.642,250.22583229
176.657,250.285752515
176.672,250.345455308
176.687,250.404938001
176.702,250.464197911
176.717,250.523232344
176.732,250.582038601
176.747,250.640613975
176.762,250.698955744
176.777,250.757061185
176.792,250.81492756
176.807,250.872552131
176.822,250.92993214
176.837,250.987064835
176.852,251.043947449
176.867,251.100577203
176.882,251.156951323
176.897,251.21306702
176.912,251.268921499
176.927,251.324511963
176.942,251.379835603
176.957,251.43488961
176.972,251.489671165
176.987,251.544177445
177.002,251.598405624
177.017,251.652352869
177.032,251.706016342
177.047,251.759393204
177.062,251.812480609
177.077,251.865275709
177.092,251.917775651
177.107,251.969977582
177.122,252.021878643
177.137,252.073475978
177.152,252.12476672
177.167,252.175748008
177.182,252.226416976
177.197,252.27677076
177.21,252.32015354
177.212,252.326806493
177.227,252.376521306
177.242,252.425912333
177.257,252.474976707
177.272,252.523711564
177.287,252.572114037
177.302,252.620181263
177.31,252.64567905
177.317,252.667910381
177.332,252.715298531
177.347,252.762342856
177.362,252.809040503
177.377,252.855388622
177.392,252.901384364
177.407,252.947024892
177.422,252.992307364
177.437,253.037228948
177.452,253.081786818
177.467,253.125978152
177.482,253.169800136
177.497,253.213249964
177.512,253.256324831
177.527,253.299021948
177.542,253.341338528
177.557,253.383271796
177.572,253.424818986
177.587,253.465977338
177.602,253.506744108
177.617,253.547116555
177.632,253.587091958
177.647,253.6266676
177.66,253.66064104
177.662,253.66584078
177.677,253.704608808
177.692,253.742969008
177.707,253.780918715
177.722,253.818455282
177.737,253.855576075
177.752,253.892278473
177.767,253.928559874
177.782,253.96441769
177.797,253.99984935
177.812,254.034852299
177.827,254.069424004
177.842,254.103561946
177.857,254.137263627
177.872,254.170526568
177.887,254.203348308
177.902,254.235726412
177.917,254.267658459
177.932,254.299142054
177.947,254.330174823
177.96,254.356703405
177.962,254.360754416
177.977,254.390878505
177.992,254.420544784
178.007,254.449750977
178.022,254.47849483
178.037,254.506774112
178.052,254.534586622
178.067,254.561930183
178.082,254.588802648
178.097,254.615201897
178.112,254.641125837
178.127,254.666572406
178.142,254.691539571
178.157,254.716025329
178.172,254.740027708
178.187,254.763544769
178.202,254.786574599
178.217,254.809115325
178.232,254.831165103
178.247,254.852722124
178.262,254.873784613
178.277,254.894350829
178.292,254.914419065
178.307,254.933987657
178.322,254.953054968
178.337,254.971619402
178.352,254.989679402
178.367,255.007233451
178.382,255.024280063
178.397,255.040817796
178.41,255.054737788
178.412,255.05684525
178.427,255.072361061
178.442,255.087363908
178.457,255.10185251
178.472,255.115825628
178.487,255.129282065
178.502,255.14222067
178.517,255.154640329
178.532,255.166539977
178.547,255.177918591
178.562,255.188775193
178.577,255.199108848
178.592,255.20891867
178.607,255.218203817
178.622,255.226963492
178.637,255.235196949
178.652,255.242903483
178.667,255.250082442
178.682,255.25673322
178.697,255.262855257
178.712,255.268448044
178.727,255.273511121
178.742,255.278044077
178.757,255.282046547
178.772,255.285518223
178.787,255.288458841
178.802,255.29086819
178.817,255.292746109
178.832,255.294092487
178.847,255.294907266
178.862,255.295190438
178.877,255.294942048
178.892,255.294162189
178.907,255.29285101
178.922,255.291008711
178.937,255.28863554
178.952,255.285731803
178.967,255.282297855
178.982,255.278334105
178.997,255.273841011
179.012,255.268819087
179.027,255.263268897
179.042,255.25719106
179.057,255.250586244
179.072,255.243455172
179.087,255.235798617
179.102,255.227617406
179.117,255.218912416
179.132,255.209684579
179.147,255.199934875
179.16,255.191063795
179.162,255.189664336
179.177,255.178874047
179.192,255.167565144
179.207,255.155738812
179.222,255.143396288
179.237,255.13053886
179.252,255.117167861
179.267,255.103284681
179.282,255.08889075
179.297,255.073987556
179.312,255.05857663
179.327,255.042659551
179.342,255.026237947
179.357,255.009313492
179.372,254.991887906
179.387,254.973962957
179.402,254.955540454
179.417,254.936622256
179.432,254.917210262
179.447,254.897306416
179.462,254.876912705
179.477,254.856031157
179.492,254.834663842
179.507,254.81281287
179.522,254.790480393
179.537,254.767668601
179.552,254.744379718
179.567,254.720616015
179.582,254.69637979
179.597,254.671673381
179.612,254.646499161
179.627,254.620859538
179.642,254.59475695
179.657,254.568193868
179.672,254.541172796
179.687,254.513696267
179.702,254.485766842
179.717,254.45738711
179.732,254.42855969
179.747,254.399287223
179.762,254.369572377
179.777,254.339417843
179.792,254.308826337
179.807,254.277800592
179.822,254.246343363
179.837,254.214457427
179.852,254.182145576
179.867,254.14941062
179.882,254.116255382
179.897,254.082682703
179.91,254.053250923
179.912,254.048695435
179.927,254.014296444
179.942,253.979488602
179.957,253.944274796
179.972,253.908657917
179.987,253.872640863
180.002,253.836226542
180.017,253.79941786
180.032,253.762217731
180.047,253.724629066
180.062,253.686654782
180.077,253.648297789
180.092,253.609561
180.107,253.57044732
180.122,253.530959654
180.137,253.491100895
180.152,253.450873934
180.167,253.41028165
180.182,253.369326912
180.197,253.32801258
180.212,253.2863415
180.227,253.244316502
180.242,253.201940405
180.257,253.15921601
180.272,253.116146097
180.287,253.072733433
180.302,253.02898076
180.317,252.984890802
180.332,252.940466258
180.347,252.895709806
180.362,252.850624096
180.377,252.805211755
180.392,252.75947538
180.407,252.713417543
180.422,252.667040785
180.437,252.620347616
180.452,252.573340515
180.467,252.526021929
180.482,252.478394272
180.497,252.430459923
180.512,252.382221224
180.527,252.333680484
180.542,252.284839972
180.557,252.235701919
180.56,252.225838798
180.572,252.186268519
180.587,252.136541926
180.602,252.08652425
180.617,252.036217563
180.632,251.985623894
180.647,251.934745229
180.66,251.890421358
180.662,251.88358351
180.677,251.832140637
180.692,251.780418462
180.707,251.728418794
180.722,251.676143396
180.737,251.623593983
180.752,251.570772224
180.767,251.517679741
180.782,251.464318108
180.797,251.410688851
180.812,251.356793446
180.827,251.302633324
180.842,251.248209862
180.857,251.193524392
180.872,251.138578193
180.887,251.083372497
180.902,251.027908484
180.917,250.972187287
180.932,250.916209985
180.947,250.859977612
180.962,250.803491148
180.977,250.746751525
180.992,250.689759624
181.007,250.632516279
181.022,250.575022271
181.037,250.517278335
181.052,250.459285155
181.067,250.401043367
181.082,250.34255356
181.097,250.283816272
181.112,250.224831997
181.127,250.16560118
181.142,250.10612422
181.157,250.046401469
181.172,249.986433236
181.187,249.926219784
181.202,249.86576133
181.217,249.805058051
181.232,249.74411008
181.247,249.682917509
181.262,249.621480387
181.277,249.559798726
181.292,249.497872496
181.307,249.435701631
181.31,249.423238094
181.322,249.373286028
181.337,249.310625548
181.352,249.247720017
181.367,249.184569227
181.382,249.121172939
181.397,249.057530882
181.412,248.993642756
181.427,248.929508233
181.442,248.865126958
181.457,248.800498551
181.472,248.735622609
181.487,248.670498706
181.502,248.605126398
181.517,248.539505219
181.532,248.473634689
181.547,248.407514314
181.562,248.341143586
181.577,248.274521986
181.592,248.207648988
181.607,248.140524058
181.622,248.07314666
181.637,248.005516253
181.652,247.937632301
181.667,247.869494267
181.682,247.801101623
181.697,247.732453847
181.712,247.663550427
181.727,247.59439087
181.742,247.524974693
181.757,247.455301437
181.772,247.385370664
181.787,247.315181962
181.802,247.244734946
181.817,247.174029265
181.832,247.103064604
181.847,247.031840682
181.862,246.960357266
181.877,246.888614163
181.892,246.816611231
181.907,246.744348382
181.922,246.671825581
181.937,246.599042853
181.952,246.526000288
181.967,246.45269804
181.982,246.379136334
181.997,246.30531547
182.012,246.231235822
182.027,246.156897846
182.042,246.082302082
182.057,246.007449155
182.06,245.992447771
182.072,245.932339781
182.087,245.856974765
182.102,245.781355012
182.117,245.705481517
182.132,245.629355379
182.147,245.552977792
182.162,245.476350054
182.177,245.399473561
182.192,245.322349812
182.207,245.244980403
182.222,245.167367027
182.237,245.089511473
182.252,245.011415618
182.267,244.933081427
182.282,244.85451094
182.297,244.775706267
182.312,244.696669581
182.327,244.6174031
182.342,244.537909074
182.357,244.458189773
182.372,244.378247461
182.387,244.298084376
182.402,244.217702702
182.417,244.13710454
182.432,244.05629187
182.447,243.975266513
182.462,243.894030082
182.477,243.812583931
182.492,243.730929093
182.507,243.649066213
182.522,243.566995469
182.537,243.484716481
182.552,243.402228214
182.567,243.319528864
182.582,243.236615725
182.597,243.153485042
182.612,243.07013185
182.627,242.986549778
182.642,242.902730838
182.657,242.818665179
182.672,242.734340813
182.687,242.64974329
182.702,242.564855347
182.717,242.479656488
182.732,242.394122516
182.747,242.308224989
182.762,242.221930597
182.777,242.135200448
182.792,242.047989233
182.807,241.960244271
182.822,241.871904385
182.837,241.782898597
182.852,241.6931446
182.867,241.602546955
182.882,241.510994955
182.897,241.418360096
182.912,241.32449304
182.927,241.229219969
182.942,241.132338168
182.957,241.033610638
182.972,240.932759466
182.987,240.829457617
183.002,240.723318651
183.017,240.613883745
183.032,240.500605094
183.047,240.382824472
183.062,240.259745151
183.077,240.130394624
183.092,239.993574349
183.107,239.847790854
183.122,239.691159577
183.137,239.521267914
183.152,239.334975944
183.167,239.128119497
183.182,238.895056499
183.197,238.627955605
183.212,238.315653552
183.227,237.941792096
183.242,237.481830965
183.257,236.898890333
183.367,237.044114898
183.382,237.587973312
183.397,238.01967438
183.412,238.372548023
183.427,238.668691446
183.442,238.922907941
183.457,239.145369577
183.472,239.343261794
183.487,239.52179428
183.502,239.684833884
183.517,239.835310897
183.532,239.975486689
183.547,240.107134446
183.562,240.231664065
183.577,240.35021032
183.592,240.46369632
183.607,240.572880001
183.622,240.67838875
183.637,240.78074558
183.652,240.880389184
183.667,240.977689502
183.682,241.072959935
183.697,241.166467039
183.712,241.258438293
183.727,241.349068373
183.742,241.438524266
183.757,241.526949481
183.772,241.614467516
183.787,241.701184756
183.802,241.787192894
183.817,241.872570977
183.832,241.957387125
183.847,242.041700008
183.862,242.125560097
183.877,242.209010739
183.892,242.292089085
183.907,242.374826887
183.922,242.457251193
183.937,242.539384943
183.952,242.621247499
183.967,242.702855096
183.982,242.784221242
183.997,242.86535707
184.012,242.946271644
184.027,243.026972226
184.042,243.107464515
184.057,243.187752853
184.072,243.267840413
184.087,243.347729357
184.102,243.427420979
184.117,243.506915834
184.132,243.586213844
184.147,243.665314403
184.162,243.744216455
184.177,243.822918576
184.192,243.90141904
184.207,243.979715875
184.222,244.057806917
184.237,244.135689857
184.252,244.213362276
184.267,244.290821683
184.282,244.368065544
184.297,244.445091308
184.312,244.521896429
184.327,244.598478389
184.342,244.674834708
184.357,244.750962963
184.372,244.8268608
184.387,244.90252594
184.402,244.977956191
184.417,245.053149453
184.432,245.128103721
184.447,245.202817094
184.462,245.277287773
184.477,245.351514067
184.492,245.425494389
184.507,245.499227262
184.522,245.572711316
184.537,245.645945286
184.552,245.718928012
184.56,245.757749033
184.567,245.791658439
184.582,245.864135614
184.597,245.936358679
184.612,246.008326878
184.627,246.080039544
184.642,246.151496103
184.657,246.222696068
184.672,246.293639038
184.687,246.364324689
184.702,246.434752779
184.717,246.504923138
184.732,246.574835666
184.747,246.644490334
184.762,246.713887172
184.777,246.783026276
184.792,246.851907793
184.807,246.92053193
184.822,246.988898939
184.837,247.057009122
184.852,247.124862827
184.867,247.192460437
184.882,247.259802379
184.897,247.326889112
184.912,247.393721125
184.927,247.46029894
184.942,247.526623103
184.957,247.592694183
184.972,247.658512771
184.987,247.724079476
185.002,247.789394923
185.017,247.85445975
185.032,247.919274607
185.047,247.983840152
185.062,248.048157049
185.077,248.11222597
185.092,248.176047584
185.107,248.239622566
185.122,248.302951587
185.137,248.366035314
185.152,248.428874411
185.167,248.491469534
185.182,248.553821331
185.197,248.615930442
185.212,248.677797493
185.227,248.739423098
185.242,248.800807857
185.257,248.861952354
185.272,248.922857156
185.287,248.983522814
185.302,249.043949856
185.31,249.076080222
185.317,249.104138793
185.332,249.164090111
185.347,249.223804276
185.362,249.283281729
185.377,249.342522888
185.392,249.401528144
185.407,249.460297862
185.422,249.51883238
185.437,249.577132007
185.452,249.635197025
185.467,249.693027686
185.482,249.75062421
185.497,249.80798679
185.512,249.865115584
185.527,249.92201072
185.542,249.978672294
185.557,250.035100368
185.572,250.091294969
185.587,250.147256095
185.602,250.202983706
185.617,250.258477729
185.632,250.313738053
185.647,250.368764539
185.662,250.423557004
185.677,250.478115236
185.692,250.532438984
185.707,250.586527962
185.722,250.640381847
185.737,250.694000281
185.752,250.747382868
185.767,250.800529177
185.782,250.853438741
185.797,250.906111055
185.812,250.958545578
185.827,251.010741734
185.842,251.062698909
185.857,251.114416455
185.872,251.165893685
185.887,251.217129878
185.902,251.268124279
185.917,251.318876092
185.932,251.369384493
185.947,251.419648617
185.96,251.463012574
185.962,251.469667569
185.977,251.519440416
185.992,251.568966191
186.007,251.618243896
186.022,251.667272498
186.037,251.716050932
186.052,251.764578098
186.06,251.790356125
186.067,251.812852867
186.082,251.860874076
186.097,251.908640533
186.112,251.956151013
186.127,252.003404263
186.142,252.050398998
186.157,252.097133906
186.172,252.143607647
186.187,252.189818851
186.202,252.235766122
186.217,252.281448036
186.232,252.326863145
186.247,252.372009975
186.262,252.416887028
186.277,252.461492779
186.292,252.505825684
186.307,252.549884172
186.322,252.593666654
186.337,252.637171519
186.352,252.680397133
186.367,252.723341846
186.382,252.766003988
186.397,252.808381871
186.412,252.850473788
186.427,252.892278019
186.442,252.933792826
186.457,252.975016456
186.472,253.015947146
186.487,253.056583114
186.502,253.096922571
186.517,253.136963713
186.532,253.176704727
186.547,253.216143792
186.562,253.255279074
186.577,253.294108737
186.592,253.332630932
186.607,253.370843808
186.622,253.408745507
186.637,253.446334166
186.652,253.48360792
186.667,253.520564901
186.682,253.557203238
186.697,253.593521062
186.71,253.624735803
186.712,253.6295165
186.727,253.665187684
186.742,253.700532744
186.757,253.735549815
186.772,253.770237034
186.787,253.804592544
186.802,253.838614491
186.817,253.872301031
186.832,253.90565032
186.847,253.938660529
186.862,253.971329833
186.877,254.003656416
186.892,254.035638478
186.907,254.067274222
186.922,254.098561869
186.937,254.129499647
186.952,254.160085803
186.967,254.190318593
186.982,254.220196293
186.997,254.24971719
187.012,254.278879589
187.027,254.307681812
187.042,254.336122199
187.057,254.36419911
187.072,254.391910919
187.087,254.419256027
187.102,254.446232848
187.117,254.472839823
187.132,254.499075413
187.147,254.524938098
187.162,254.550426388
187.177,254.575538808
187.192,254.600273915
187.207,254.624630286
187.222,254.648606525
187.237,254.672201259
187.252,254.695413147
187.267,254.71824087
187.282,254.740683137
187.297,254.762738686
187.312,254.784406285
187.327,254.805684725
187.342,254.826572832
187.357,254.847069458
187.372,254.867173487
187.387,254.886883832
187.402,254.906199438
187.417,254.925119279
187.432,254.943642363
187.447,254.961767727
187.46,254.977153944
187.462,254.979494442
187.477,254.996821609
187.492,255.013748366
187.507,255.030273879
187.522,255.04639735
187.537,255.062118013
187.552,255.077435137
187.567,255.092348021
187.582,255.106856004
187.597,255.120958454
187.612,255.134654775
187.627,255.147944406
187.642,255.160826817
187.657,255.173301522
187.672,255.185368056
187.687,255.197026
187.702,255.208274964
187.717,255.219114597
187.732,255.229544579
187.747,255.239564627
187.762,255.249174493
187.777,255.258373965
187.792,255.267162864
187.807,255.275541047
187.822,255.283508405
187.837,255.291064866
187.852,255.298210391
187.867,255.304944977
187.882,255.311268655
187.897,255.31718149
187.912,255.322683584
187.927,255.327775072
187.942,255.33245612
187.957,255.336726935
187.972,255.340587754
187.987,255.344038844
188.002,255.347080515
188.017,255.349713103
188.032,255.351936979
188.047,255.353752549
188.062,255.35516025
188.077,255.356160554
188.092,255.356753964
188.107,255.356941014
188.122,255.356722271
188.137,255.356098338
188.152,255.355069842
188.167,255.353637447
188.182,255.351801847
188.197,255.349563763
188.21,255.347299112
188.212,255.346923954
188.227,255.343883202
188.242,255.340442323
188.257,255.33660216
188.272,255.33236359
188.287,255.327727513
188.302,255.322694861
188.317,255.317266596
188.332,255.311443704
188.347,255.305227204
188.362,255.298618136
188.377,255.291617573
188.392,255.284226612
188.407,255.276446376
188.422,255.268278016
188.437,255.259722709
188.452,255.250781654
188.467,255.241456078
188.482,255.231747234
188.497,255.221656395
188.512,255.211184861
188.527,255.200333956
188.542,255.189105026
188.557,255.17749944
188.572,255.16551859
188.587,255.15316389
188.602,255.140436777
188.617,255.127338707
188.632,255.113871158
188.647,255.100035627
188.66,255.087748355
188.662,255.085833639
188.677,255.07126673
188.692,255.056336457
188.707,255.041044402
188.722,255.02539216
188.737,255.009381348
