# 48698 WSSS Singapore Observations at 12Z 09 Mar 2019
Frequency [GHz],TB
175.31,281.27701217
175.322,281.258134854
175.337,281.234472766
175.352,281.210737671
175.367,281.186929243
175.382,281.163047159
175.397,281.139091096
175.412,281.115060739
175.427,281.09095573
175.442,281.066775768
175.457,281.042520493
175.472,281.018189577
175.487,280.993782688
175.502,280.969299466
175.517,280.944739585
175.532,280.920102691
175.547,280.895388421
175.562,280.87059643
175.577,280.845726364
175.592,280.820777871
175.607,280.795750569
175.622,280.770644121
175.637,280.74545814
175.652,280.720192264
175.667,280.694846115
175.682,280.669419331
175.697,280.643911522
175.712,280.618322317
175.727,280.592651334
175.742,280.566898157
175.757,280.541062439
175.772,280.515143762
175.787,280.489141735
175.802,280.463055963
175.817,280.436886062
175.832,280.410631598
175.847,280.384292176
175.862,280.357867382
175.877,280.331356807
175.892,280.304760043
175.907,280.278076664
175.922,280.251306246
175.937,280.224448352
175.952,280.197502586
175.967,280.17046848
175.982,280.14334563
175.997,280.116133573
176.012,280.088831883
176.027,280.06144011
176.042,280.033957797
176.057,280.006384507
176.072,279.978719774
176.087,279.950963155
176.102,279.923114183
176.117,279.895172377
176.132,279.867137295
176.147,279.839008448
176.162,279.810785363
176.177,279.782467558
176.192,279.75405457
176.207,279.725545893
176.222,279.696941046
176.237,279.668239536
176.252,279.639440875
176.267,279.610544547
176.282,279.581550062
176.297,279.552456896
176.31,279.527162625
176.312,279.523264563
176.327,279.493972537
176.342,279.464580282
176.357,279.435087311
176.372,279.405493067
176.387,279.375797046
176.402,279.345998692
176.417,279.316097486
176.432,279.286092872
176.447,279.255984315
176.46,279.22980573
176.462,279.225771263
176.477,279.195453158
176.492,279.16502946
176.507,279.134499598
176.522,279.103863006
176.537,279.073119114
176.552,279.042267348
176.567,279.011307145
176.582,278.980237902
176.597,278.949059053
176.612,278.917770002
176.627,278.88637016
176.642,278.854858914
176.657,278.823235679
176.672,278.791499848
176.687,278.759650804
176.702,278.727687936
176.717,278.695610607
176.732,278.663418226
176.747,278.631110154
176.762,278.598685741
176.777,278.566144369
176.792,278.533485398
176.807,278.500708169
176.822,278.467812039
176.837,278.43479636
176.852,278.401660465
176.867,278.368403688
176.882,278.335025366
176.897,278.301524837
176.912,278.267901405
176.927,278.234154393
176.942,278.200283122
176.957,278.166286887
176.972,278.132165
176.987,278.09791676
177.002,278.063541468
177.017,278.029038403
177.032,277.994406843
177.047,277.959646076
177.062,277.924755387
177.077,277.889734022
177.092,277.854581275
177.107,277.819296369
177.122,277.783878577
177.137,277.748327178
177.152,277.712641366
177.167,277.676820409
177.182,277.640863541
177.197,277.604769973
177.21,277.573377721
177.212,277.568538939
177.227,277.53216967
177.242,277.495661359
177.257,277.45901323
177.272,277.422224471
177.287,277.385294288
177.302,277.348221875
177.31,277.328391478
177.317,277.311006409
177.332,277.273647084
177.347,277.236143069
177.362,277.198493537
177.377,277.16069765
177.392,277.122754562
177.407,277.084663448
177.422,277.04642343
177.437,277.008033673
177.452,276.969493287
177.467,276.930801427
177.482,276.891957207
177.497,276.852959761
177.512,276.813808176
177.527,276.774501588
177.542,276.73503909
177.557,276.69541977
177.572,276.655642733
177.587,276.615707064
177.602,276.575611819
177.617,276.535356096
177.632,276.494938961
177.647,276.454359469
177.66,276.419058516
177.662,276.413616662
177.677,276.372709627
177.692,276.331637363
177.707,276.290398927
177.722,276.248993361
177.737,276.207419687
177.752,276.165676897
177.767,276.123764042
177.782,276.081680093
177.797,276.039424081
177.812,275.99699498
177.827,275.954391786
177.842,275.911613473
177.857,275.868659032
177.872,275.825527408
177.887,275.782217594
177.902,275.738728522
177.917,275.695059145
177.932,275.651208409
177.947,275.607175259
177.96,275.568864811
177.962,275.56295862
177.977,275.51855741
177.992,275.473970554
178.007,275.429196953
178.022,275.384235513
178.037,275.339085149
178.052,275.293744725
178.067,275.248213163
178.082,275.202489296
178.097,275.156572014
178.112,275.110460192
178.127,275.064152681
178.142,275.017648324
178.157,274.970945979
178.172,274.924044472
178.187,274.876942641
178.202,274.829639307
178.217,274.782133274
178.232,274.734423384
178.247,274.68650841
178.262,274.638387171
178.277,274.590058438
178.292,274.541521008
178.307,274.492773651
178.322,274.443815145
178.337,274.394644234
178.352,274.345259694
178.367,274.295660257
178.382,274.245844672
178.397,274.195811689
178.41,274.152272905
178.412,274.145560003
178.427,274.095088371
178.442,274.044395465
178.457,273.993480029
178.472,273.942340759
178.487,273.890976339
178.502,273.839385444
178.517,273.787566767
178.532,273.735519
178.547,273.683240773
178.562,273.630730759
178.577,273.577987618
178.592,273.525009988
178.607,273.471796498
178.622,273.418345787
178.637,273.364656487
178.652,273.310727218
178.667,273.256556563
178.682,273.202143145
178.697,273.147485571
178.712,273.09258241
178.727,273.037432262
178.742,272.98203368
178.757,272.926385268
178.772,272.870485566
178.787,272.814333138
178.802,272.75792652
178.817,272.701264277
178.832,272.644344923
178.847,272.587167013
178.862,272.529729048
178.877,272.472029559
178.892,272.414067041
178.907,272.35584001
178.922,272.297346959
178.937,272.238586392
178.952,272.179556777
178.967,272.120256587
178.982,272.060684317
178.997,272.000838414
179.012,271.940717348
179.027,271.880319574
179.042,271.819643535
179.057,271.758687673
179.072,271.697450416
179.087,271.63593022
179.102,271.574125493
179.117,271.512034647
179.132,271.44965611
179.147,271.386988291
179.16,271.332440917
179.162,271.324029563
179.177,271.260778356
179.192,271.19723306
179.207,271.133392037
179.222,271.069253701
179.237,271.004816404
179.252,270.940078537
179.267,270.875038445
179.282,270.809694503
179.297,270.744045082
179.312,270.678088507
179.327,270.611823152
179.342,270.545247342
179.357,270.478359434
179.372,270.411157757
179.387,270.343640657
179.402,270.275806435
179.417,270.207653445
179.432,270.139179996
179.447,270.070384412
179.462,270.001265001
179.477,269.93182007
179.492,269.862047949
179.507,269.791946941
179.522,269.721515338
179.537,269.650751459
179.552,269.579653589
179.567,269.508220031
179.582,269.436449079
179.597,269.364339037
179.612,269.291888185
179.627,269.219094829
179.642,269.145957245
179.657,269.072473743
179.672,268.998642587
179.687,268.924462092
179.702,268.849930514
179.717,268.775046178
179.732,268.699807345
179.747,268.624212318
179.762,268.548259384
179.777,268.471946825
179.792,268.39527293
179.807,268.318236015
179.822,268.240834347
179.837,268.163066255
179.852,268.084929991
179.867,268.0064239
179.882,267.927546258
179.897,267.848295369
179.91,267.779308055
179.912,267.768669567
179.927,267.688667129
179.942,267.608286395
179.957,267.527525681
179.972,267.446383315
179.987,267.364857618
180.002,267.282946912
180.017,267.200649568
180.032,267.117963897
180.047,267.034888262
180.062,266.951421
180.077,266.867560502
180.092,266.783305123
180.107,266.698653226
180.122,266.613603211
180.137,266.528153462
180.152,266.442302363
180.167,266.356048328
180.182,266.269389766
180.197,266.182325114
180.212,266.094852792
180.227,266.006971231
180.242,265.918678888
180.257,265.829974227
180.272,265.740855728
180.287,265.651321839
180.302,265.561371079
180.317,265.471001953
180.332,265.380212951
180.347,265.289002605
180.362,265.197369484
180.377,265.105312099
180.392,265.012829034
180.407,264.919918858
180.422,264.826580157
180.437,264.732811542
180.452,264.638611611
180.467,264.543979028
180.482,264.44891241
180.497,264.353410436
180.512,264.257471755
180.527,264.161095076
180.542,264.064279102
180.557,263.96702255
180.56,263.947518256
180.572,263.869324141
180.587,263.771182652
180.602,263.672596841
180.617,263.573565509
180.632,263.474087415
180.647,263.374161417
180.66,263.287195656
180.662,263.27378632
180.677,263.172961
180.692,263.07168433
180.707,262.969955161
180.722,262.867772433
180.737,262.765135036
180.752,262.662041923
180.767,262.558492067
180.782,262.454484405
180.797,262.350017959
180.812,262.245091715
180.827,262.139704718
180.842,262.033855987
180.857,261.927544612
180.872,261.820769644
180.887,261.713530189
180.902,261.605825354
180.917,261.49765428
180.932,261.389016085
180.947,261.279909969
180.962,261.170335076
180.977,261.060290619
180.992,260.9497758
181.007,260.838789842
181.022,260.727331991
181.037,260.615401499
181.052,260.502997638
181.067,260.390119672
181.082,260.276766937
181.097,260.162938707
181.112,260.048634309
181.127,259.933853093
181.142,259.818594393
181.157,259.702857574
181.172,259.586641993
181.187,259.469947032
181.202,259.352772088
181.217,259.235116536
181.232,259.116979799
181.247,258.998361263
181.262,258.879260374
181.277,258.759676542
181.292,258.639609197
181.307,258.519057783
181.31,258.494889355
181.322,258.398021718
181.337,258.27650046
181.352,258.154493449
181.367,258.032000119
181.382,257.90901994
181.397,257.785552346
181.412,257.661596779
181.427,257.537152696
181.442,257.412219558
181.457,257.286796776
181.472,257.160883813
181.487,257.034480102
181.502,256.907585086
181.517,256.78019819
181.532,256.652318854
181.547,256.523946493
181.562,256.395080525
181.577,256.265720387
181.592,256.135865477
181.607,256.0055152
181.622,255.874668978
181.637,255.7433262
181.652,255.611486277
181.667,255.479148607
181.682,255.346312595
181.697,255.212977642
181.712,255.07914316
181.727,254.944808543
181.742,254.809973228
181.757,254.674636624
181.772,254.538798191
181.787,254.402457356
181.802,254.26561362
181.817,254.128266469
181.832,253.990415411
181.847,253.85206004
181.862,253.71319991
181.877,253.573834665
181.892,253.433964005
181.907,253.293587682
181.922,253.15270547
181.937,253.011317275
181.952,252.86942306
181.967,252.727022875
181.982,252.5841169
181.997,252.440705398
182.012,252.296788777
182.027,252.152367612
182.042,252.00744258
182.057,251.862014581
182.06,251.832868733
182.072,251.716084722
182.087,251.569654239
182.102,251.422724702
182.117,251.275297856
182.132,251.127375787
182.147,250.978960811
182.162,250.830055638
182.177,250.680663308
182.192,250.530787243
182.207,250.380431301
182.222,250.229599775
182.237,250.078297481
182.252,249.926529732
182.267,249.774302417
182.282,249.62162206
182.297,249.468495803
182.312,249.314931548
182.327,249.16093792
182.342,249.006524342
182.357,248.851701142
182.372,248.696479547
182.387,248.540871762
182.402,248.384891031
182.417,248.228551755
182.432,248.071869436
182.447,247.914860908
182.462,247.757544242
182.477,247.599938936
182.492,247.442065948
182.507,247.283947754
182.522,247.125608415
182.537,246.967073699
182.552,246.808371112
182.567,246.64952993
182.582,246.490581332
182.597,246.331558404
182.612,246.172496176
182.627,246.013431704
182.642,245.854404045
182.657,245.695454271
182.672,245.536625498
182.687,245.377962752
182.702,245.219512953
182.717,245.061324833
182.732,244.903448685
182.747,244.745936217
182.762,244.588840242
182.777,244.432214325
182.792,244.276112313
182.807,244.120587691
182.822,243.965692981
182.837,243.811478687
182.852,243.657992253
182.867,243.505276598
182.882,243.353368469
182.897,243.202296226
182.912,243.052077221
182.927,242.902714498
182.942,242.754192707
182.957,242.606472933
182.972,242.459486277
182.987,242.313125653
183.002,242.167235407
183.017,242.021597966
183.032,241.875916574
183.047,241.729792792
183.062,241.58269691
183.077,241.433928703
183.092,241.282564716
183.107,241.127387212
183.122,240.96678715
183.137,240.798631389
183.152,240.620080137
183.167,240.427337695
183.182,240.21531849
183.197,239.977223462
183.212,239.704076263
183.227,239.384454633
183.242,239.005219051
183.257,238.55566079
183.367,238.661911747
183.382,239.089662633
183.397,239.449133028
183.412,239.752393847
183.427,240.012327264
183.442,240.239734964
183.457,240.442996846
183.472,240.628430792
183.487,240.800756882
183.502,240.963499213
183.517,241.119296858
183.532,241.270134255
183.547,241.417509621
183.562,241.562557483
183.577,241.706138226
183.592,241.848903894
183.607,241.991347069
183.622,242.133837371
183.637,242.276649005
183.652,242.419981818
183.667,242.563977432
183.682,242.708731773
183.697,242.854304815
183.712,243.000728342
183.727,243.148011972
183.742,243.29614807
183.757,243.445115574
183.772,243.594883123
183.787,243.745411624
183.802,243.896656191
183.817,244.048567869
183.832,244.201094925
183.847,244.354183893
183.862,244.507780495
183.877,244.661830322
183.892,244.816279343
183.907,244.97107441
183.922,245.126163548
183.937,245.281496264
183.952,245.437023742
183.967,245.59269896
183.982,245.748476843
183.997,245.904314258
184.012,246.060170146
184.027,246.216005457
184.042,246.371783182
184.057,246.527468322
184.072,246.683027824
184.087,246.83843058
184.102,246.993647348
184.117,247.14865069
184.132,247.303414919
184.147,247.457915999
184.162,247.612131509
184.177,247.766040562
184.192,247.919623735
184.207,248.072862969
184.222,248.225741559
184.237,248.378244007
184.252,248.530356022
184.267,248.682064411
184.282,248.833357034
184.297,248.984222741
184.312,249.13465129
184.327,249.284633355
184.342,249.434160369
184.357,249.583224574
184.372,249.731818899
184.387,249.879936932
184.402,250.027572913
184.417,250.174721631
184.432,250.321378433
184.447,250.467539145
184.462,250.613200057
184.477,250.758357909
184.492,250.903009823
184.507,251.047153287
184.522,251.190786127
184.537,251.333906481
184.552,251.476512764
184.56,251.552358794
184.567,251.618603679
184.582,251.760178156
184.597,251.901235326
184.612,252.041774526
184.627,252.181795336
184.642,252.321297412
184.657,252.460280637
184.672,252.598744981
184.687,252.736690569
184.702,252.874117617
184.717,253.011026467
184.732,253.147417516
184.747,253.283291273
184.762,253.418648303
184.777,253.553489228
184.792,253.687814756
184.807,253.821625625
184.822,253.954922599
184.837,254.087706497
184.852,254.219978187
184.867,254.351738523
184.882,254.482988413
184.897,254.613728788
184.912,254.743960566
184.927,254.87368469
184.942,255.002902137
184.957,255.131613851
184.972,255.259820828
184.987,255.387524022
185.002,255.514724388
185.017,255.64142294
185.032,255.76762064
185.047,255.893318448
185.062,256.018517321
185.077,256.143218263
185.092,256.267422205
185.107,256.391130116
185.122,256.514342945
185.137,256.637061644
185.152,256.75928714
185.167,256.881020377
185.182,257.002262301
185.197,257.123013816
185.212,257.243275867
185.227,257.363049356
185.242,257.482335202
185.257,257.601134312
185.272,257.719447599
185.287,257.837275969
185.302,257.954620317
185.31,258.017006373
185.317,258.07148155
185.332,258.187860573
185.347,258.303758278
185.362,258.419175563
185.377,258.534113326
185.392,258.648572465
185.407,258.762553897
185.422,258.876058497
185.437,258.989087197
185.452,259.101640892
185.467,259.213720505
185.482,259.325326949
185.497,259.436461152
185.512,259.547124018
185.527,259.65731651
185.542,259.767039536
185.557,259.876294058
185.572,259.985081036
185.587,260.093401419
185.602,260.201256175
185.617,260.308646272
185.632,260.415572715
185.647,260.522036477
185.662,260.628038565
185.677,260.733580003
185.692,260.838661796
185.707,260.943284999
185.722,261.047450639
185.737,261.151159756
185.752,261.254413448
185.767,261.357212755
185.782,261.459558794
185.797,261.561452646
185.812,261.662895415
185.827,261.763888245
185.842,261.864432248
185.857,261.964528587
185.872,262.064178404
185.887,262.163382847
185.902,262.262143148
185.917,262.360460479
185.932,262.458336032
185.947,262.555771028
185.96,262.639859285
185.962,262.652766707
185.977,262.749324296
185.992,262.845445067
186.007,262.941130284
186.022,263.036381189
186.037,263.131199129
186.052,263.225585359
186.06,263.275748616
186.067,263.31954121
186.082,263.413067997
186.097,263.506167066
186.112,263.598839752
186.127,263.691087431
186.142,263.782911454
186.157,263.874313198
186.172,263.965294069
186.187,264.055855456
186.202,264.145998775
186.217,264.235725444
186.232,264.325036899
186.247,264.413934571
186.262,264.502419915
186.277,264.590494388
186.292,264.678159458
186.307,264.765416607
186.322,264.852267322
186.337,264.938713086
186.352,265.024755416
186.367,265.110395799
186.382,265.19563578
186.397,265.280476872
186.412,265.364920606
186.427,265.448968514
186.442,265.532622158
186.457,265.61588309
186.472,265.698752862
186.487,265.781233034
186.502,265.86332519
186.517,265.945030899
186.532,266.026351737
186.547,266.107289304
186.562,266.187845182
186.577,266.268020971
186.592,266.347818273
186.607,266.427238694
186.622,266.506283837
186.637,266.584955318
186.652,266.663254748
186.667,266.741183749
186.682,266.818743942
186.697,266.895936962
186.71,266.962541818
186.712,266.972764426
186.727,267.04922795
186.742,267.125329199
186.757,267.201069777
186.772,267.276451332
186.787,267.351475487
186.802,267.426143912
186.817,267.500458201
186.832,267.574420028
186.847,267.648031004
186.862,267.721292796
186.877,267.794207028
186.892,267.86677535
186.907,267.938999388
186.922,268.010880812
186.937,268.082421217
186.952,268.153622273
186.967,268.224485612
186.982,268.295012864
186.997,268.365205669
187.012,268.435065647
187.027,268.504594456
187.042,268.573793699
187.057,268.642665017
187.072,268.711210047
187.087,268.779430391
187.102,268.847327683
187.117,268.914903544
187.132,268.982159574
187.147,269.049097408
187.162,269.115718641
187.177,269.182024891
187.192,269.248017753
187.207,269.313698825
187.222,269.37906971
187.237,269.444132018
187.252,269.508887304
187.267,269.573337188
187.282,269.637483209
187.297,269.701327006
187.312,269.764870105
187.327,269.828114091
187.342,269.89106052
187.357,269.953710978
187.372,270.016066986
187.387,270.078130131
187.402,270.139901929
187.417,270.201383942
187.432,270.262577692
187.447,270.32348473
187.46,270.376040077
187.462,270.384106571
187.477,270.444444731
187.492,270.504500747
187.507,270.564276106
187.522,270.623772324
187.537,270.682990909
187.552,270.741933346
187.567,270.800601121
187.582,270.858995736
187.597,270.917118656
187.612,270.974971358
187.627,271.032555306
187.642,271.089871964
187.657,271.146922774
187.672,271.203709211
187.687,271.260232691
187.702,271.316494668
187.717,271.372496571
187.732,271.428239819
187.747,271.483725832
187.762,271.538956034
187.777,271.593931811
187.792,271.648654578
187.807,271.703125734
187.822,271.757346657
187.837,271.811318728
187.852,271.865043314
187.867,271.918521812
187.882,271.971755566
187.897,272.024745922
187.912,272.07749424
187.927,272.130001866
187.942,272.182270143
187.957,272.234300388
187.972,272.286093929
187.987,272.337652087
188.002,272.388976165
188.017,272.440067479
188.032,272.490927305
188.047,272.541556967
188.062,272.591957724
188.077,272.642130869
188.092,272.692077654
188.107,272.741799373
188.122,272.791297259
188.137,272.840572582
188.152,272.889626574
188.167,272.938460487
188.182,272.987075534
188.197,273.035472957
188.21,273.07724231
188.212,273.083653979
188.227,273.131619812
188.242,273.179371643
188.257,273.226910693
188.272,273.274238135
188.287,273.321355169
188.302,273.36826299
188.317,273.414962745
188.332,273.461455616
188.347,273.507742766
188.362,273.553825329
188.377,273.59970449
188.392,273.645381355
188.407,273.690857078
188.422,273.73613278
188.437,273.781209589
188.452,273.826088625
188.467,273.870770988
188.482,273.915257781
188.497,273.959550104
188.512,274.003649057
188.527,274.047555711
188.542,274.091271156
188.557,274.134796455
188.572,274.178132678
188.587,274.221280886
188.602,274.26424213
188.617,274.307017463
188.632,274.349607917
188.647,274.392014521
188.66,274.428619016
188.662,274.434238333
188.677,274.476280345
188.692,274.518141589
188.707,274.55982307
188.722,274.601325807
188.737,274.642650774
