# 78954 TBPB Grantley Adams Observations at 12Z 14 Apr 2019
Frequency [GHz],TB
175.31,282.080076441
175.322,282.069146804
175.337,282.05545268
175.352,282.041722854
175.367,282.027957258
175.382,282.014155826
175.397,282.00031849
175.412,281.986445181
175.427,281.972535828
175.442,281.958590359
175.457,281.944608701
175.472,281.930590782
175.487,281.916536525
175.502,281.902445853
175.517,281.888318691
175.532,281.874154958
175.547,281.859954574
175.562,281.845717458
175.577,281.831443527
175.592,281.817132698
175.607,281.802784884
175.622,281.788399999
175.637,281.773977955
175.652,281.759518663
175.667,281.745022032
175.682,281.730487968
175.697,281.71591638
175.712,281.701307171
175.727,281.686660246
175.742,281.671975505
175.757,281.657252851
175.772,281.64249218
175.787,281.627693392
175.802,281.612856381
175.817,281.597981043
175.832,281.583067269
175.847,281.568114952
175.862,281.553123981
175.877,281.538094243
175.892,281.523025624
175.907,281.507918011
175.922,281.492771285
175.937,281.477585328
175.952,281.462360018
175.967,281.447095235
175.982,281.431790853
175.997,281.416446748
176.012,281.401062791
176.027,281.385638854
176.042,281.370174804
176.057,281.35467051
176.072,281.339125834
176.087,281.323540642
176.102,281.307914795
176.117,281.29224815
176.132,281.276540567
176.147,281.260791899
176.162,281.245002001
176.177,281.229170724
176.192,281.213297916
176.207,281.197383426
176.222,281.181427098
176.237,281.165428775
176.252,281.149388298
176.267,281.133305506
176.282,281.117180235
176.297,281.10101232
176.31,281.086965502
176.312,281.084801592
176.327,281.068547882
176.342,281.052251016
176.357,281.035910821
176.372,281.019527118
176.387,281.00309973
176.402,280.986628473
176.417,280.970113163
176.432,280.953553615
176.447,280.936949638
176.46,280.92252344
176.462,280.920301042
176.477,280.903607632
176.492,280.886869212
176.507,280.870085582
176.522,280.853256541
176.537,280.836381884
176.552,280.819461403
176.567,280.802494892
176.582,280.785482134
176.597,280.768422917
176.612,280.751317023
176.627,280.734164229
176.642,280.716964314
176.657,280.69971705
176.672,280.682422209
176.687,280.665079557
176.702,280.647688861
176.717,280.630249882
176.732,280.612762379
176.747,280.595226108
176.762,280.577640822
176.777,280.56000627
176.792,280.542322199
176.807,280.524588352
176.822,280.506804469
176.837,280.488970287
176.852,280.471085541
176.867,280.45314996
176.882,280.43516327
176.897,280.417125197
176.912,280.399035458
176.927,280.380893772
176.942,280.362699851
176.957,280.344453404
176.972,280.326154139
176.987,280.307801755
177.002,280.289395953
177.017,280.270936428
177.032,280.252422869
177.047,280.233854965
177.062,280.215232399
177.077,280.19655485
177.092,280.177821994
177.107,280.159033502
177.122,280.140189042
177.137,280.121288277
177.152,280.102330867
177.167,280.083316467
177.182,280.064244726
177.197,280.045115293
177.21,280.028489507
177.212,280.025927809
177.227,280.006681912
177.242,279.987377235
177.257,279.968013408
177.272,279.948590054
177.287,279.929106792
177.302,279.90956324
177.31,279.899115224
177.317,279.889959005
177.332,279.870293695
177.347,279.850566909
177.362,279.830778243
177.377,279.810927289
177.392,279.791013632
177.407,279.771036852
177.422,279.750996526
177.437,279.730892223
177.452,279.710723508
177.467,279.690489942
177.482,279.670191079
177.497,279.649826467
177.512,279.629395649
177.527,279.608898163
177.542,279.588333542
177.557,279.567701311
177.572,279.54700099
177.587,279.526232094
177.602,279.505394131
177.617,279.484486604
177.632,279.463509008
177.647,279.442460834
177.66,279.424161593
177.662,279.421341565
177.677,279.400150677
177.692,279.378887643
177.707,279.357551926
177.722,279.336142983
177.737,279.314660265
177.752,279.293103216
177.767,279.271471272
177.782,279.249763864
177.797,279.227980415
177.812,279.206120339
177.827,279.184183045
177.842,279.162167933
177.857,279.140074398
177.872,279.117901824
177.887,279.095649589
177.902,279.073317065
177.917,279.050903611
177.932,279.028408583
177.947,279.005831327
177.96,278.986197346
177.962,278.98317118
177.977,278.960427471
177.992,278.93759952
178.007,278.914686641
178.022,278.891688136
178.037,278.868603299
178.052,278.845431416
178.067,278.822171763
178.082,278.798823607
178.097,278.775386206
178.112,278.751858807
178.127,278.728240649
178.142,278.704530961
178.157,278.68072896
178.172,278.656833856
178.187,278.632844846
178.202,278.608761119
178.217,278.584581851
178.232,278.560306209
178.247,278.535933349
178.262,278.511462415
178.277,278.486892541
178.292,278.462222849
178.307,278.437452449
178.322,278.41258044
178.337,278.387605909
178.352,278.362527931
178.367,278.337345568
178.382,278.312057872
178.397,278.286663879
178.41,278.264569016
178.412,278.261162614
178.427,278.235553089
178.442,278.209834303
178.457,278.184005241
178.472,278.158064874
178.487,278.132012161
178.502,278.105846045
178.517,278.079565456
178.532,278.053169308
178.547,278.026656502
178.562,278.000025924
178.577,277.973276445
178.592,277.946406918
178.607,277.919416183
178.622,277.892303064
178.637,277.865066368
178.652,277.837704886
178.667,277.810217393
178.682,277.782602645
178.697,277.754859383
178.712,277.726986331
178.727,277.698982192
178.742,277.670845654
178.757,277.642575386
178.772,277.614170039
178.787,277.585628242
178.802,277.55694861
178.817,277.528129734
178.832,277.499170187
178.847,277.470068522
178.862,277.440823272
178.877,277.411432947
178.892,277.381896039
178.907,277.352211015
178.922,277.322376324
178.937,277.292390389
178.952,277.262251614
178.967,277.231958378
178.982,277.201509037
178.997,277.170901922
179.012,277.140135344
179.027,277.109207584
179.042,277.078116904
179.057,277.046861535
179.072,277.015439687
179.087,276.983849541
179.102,276.952089252
179.117,276.920156949
179.132,276.888050733
179.147,276.855768675
179.16,276.827647145
179.162,276.823308821
179.177,276.790669186
179.192,276.757847756
179.207,276.724842488
179.222,276.691651308
179.237,276.65827211
179.252,276.624702758
179.267,276.590941084
179.282,276.556984887
179.297,276.522831934
179.312,276.488479956
179.327,276.453926652
179.342,276.419169686
179.357,276.384206687
179.372,276.349035245
179.387,276.313652918
179.402,276.278057224
179.417,276.242245643
179.432,276.206215619
179.447,276.169964553
179.462,276.133489809
179.477,276.096788711
179.492,276.05985854
179.507,276.022696535
179.522,275.985299894
179.537,275.947665771
179.552,275.909791276
179.567,275.871673472
179.582,275.83330938
179.597,275.794695972
179.612,275.755830174
179.627,275.716708863
179.642,275.677328869
179.657,275.63768697
179.672,275.597779894
179.687,275.557604319
179.702,275.51715687
179.717,275.476434117
179.732,275.435432579
179.747,275.394148717
179.762,275.352578938
179.777,275.310719591
179.792,275.268566968
179.807,275.2261173
179.822,275.18336676
179.837,275.14031146
179.852,275.096947449
179.867,275.053270712
179.882,275.009277173
179.897,274.964962687
179.91,274.926293938
179.912,274.920323046
179.927,274.87535397
179.942,274.830051116
179.957,274.784410066
179.972,274.738426334
179.987,274.69209536
180.002,274.645412512
180.017,274.598373081
180.032,274.550972285
180.047,274.503205263
180.062,274.455067075
180.077,274.406552701
180.092,274.357657041
180.107,274.308374911
180.122,274.258701045
180.137,274.208630088
180.152,274.158156602
180.167,274.107275058
180.182,274.055979838
180.197,274.004265234
180.212,273.952125444
180.227,273.899554572
180.242,273.846546625
180.257,273.793095515
180.272,273.739195054
180.287,273.684838952
180.302,273.63002082
180.317,273.574734163
180.332,273.518972379
180.347,273.462728763
180.362,273.405996499
180.377,273.348768659
180.392,273.291038206
180.407,273.232797985
180.422,273.17404073
180.437,273.114759054
180.452,273.054945452
180.467,272.994592296
180.482,272.933691839
180.497,272.872236206
180.512,272.810217396
180.527,272.74762728
180.542,272.684457598
180.557,272.620699959
180.56,272.607877128
180.572,272.556345836
180.587,272.491386569
180.602,272.425813357
180.617,272.35961726
180.632,272.292789197
180.647,272.225319944
180.66,272.1663207
180.662,272.157200129
180.677,272.088420235
180.692,272.018970594
180.707,271.948841387
180.722,271.878022643
180.737,271.806504234
180.752,271.734275876
180.767,271.661327127
180.782,271.587647383
180.797,271.513225877
180.812,271.438051679
180.827,271.362113693
180.842,271.285400652
180.857,271.207901124
180.872,271.129603502
180.887,271.050496007
180.902,270.970566686
180.917,270.889803408
180.932,270.808193866
180.947,270.725725574
180.962,270.642385862
180.977,270.558161882
180.992,270.4730406
181.007,270.387008798
181.022,270.300053072
181.037,270.212159833
181.052,270.123315301
181.067,270.03350551
181.082,269.942716304
181.097,269.850933337
181.112,269.758142071
181.127,269.664327778
181.142,269.569475541
181.157,269.473570247
181.172,269.376596596
181.187,269.278539094
181.202,269.179382057
181.217,269.079109613
181.232,268.977705696
181.247,268.875154057
181.262,268.771438254
181.277,268.666541663
181.292,268.560447475
181.307,268.453138697
181.31,268.431529683
181.322,268.344598157
181.337,268.234808506
181.352,268.123752218
181.367,268.011411596
181.382,267.897768774
181.397,267.782805722
181.412,267.666504248
181.427,267.548846004
181.442,267.429812491
181.457,267.309385063
181.472,267.187544935
181.487,267.064273185
181.502,266.939550767
181.517,266.81335851
181.532,266.685677134
181.547,266.556487253
181.562,266.425769385
181.577,266.293503961
181.592,266.159671335
181.607,266.024251798
181.622,265.887225583
181.637,265.748572881
181.652,265.608273855
181.667,265.466308649
181.682,265.322657406
181.697,265.17730028
181.712,265.030217455
181.727,264.881389159
181.742,264.730795682
181.757,264.578417395
181.772,264.424234771
181.787,264.268228401
181.802,264.110379019
181.817,263.950667522
181.832,263.789074995
181.847,263.625582734
181.862,263.460172272
181.877,263.292825405
181.892,263.123524221
181.907,262.952251127
181.922,262.778988877
181.937,262.603720609
181.952,262.426429869
181.967,262.247100652
181.982,262.06571743
181.997,261.882265191
182.012,261.696729474
182.027,261.509096404
182.042,261.319352737
182.057,261.127485894
182.06,261.088856686
182.072,260.933484001
182.087,260.737335933
182.102,260.539031355
182.117,260.338560763
182.132,260.135915529
182.147,259.931087942
182.162,259.724071255
182.177,259.514859724
182.192,259.303448656
182.207,259.089834448
182.222,258.874014632
182.237,258.655987914
182.252,258.435754217
182.267,258.213314715
182.282,257.988671872
182.297,257.761829472
182.312,257.532792649
182.327,257.301567916
182.342,257.068163181
182.357,256.83258776
182.372,256.594852392
182.387,256.354969231
182.402,256.112951842
182.417,255.868815178
182.432,255.622575547
182.447,255.374250566
182.462,255.123859098
182.477,254.871421166
182.492,254.616957852
182.507,254.360491164
182.522,254.102043875
182.537,253.841639335
182.552,253.579301229
182.567,253.315053311
182.582,253.048919066
182.597,252.780921322
182.612,252.511081797
182.627,252.239420553
182.642,251.965955369
182.657,251.690700997
182.672,251.413668299
182.687,251.134863231
182.702,250.854285663
182.717,250.571927988
182.732,250.287773507
182.747,250.001794533
182.762,249.713950168
182.777,249.424183707
182.792,249.13241958
182.807,248.838559767
182.822,248.542479578
182.837,248.244022685
182.852,247.942995247
182.867,247.639158987
182.882,247.332222978
182.897,247.021833913
182.912,246.707564547
182.927,246.388899944
182.942,246.0652211
182.957,245.735785401
182.972,245.399703291
182.987,245.055910395
183.002,244.703134222
183.017,244.339854407
183.032,243.964255374
183.047,243.574170178
183.062,243.16701439
183.077,242.739709139
183.092,242.288593356
183.107,241.809327089
183.122,241.296791763
183.137,240.745001158
183.152,240.147052685
183.167,239.495179887
183.182,238.781030002
183.197,237.996417381
183.212,237.135059842
183.227,236.196305071
183.242,235.19270337
183.257,234.164016304
183.367,234.403419101
183.382,235.425035176
183.397,236.407850585
183.412,237.32086428
183.427,238.155939606
183.442,238.915683572
183.457,239.607100582
183.472,240.238516201
183.487,240.818164464
183.502,241.353591824
183.517,241.851454553
183.532,242.317500532
183.547,242.75663224
183.562,243.173000268
183.577,243.570102945
183.592,243.950880881
183.607,244.317801864
183.622,244.672934844
183.637,245.018013279
183.652,245.354488819
183.667,245.683576501
183.682,246.006292685
183.697,246.323486814
183.712,246.635868003
183.727,246.944027295
183.742,247.248456301
183.757,247.549562839
183.772,247.847684054
183.787,248.143097461
183.802,248.436030241
183.817,248.726667083
183.832,249.015156814
183.847,249.301618007
183.862,249.586143735
183.877,249.868805611
183.892,250.149657216
183.907,250.428737027
183.922,250.706070899
183.937,250.981674197
183.952,251.255553605
183.967,251.527708681
183.982,251.798133176
183.997,252.066816174
184.012,252.333743058
184.027,252.598896339
184.042,252.862256363
184.057,253.123801917
184.072,253.383510745
184.087,253.641359982
184.102,253.897326529
184.117,254.151387367
184.132,254.403519819
184.147,254.653701775
184.162,254.901911875
184.177,255.14812966
184.192,255.392335696
184.207,255.634511676
184.222,255.874640495
184.237,256.112706314
184.252,256.348694602
184.267,256.582592166
184.282,256.814387172
184.297,257.044069152
184.312,257.271629004
184.327,257.497058985
184.342,257.720352694
184.357,257.941505057
184.372,258.160512296
184.387,258.377371907
184.402,258.592082623
184.417,258.804644384
184.432,259.015058297
184.447,259.2233266
184.462,259.429452622
184.477,259.633440742
184.492,259.835296346
184.507,260.035025792
184.522,260.232636358
184.537,260.428136211
184.552,260.621534358
184.56,260.723824027
184.567,260.812840606
184.582,261.002065525
184.597,261.189220405
184.612,261.374317218
184.627,261.557368576
184.642,261.7383877
184.657,261.917388376
184.672,262.094384924
184.687,262.269392162
184.702,262.442425371
184.717,262.613500265
184.732,262.782632956
184.747,262.949839925
184.762,263.115137992
184.777,263.278544291
184.792,263.440076235
184.807,263.599751498
184.822,263.757587983
184.837,263.913603803
184.852,264.067817254
184.867,264.220246794
184.882,264.370911023
184.897,264.519828659
184.912,264.667018522
184.927,264.812499517
184.942,264.956290609
184.957,265.098410815
184.972,265.238879182
184.987,265.377714774
185.002,265.514936659
185.017,265.65056389
185.032,265.784615501
185.047,265.917110486
185.062,266.048067793
185.077,266.177506311
185.092,266.305444859
185.107,266.431902179
185.122,266.556896926
185.137,266.680447657
185.152,266.802572826
185.167,266.923290777
185.182,267.042619732
185.197,267.160577794
185.212,267.277182929
185.227,267.392452971
185.242,267.506405612
185.257,267.619058395
185.272,267.730428717
185.287,267.840533815
185.302,267.949390773
185.31,268.006943315
185.317,268.05701651
185.332,268.163427781
185.347,268.268641176
185.362,268.372673111
185.377,268.475539834
185.392,268.577257416
185.407,268.677841756
185.422,268.777308573
185.437,268.875673409
185.452,268.972951627
185.467,269.06915841
185.482,269.164308761
185.497,269.258417499
185.512,269.351499266
185.527,269.443568519
185.542,269.534639536
185.557,269.624726412
185.572,269.713843062
185.587,269.802003221
185.602,269.889220443
185.617,269.975508102
185.632,270.060879395
185.647,270.145347341
185.662,270.22892478
185.677,270.31162438
185.692,270.39345863
185.707,270.474439849
185.722,270.554580182
185.737,270.633891602
185.752,270.712385915
185.767,270.790074756
185.782,270.866969595
185.797,270.943081736
185.812,271.018422318
185.827,271.093002321
185.842,271.16683256
185.857,271.239923694
185.872,271.312286225
185.887,271.383930496
185.902,271.454866701
185.917,271.525104877
185.932,271.594654913
185.947,271.663526549
185.96,271.722673969
185.962,271.731729379
185.977,271.799272849
185.992,271.866166265
186.007,271.932418788
186.022,271.998039442
186.037,272.063037112
186.052,272.127420546
186.06,272.161510204
186.067,272.191198359
186.082,272.254379032
186.097,272.316970917
186.112,272.378982234
186.127,272.440421078
186.142,272.501295418
186.157,272.561613099
186.172,272.621381844
186.187,272.680609256
186.202,272.739302819
186.217,272.7974699
186.232,272.855117752
186.247,272.912253514
186.262,272.968884213
186.277,273.025016765
186.292,273.080657979
186.307,273.135814557
186.322,273.190493095
186.337,273.244700086
186.352,273.298441922
186.367,273.351724892
186.382,273.404555188
186.397,273.456938904
186.412,273.508882039
186.427,273.560390496
186.442,273.611470087
186.457,273.662126532
186.472,273.712365459
186.487,273.762192412
186.502,273.811612843
186.517,273.860632121
186.532,273.90925553
186.547,273.957488272
186.562,274.005335466
186.577,274.05280215
186.592,274.099893286
186.607,274.146613755
186.622,274.192968363
186.637,274.23896184
186.652,274.284598844
186.667,274.329883958
186.682,274.374821694
186.697,274.419416494
186.71,274.457791305
186.712,274.463672731
186.727,274.507594708
186.742,274.551186662
186.757,274.594452767
186.772,274.637397126
186.787,274.680023785
186.802,274.722336722
186.817,274.764339857
186.832,274.806037046
186.847,274.847432089
186.862,274.888528724
186.877,274.929330634
186.892,274.969841444
186.907,275.010064723
186.922,275.050003986
186.937,275.089662694
186.952,275.129044255
186.967,275.168152023
186.982,275.206989304
186.997,275.245559351
187.012,275.283865368
187.027,275.321910512
187.042,275.35969789
187.057,275.397230562
187.072,275.434511543
187.087,275.471543801
187.102,275.508330261
187.117,275.544873801
187.132,275.58117726
187.147,275.61724343
187.162,275.653075063
187.177,275.688674872
187.192,275.724045524
187.207,275.759189652
187.222,275.794109847
187.237,275.828808661
187.252,275.86328861
187.267,275.89755217
187.282,275.931601784
187.297,275.965439857
187.312,275.999068757
187.327,276.03249082
187.342,276.065708346
187.357,276.098723602
187.372,276.131538823
187.387,276.164156208
187.402,276.196577928
187.417,276.228806119
187.432,276.260842889
187.447,276.292690314
187.46,276.320139838
187.462,276.324350439
187.477,276.355825281
187.492,276.387116829
187.507,276.41822704
187.522,276.449157847
187.537,276.479911151
187.552,276.510488831
187.567,276.540892734
187.582,276.571124685
187.597,276.601186481
187.612,276.631079894
187.627,276.66080667
187.642,276.690368533
187.657,276.71976718
187.672,276.749004285
187.687,276.7780815
187.702,276.807000453
187.717,276.835762747
187.732,276.864369967
187.747,276.892823673
187.762,276.921125404
187.777,276.949276678
187.792,276.977278992
187.807,277.005133823
187.822,277.032842628
187.837,277.060406841
187.852,277.08782788
187.867,277.115107141
187.882,277.142246005
187.897,277.169245829
187.912,277.196107955
187.927,277.222833706
187.942,277.249424388
187.957,277.275881288
187.972,277.302205676
187.987,277.328398806
188.002,277.354461914
188.017,277.380396221
188.032,277.406202931
188.047,277.431883231
188.062,277.457438293
188.077,277.482869275
188.092,277.508177318
188.107,277.533363548
188.122,277.558429078
188.137,277.583375003
188.152,277.608202408
188.167,277.632912361
188.182,277.657505916
188.197,277.681984116
188.21,277.703106039
188.212,277.706347986
188.227,277.730598543
188.242,277.754736787
188.257,277.778763707
188.272,277.802680279
188.287,277.826487465
188.302,277.850186217
188.317,277.873777475
188.332,277.897262165
188.347,277.920641202
188.362,277.943915489
188.377,277.96708592
188.392,277.990153375
188.407,278.013118725
188.422,278.035982828
188.437,278.058746532
188.452,278.081410677
188.467,278.103976088
188.482,278.126443583
188.497,278.148813969
188.512,278.171088042
188.527,278.193266591
188.542,278.215350392
188.557,278.237340214
188.572,278.259236815
188.587,278.281040944
188.602,278.302753341
188.617,278.324374737
188.632,278.345905856
188.647,278.367347409
188.66,278.385858186
188.662,278.388700102
188.677,278.409964633
188.692,278.431141687
188.707,278.452231945
188.722,278.47323608
