# 48698 WSSS Singapore Observations at 12Z 05 Feb 2020
Frequency [GHz],TB
175.31,277.071097683
175.322,277.054148205
175.337,277.03291878
175.352,277.011641908
175.367,276.99031744
175.382,276.968945226
175.397,276.947525115
175.412,276.926056953
175.427,276.904540588
175.442,276.882975862
175.457,276.86136262
175.472,276.839700703
175.487,276.817989953
175.502,276.796230209
175.517,276.774421307
175.532,276.752563086
175.547,276.730655379
175.562,276.708698021
175.577,276.686690845
175.592,276.664633679
175.607,276.642526356
175.622,276.620368701
175.637,276.598160543
175.652,276.575901706
175.667,276.553592013
175.682,276.531231287
175.697,276.508819347
175.712,276.486356013
175.727,276.463841102
175.742,276.44127443
175.757,276.418655811
175.772,276.395985057
175.787,276.373261981
175.802,276.350486389
175.817,276.327658093
175.832,276.304776896
175.847,276.281842602
175.862,276.258855014
175.877,276.235813934
175.892,276.212719161
175.907,276.189570492
175.922,276.166367722
175.937,276.143110645
175.952,276.119799054
175.967,276.09643274
175.982,276.073011488
175.997,276.049535086
176.012,276.026003321
176.027,276.002415973
176.042,275.978772825
176.057,275.955073653
176.072,275.931318235
176.087,275.907506347
176.102,275.883637762
176.117,275.85971225
176.132,275.83572958
176.147,275.811689518
176.162,275.78759183
176.177,275.76343628
176.192,275.739222626
176.207,275.714950628
176.222,275.690620042
176.237,275.666230621
176.252,275.641782117
176.267,275.617274283
176.282,275.59270686
176.297,275.5680796
176.31,275.54668737
176.312,275.543392241
176.327,275.518644524
176.342,275.493836189
176.357,275.468966971
176.372,275.444036604
176.387,275.419044818
176.402,275.393991341
176.417,275.368875901
176.432,275.343698219
176.447,275.318458019
176.46,275.296532389
176.462,275.293155016
176.477,275.267788929
176.492,275.242359469
176.507,275.216866348
176.522,275.191309274
176.537,275.165687951
176.552,275.140002082
176.567,275.114251368
176.582,275.088435506
176.597,275.062554188
176.612,275.036607107
176.627,275.010593953
176.642,274.984514409
176.657,274.958368159
176.672,274.932154882
176.687,274.905874255
176.702,274.879525953
176.717,274.853109644
176.732,274.826624998
176.747,274.800071679
176.762,274.773449348
176.777,274.746757662
176.792,274.719996277
176.807,274.693164844
176.822,274.666263011
176.837,274.639290424
176.852,274.612246724
176.867,274.585131548
176.882,274.557944533
176.897,274.530685308
176.912,274.5033535
176.927,274.475948736
176.942,274.448470635
176.957,274.420918812
176.972,274.393292883
176.987,274.365592454
177.002,274.337817133
177.017,274.309966522
177.032,274.282040216
177.047,274.254037813
177.062,274.225958899
177.077,274.197803061
177.092,274.169569882
177.107,274.141258939
177.122,274.112869805
177.137,274.084402051
177.152,274.055855242
177.167,274.027228935
177.182,273.998522692
177.197,273.969736062
177.21,273.944722275
177.212,273.940868593
177.227,273.911919828
177.242,273.882889306
177.257,273.853776561
177.272,273.824581123
177.287,273.795302515
177.302,273.765940256
177.31,273.750246015
177.317,273.736493864
177.332,273.706962847
177.347,273.67734671
177.362,273.647644953
177.377,273.617857072
177.392,273.587982557
177.407,273.558020891
177.422,273.527971555
177.437,273.497834022
177.452,273.467607761
177.467,273.437292236
177.482,273.406886903
177.497,273.376391215
177.512,273.345804618
177.527,273.315126554
177.542,273.284356456
177.557,273.253493755
177.572,273.222537872
177.587,273.191488226
177.602,273.160344226
177.617,273.129105278
177.632,273.09777078
177.647,273.066340125
177.66,273.039021968
177.662,273.034812697
177.677,273.003187879
177.692,272.971465039
177.707,272.939643546
177.722,272.907722757
177.737,272.87570203
177.752,272.843580705
177.767,272.811358121
177.782,272.779033613
177.797,272.746606504
177.812,272.714076109
177.827,272.68144174
177.842,272.6487027
177.857,272.615858281
177.872,272.582907772
177.887,272.549850453
177.902,272.516685594
177.917,272.48341246
177.932,272.450030307
177.947,272.41653838
177.96,272.387422663
177.962,272.382935921
177.977,272.349222159
177.992,272.315396317
178.007,272.281457609
178.022,272.247405242
178.037,272.21323841
178.052,272.178956302
178.067,272.144558094
178.082,272.110042958
178.097,272.075410054
178.112,272.040658532
178.127,272.005787533
178.142,271.970796189
178.157,271.935683622
178.172,271.900448944
178.187,271.865091257
178.202,271.829609652
178.217,271.794003212
178.232,271.758271008
178.247,271.7224121
178.262,271.686425539
178.277,271.650310364
178.292,271.614065602
178.307,271.577690272
178.322,271.541183379
178.337,271.504543918
178.352,271.467770871
178.367,271.43086321
178.382,271.393819894
178.397,271.356639872
178.41,271.324305782
178.412,271.319322078
178.427,271.281865434
178.442,271.244268852
178.457,271.20653123
178.472,271.168651452
178.487,271.13062839
178.502,271.092460904
178.517,271.054147838
178.532,271.015688025
178.547,270.977080283
178.562,270.938323416
178.577,270.899416215
178.592,270.860357457
178.607,270.8211459
178.622,270.781780296
178.637,270.742259374
178.652,270.702581852
178.667,270.662746432
178.682,270.6227518
178.697,270.582596627
178.712,270.542279569
178.727,270.501799265
178.742,270.461154336
178.757,270.42034339
178.772,270.379365016
178.787,270.338217787
178.802,270.296900257
178.817,270.255410966
178.832,270.213748433
178.847,270.171911162
178.862,270.129897636
178.877,270.087706322
178.892,270.045335668
178.907,270.002784102
178.922,269.960050035
178.937,269.917131856
178.952,269.874027936
178.967,269.830736626
178.982,269.787256258
178.997,269.743585141
179.012,269.699721566
179.027,269.655663801
179.042,269.611410093
179.057,269.56695867
179.072,269.522307735
179.087,269.477455472
179.102,269.432400038
179.117,269.387139573
179.132,269.34167219
179.147,269.295995981
179.16,269.256239523
179.162,269.250109013
179.177,269.204009329
179.192,269.15769495
179.207,269.111163868
179.222,269.064414056
179.237,269.017443457
179.252,268.970249991
179.267,268.922831551
179.282,268.875186005
179.297,268.827311194
179.312,268.77920493
179.327,268.730865002
179.342,268.682289166
179.357,268.633475156
179.372,268.584420673
179.387,268.535123392
179.402,268.485580956
179.417,268.435790983
179.432,268.385751057
179.447,268.335458734
179.462,268.284911539
179.477,268.234106965
179.492,268.183042474
179.507,268.131715498
179.522,268.080123435
179.537,268.028263649
179.552,267.976133475
179.567,267.92373021
179.582,267.871051121
179.597,267.818093436
179.612,267.764854356
179.627,267.711331037
179.642,267.657520607
179.657,267.603420154
179.672,267.549026731
179.687,267.494337354
179.702,267.439348999
179.717,267.384058609
179.732,267.328463084
179.747,267.272559287
179.762,267.216344042
179.777,267.159814132
179.792,267.102966301
179.807,267.045797252
179.822,266.988303646
179.837,266.930482102
179.852,266.872329198
179.867,266.813841468
179.882,266.755015404
179.897,266.695847453
179.91,266.644289236
179.912,266.63633402
179.927,266.576471461
179.942,266.51625609
179.957,266.455684175
179.972,266.394751938
179.987,266.333455552
180.002,266.271791144
180.017,266.209754794
180.032,266.147342533
180.047,266.084550343
180.062,266.021374156
180.077,265.957809857
180.092,265.893853274
180.107,265.829500192
180.122,265.76474634
180.137,265.699587397
180.152,265.634018987
180.167,265.568036683
180.182,265.501636006
180.197,265.434812419
180.212,265.367561335
180.227,265.299878108
180.242,265.23175804
180.257,265.163196375
180.272,265.094188301
180.287,265.024728949
180.302,264.954813394
180.317,264.884436653
180.332,264.813593682
180.347,264.742279383
180.362,264.670488595
180.377,264.598216099
180.392,264.525456617
180.407,264.452204809
180.422,264.378455276
180.437,264.304202557
180.452,264.22944113
180.467,264.154165411
180.482,264.078369755
180.497,264.002048452
180.512,263.925195734
180.527,263.847805766
180.542,263.769872651
180.557,263.691390429
180.56,263.675627563
180.572,263.612353078
180.587,263.53275451
180.602,263.452588573
180.617,263.371849054
180.632,263.290529673
180.647,263.208624086
180.66,263.137160119
180.662,263.126125887
180.677,263.043028604
180.692,262.9593257
180.707,262.875010576
180.722,262.790076568
180.737,262.704516947
180.752,262.618324923
180.767,262.531493639
180.782,262.444016178
180.797,262.355885556
180.812,262.267094731
180.827,262.177636594
180.842,262.087503977
180.857,261.99668965
180.872,261.905186321
180.887,261.812986639
180.902,261.720083191
180.917,261.626468509
180.932,261.532135061
180.947,261.437075262
180.962,261.341281467
180.977,261.244745978
180.992,261.147461041
181.007,261.049418847
181.022,260.950611535
181.037,260.851031195
181.052,260.750669861
181.067,260.649519525
181.082,260.547572125
181.097,260.444819558
181.112,260.341253675
181.127,260.236866282
181.142,260.131649148
181.157,260.025593998
181.172,259.918692526
181.187,259.810936384
181.202,259.702317197
181.217,259.592826554
181.232,259.482456021
181.247,259.371197132
181.262,259.259041404
181.277,259.145980328
181.292,259.03200538
181.307,258.91710802
181.31,258.894017106
181.322,258.801279697
181.337,258.68451185
181.352,258.566795915
181.367,258.448123323
181.382,258.328485511
181.397,258.207873916
181.412,258.086279991
181.427,257.963695198
181.442,257.840111019
181.457,257.715518959
181.472,257.589910548
181.487,257.46327735
181.502,257.335610965
181.517,257.206903036
181.532,257.077145254
181.547,256.946329362
181.562,256.814447165
181.577,256.681490531
181.592,256.547451401
181.607,256.412321797
181.622,256.276093823
181.637,256.138759679
181.652,256.000311664
181.667,255.860742187
181.682,255.720043772
181.697,255.578209071
181.712,255.435230867
181.727,255.291102089
181.742,255.145815819
181.757,254.999365302
181.772,254.851743957
181.787,254.702945389
181.802,254.552963399
181.817,254.401791996
181.832,254.249425411
181.847,254.095858109
181.862,253.941084801
181.877,253.785100464
181.892,253.627900347
181.907,253.469479995
181.922,253.309835259
181.937,253.148962318
181.952,252.98685769
181.967,252.823518259
181.982,252.658941285
181.997,252.49312443
182.012,252.32606578
182.027,252.15776386
182.042,251.988217663
182.057,251.817426672
182.06,251.783119088
182.072,251.645390881
182.087,251.472110828
182.102,251.297587615
182.117,251.121822941
182.132,250.944819127
182.147,250.766579148
182.162,250.587106667
182.177,250.406406064
182.192,250.224482473
182.207,250.041341815
182.222,249.85699084
182.237,249.671437157
182.252,249.484689284
182.267,249.296756682
182.282,249.1076498
182.297,248.917380123
182.312,248.725960213
182.327,248.533403759
182.342,248.33972563
182.357,248.144941921
182.372,247.949070009
182.387,247.752128608
182.402,247.554137824
182.417,247.355119215
182.432,247.155095849
182.447,246.954092368
182.462,246.752135049
182.477,246.549251871
182.492,246.345472578
182.507,246.140828751
182.522,245.935353871
182.537,245.729083393
182.552,245.522054812
182.567,245.314307733
182.582,245.10588394
182.597,244.896827462
182.612,244.687184638
182.627,244.477004174
182.642,244.266337199
182.657,244.055237313
182.672,243.843760617
182.687,243.63196574
182.702,243.419913839
182.717,243.207668578
182.732,242.995296078
182.747,242.782864824
182.762,242.57044553
182.777,242.358110929
182.792,242.145935496
182.807,241.933995061
182.822,241.722366301
182.837,241.511126067
182.852,241.30035051
182.867,241.090113962
182.882,240.880487479
182.897,240.671536998
182.912,240.463320964
182.927,240.255887317
182.942,240.049269641
182.957,239.843482255
182.972,239.638513921
182.987,239.43431979
183.002,239.230811007
183.017,239.02784127
183.032,238.825189302
183.047,238.622535853
183.062,238.419433251
183.077,238.215264709
183.092,238.009189383
183.107,237.800067412
183.122,237.586356605
183.137,237.365968888
183.152,237.136070012
183.167,236.892801585
183.182,236.630904956
183.197,236.343249777
183.212,236.020375861
183.227,235.650544954
183.242,235.22213514
183.257,234.734624524
183.367,234.848972013
183.382,235.318308624
183.397,235.726431471
183.412,236.078687921
183.427,236.387220298
183.442,236.663248024
183.457,236.915594703
183.472,237.150857086
183.487,237.373888835
183.502,237.588250629
183.517,237.796559475
183.532,238.000744477
183.547,238.202230626
183.562,238.402070609
183.577,238.60103983
183.592,238.799705533
183.607,238.998477597
183.622,239.197646262
183.637,239.397410431
183.652,239.59789909
183.667,239.799187668
183.682,240.001310613
183.697,240.204271115
183.712,240.408048666
183.727,240.612604953
183.742,240.817888475
183.757,241.023838149
183.772,241.23038615
183.787,241.437460122
183.802,241.644984919
183.817,241.852883959
183.832,242.061080272
183.847,242.269497317
183.862,242.478059602
183.877,242.686693154
183.892,242.895325872
183.907,243.103887785
183.922,243.31231123
183.937,243.520530977
183.952,243.728484305
183.967,243.936111038
183.982,244.143353561
183.997,244.350156802
184.012,244.556468209
184.027,244.762237705
184.042,244.967417639
184.057,245.171962726
184.072,245.375829985
184.087,245.57897867
184.102,245.781370202
184.117,245.9829681
184.132,246.183737904
184.147,246.383647113
184.162,246.582665104
184.177,246.780763073
184.192,246.977913957
184.207,247.174092375
184.222,247.369274556
184.237,247.56343828
184.252,247.756562811
184.267,247.948628844
184.282,248.139618438
184.297,248.329514964
184.312,248.518303051
184.327,248.705968529
184.342,248.892498381
184.357,249.07788069
184.372,249.262104597
184.387,249.445160247
184.402,249.627038752
184.417,249.807732143
184.432,249.98723333
184.447,250.165536064
184.462,250.342634898
184.477,250.518525149
184.492,250.693202862
184.507,250.86666478
184.522,251.038908308
184.537,251.209931484
184.552,251.379732946
184.56,251.469793886
184.567,251.548311905
184.582,251.71566812
184.597,251.881801865
184.612,252.04671391
184.627,252.210405494
184.642,252.372878302
184.657,252.53413444
184.672,252.69417642
184.687,252.853007134
184.702,253.010629834
184.717,253.167048118
184.732,253.322265909
184.747,253.476287437
184.762,253.629117225
184.777,253.780760069
184.792,253.931221029
184.807,254.080505411
184.822,254.228618751
184.837,254.375566808
184.852,254.521355544
184.867,254.665991118
184.882,254.809479872
184.897,254.951828318
184.912,255.093043131
184.927,255.233131136
184.942,255.372099301
184.957,255.509954725
184.972,255.646704629
184.987,255.782356349
185.002,255.916917331
185.017,256.050395114
185.032,256.182797332
185.047,256.314131701
185.062,256.444406015
185.077,256.573628136
185.092,256.701805994
185.107,256.828947573
185.122,256.955060912
185.137,257.080154095
185.152,257.204235247
185.167,257.32731253
185.182,257.449394136
185.197,257.570488285
185.212,257.690603219
185.227,257.809747194
185.242,257.927928484
185.257,258.045155371
185.272,258.161436141
185.287,258.276779083
185.302,258.391192486
185.31,258.45183575
185.317,258.504684633
185.332,258.617263799
185.347,258.728938246
185.362,258.839716227
185.377,258.949605972
185.392,259.058615697
185.407,259.166753592
185.422,259.274027825
185.437,259.380446534
185.452,259.486017833
185.467,259.590749799
185.482,259.694650479
185.497,259.797727886
185.512,259.899989992
185.527,260.001444734
185.542,260.102100006
185.557,260.201963662
185.572,260.30104351
185.587,260.399347315
185.602,260.496882795
185.617,260.593657622
185.632,260.689679416
185.647,260.78495575
185.662,260.879494144
185.677,260.973302069
185.692,261.066386939
185.707,261.158756118
185.722,261.250416913
185.737,261.341376578
185.752,261.431642307
185.767,261.521221242
185.782,261.610120466
185.797,261.698347003
185.812,261.785907819
185.827,261.872809823
185.842,261.959059864
185.857,262.04466473
185.872,262.129631151
185.887,262.213965796
185.902,262.297675274
185.917,262.380766134
185.932,262.463244863
185.947,262.545117888
185.96,262.615589484
185.962,262.626391575
185.977,262.707072229
185.992,262.787166093
186.007,262.86667935
186.022,262.945618123
186.037,263.023988471
186.052,263.101796394
186.06,263.143066037
186.067,263.179047831
186.082,263.255748661
186.097,263.331904701
186.112,263.407521709
186.127,263.482605382
186.142,263.557161357
186.157,263.631195211
186.172,263.704712464
186.187,263.777718572
186.202,263.850218936
186.217,263.922218897
186.232,263.993723738
186.247,264.064738684
186.262,264.135268903
186.277,264.205319503
186.292,264.274895537
186.307,264.344002003
186.322,264.41264384
186.337,264.480825932
186.352,264.548553108
186.367,264.615830143
186.382,264.682661755
186.397,264.74905261
186.412,264.81500732
186.427,264.880530442
186.442,264.945626482
186.457,265.010299895
186.472,265.074555078
186.487,265.138396384
186.502,265.201828112
186.517,265.264854508
186.532,265.327479773
186.547,265.389708052
186.562,265.451543448
186.577,265.51299001
186.592,265.574051742
186.607,265.634732598
186.622,265.695036487
186.637,265.75496727
186.652,265.814528761
186.667,265.873724731
186.682,265.932558903
186.697,265.991034957
186.71,266.041427336
186.712,266.049156527
186.727,266.106927206
186.742,266.16435054
186.757,266.221430035
186.772,266.278169154
186.787,266.334571317
186.802,266.390639903
186.817,266.446378253
186.832,266.501789662
186.847,266.556877388
186.862,266.611644651
186.877,266.666094629
186.892,266.720230464
186.907,266.774055256
186.922,266.827572071
186.937,266.880783937
186.952,266.933693843
186.967,266.986304743
186.982,267.038619556
186.997,267.090641165
187.012,267.142372416
187.027,267.193816122
187.042,267.244975062
187.057,267.295851981
187.072,267.34644959
187.087,267.396770566
187.102,267.446817555
187.117,267.496593172
187.132,267.546099996
187.147,267.59534058
187.162,267.644317441
187.177,267.693033068
187.192,267.74148992
187.207,267.789690425
187.222,267.837636982
187.237,267.885331963
187.252,267.932777705
187.267,267.979976525
187.282,268.026930705
187.297,268.073642503
187.312,268.120114149
187.327,268.166347846
187.342,268.21234577
187.357,268.258110071
187.372,268.303642874
187.387,268.348946277
187.402,268.394022352
187.417,268.438873149
187.432,268.483500691
187.447,268.527906977
187.46,268.566214982
187.462,268.572093984
187.477,268.616063662
187.492,268.65981794
187.507,268.703358725
187.522,268.746687897
187.537,268.789807317
187.552,268.832718823
187.567,268.87542423
187.582,268.917925336
187.597,268.96022391
187.612,269.002321706
187.627,269.044220455
187.642,269.085921868
187.657,269.127427634
187.672,269.168739426
187.687,269.209858893
187.702,269.250787668
187.717,269.291527362
187.732,269.332079569
187.747,269.372445862
187.762,269.412627799
187.777,269.452626917
187.792,269.492444736
187.807,269.532082758
187.822,269.571542467
187.837,269.610825332
187.852,269.649932803
187.867,269.688866311
187.882,269.727627275
187.897,269.766217096
187.912,269.804637156
187.927,269.842888826
187.942,269.880973456
187.957,269.918892384
187.972,269.956646931
187.987,269.994238404
188.002,270.031668093
188.017,270.068937277
188.032,270.106047216
188.047,270.14299916
188.062,270.179794339
188.077,270.216433976
188.092,270.252919274
188.107,270.289251427
188.122,270.325431611
188.137,270.361460993
188.152,270.397340725
188.167,270.433071946
188.182,270.468655781
188.197,270.504093345
188.21,270.534688435
188.212,270.539385739
188.227,270.574534051
188.242,270.609539359
188.257,270.644402726
188.272,270.679125208
188.287,270.713707842
188.302,270.748151661
188.317,270.782457682
188.332,270.816626912
188.347,270.850660348
188.362,270.884558972
188.377,270.918323763
188.392,270.951955681
188.407,270.985455679
188.422,271.018824702
188.437,271.05206368
188.452,271.085173536
188.467,271.118155183
188.482,271.151009522
188.497,271.183737446
188.512,271.216339839
188.527,271.248817572
188.542,271.281171512
188.557,271.313402512
188.572,271.345511418
188.587,271.377499067
188.602,271.409366285
188.617,271.441113893
188.632,271.472742701
188.647,271.50425351
188.66,271.531468043
188.662,271.535647114
188.677,271.566924295
188.692,271.598085833
188.707,271.629132495
188.722,271.660065041
188.737,271.690884223
