# 78954 TBPB Grantley Adams Observations at 12Z 12 Jun 2019
Frequency [GHz],TB
175.31,280.933861279
175.322,280.912812363
175.337,280.886415973
175.352,280.859924532
175.367,280.833337677
175.382,280.806655044
175.397,280.779876267
175.412,280.753000973
175.427,280.726028789
175.442,280.698959339
175.457,280.671792241
175.472,280.644527113
175.487,280.617163567
175.502,280.589701215
175.517,280.562139661
175.532,280.534478511
175.547,280.506717365
175.562,280.478855817
175.577,280.450893463
175.592,280.422829892
175.607,280.39466469
175.622,280.366397441
175.637,280.338027722
175.652,280.309555111
175.667,280.28097918
175.682,280.252299497
175.697,280.223515627
175.712,280.194627131
175.727,280.165633567
175.742,280.136534489
175.757,280.107329446
175.772,280.078017987
175.787,280.048599652
175.802,280.01907398
175.817,279.989440507
175.832,279.959698763
175.847,279.929848275
175.862,279.899888566
175.877,279.869819156
175.892,279.839639559
175.907,279.809349286
175.922,279.778947845
175.937,279.748434738
175.952,279.717809464
175.967,279.687071517
175.982,279.656220388
175.997,279.625255563
176.012,279.594176524
176.027,279.562982748
176.042,279.53167371
176.057,279.500248877
176.072,279.468707715
176.087,279.437049684
176.102,279.40527424
176.117,279.373380834
176.132,279.341368913
176.147,279.309237921
176.162,279.276987294
176.177,279.244616466
176.192,279.212124866
176.207,279.179511918
176.222,279.146777043
176.237,279.113919654
176.252,279.080939162
176.267,279.047834973
176.282,279.014606488
176.297,278.981253102
176.31,278.952245333
176.312,278.947774207
176.327,278.914169189
176.342,278.88043743
176.357,278.846578307
176.372,278.812591191
176.387,278.778475449
176.402,278.744230443
176.417,278.70985553
176.432,278.675350063
176.447,278.640713387
176.46,278.610588294
176.462,278.605944846
176.477,278.571043775
176.492,278.536009506
176.507,278.500841366
176.522,278.465538676
176.537,278.430100753
176.552,278.394526907
176.567,278.358816445
176.582,278.322968666
176.597,278.286982867
176.612,278.250858336
176.627,278.214594359
176.642,278.178190215
176.657,278.141645178
176.672,278.104958517
176.687,278.068129494
176.702,278.031157367
176.717,277.994041389
176.732,277.956780807
176.747,277.919374861
176.762,277.881822787
176.777,277.844123816
176.792,277.806277173
176.807,277.768282076
176.822,277.730137739
176.837,277.691843369
176.852,277.65339817
176.867,277.614801338
176.882,277.576052063
176.897,277.537149532
176.912,277.498092923
176.927,277.45888141
176.942,277.419514162
176.957,277.379990341
176.972,277.340309104
176.987,277.300469601
177.002,277.260470978
177.017,277.220312373
177.032,277.17999292
177.047,277.139511747
177.062,277.098867975
177.077,277.05806072
177.092,277.017089093
177.107,276.975952197
177.122,276.934649131
177.137,276.893178986
177.152,276.85154085
177.167,276.809733803
177.182,276.76775692
177.197,276.725609268
177.21,276.688942447
177.212,276.683289911
177.227,276.640797906
177.242,276.598132303
177.257,276.555292147
177.272,276.512276478
177.287,276.469084327
177.302,276.425714722
177.31,276.40251137
177.317,276.382166684
177.332,276.338439229
177.347,276.294531363
177.362,276.250442092
177.377,276.206170412
177.392,276.161715314
177.407,276.117075784
177.422,276.0722508
177.437,276.027239335
177.452,275.982040358
177.467,275.936652828
177.482,275.891075702
177.497,275.84530793
177.512,275.799348453
177.527,275.753196211
177.542,275.706850134
177.557,275.660309149
177.572,275.613572175
177.587,275.566638126
177.602,275.519505911
177.617,275.472174431
177.632,275.424642583
177.647,275.376909258
177.66,275.335376541
177.662,275.32897334
177.677,275.280833709
177.692,275.232489238
177.707,275.183938794
177.722,275.13518124
177.737,275.08621543
177.752,275.037040217
177.767,274.987654444
177.782,274.938056952
177.797,274.888246573
177.812,274.838222135
177.827,274.787982462
177.842,274.73752637
177.857,274.686852671
177.872,274.635960171
177.887,274.584847671
177.902,274.533513966
177.917,274.481957847
177.932,274.430178098
177.947,274.3781735
177.96,274.332920021
177.962,274.325942825
177.977,274.273484844
177.992,274.220798321
178.007,274.167882016
178.022,274.114734681
178.037,274.061355067
178.052,274.007741917
178.067,273.953893972
178.082,273.899809966
178.097,273.845488628
178.112,273.790928684
178.127,273.736128854
178.142,273.681087855
178.157,273.625804399
178.172,273.570277192
178.187,273.514504936
178.202,273.458486332
178.217,273.402220072
178.232,273.345704847
178.247,273.288939342
178.262,273.231922241
178.277,273.17465222
178.292,273.117127955
178.307,273.059348115
178.322,273.001311367
178.337,272.943016375
178.352,272.884461798
178.367,272.825646291
178.382,272.766568509
178.397,272.707227099
178.41,272.655583587
178.412,272.64762071
178.427,272.587747983
178.442,272.52760756
178.457,272.467198077
178.472,272.40651817
178.487,272.34556647
178.502,272.284341606
178.517,272.222842206
178.532,272.161066894
178.547,272.099014292
178.562,272.036683019
178.577,271.974071696
178.592,271.911178936
178.607,271.848003355
178.622,271.784543565
178.637,271.720798177
178.652,271.6567658
178.667,271.592445044
178.682,271.527834514
178.697,271.462932816
178.712,271.397738556
178.727,271.332250336
178.742,271.266466762
178.757,271.200386435
178.772,271.134007957
178.787,271.067329931
178.802,271.000350958
178.817,270.933069639
178.832,270.865484577
178.847,270.797594374
178.862,270.729397631
178.877,270.660892952
178.892,270.592078939
178.907,270.522954198
178.922,270.453517333
178.937,270.383766951
178.952,270.313701658
178.967,270.243320063
178.982,270.172620777
178.997,270.101602412
179.012,270.03026358
179.027,269.958602898
179.042,269.886618983
179.057,269.814310455
179.072,269.741675937
179.087,269.668714051
179.102,269.595423427
179.117,269.521802694
179.132,269.447850485
179.147,269.373565435
179.16,269.308914777
179.162,269.298946186
179.177,269.223991379
179.192,269.148699659
179.207,269.073069678
179.222,268.997100089
179.237,268.920789548
179.252,268.844136719
179.267,268.767140265
179.282,268.689798858
179.297,268.612111171
179.312,268.534075884
179.327,268.45569168
179.342,268.376957248
179.357,268.297871281
179.372,268.218432477
179.387,268.13863954
179.402,268.058491178
179.417,267.977986106
179.432,267.897123042
179.447,267.815900713
179.462,267.734317847
179.477,267.652373182
179.492,267.570065459
179.507,267.487393427
179.522,267.404355838
179.537,267.320951453
179.552,267.237179037
179.567,267.153037361
179.582,267.068525204
179.597,266.983641349
179.612,266.898384586
179.627,266.812753712
179.642,266.726747527
179.657,266.640364842
179.672,266.553604469
179.687,266.46646523
179.702,266.378945952
179.717,266.291045466
179.732,266.202762612
179.747,266.114096234
179.762,266.025045182
179.777,265.935608312
179.792,265.845784486
179.807,265.755572571
179.822,265.664971439
179.837,265.573979969
179.852,265.482597043
179.867,265.390821549
179.882,265.29865238
179.897,265.206088432
179.91,265.125546162
179.912,265.113128606
179.927,265.01977181
179.942,264.92601695
179.957,264.831862942
179.972,264.7373087
179.987,264.642353144
180.002,264.546995195
180.017,264.451233779
180.032,264.355067821
180.047,264.258496249
180.062,264.161517991
180.077,264.064131979
180.092,263.966337142
180.107,263.868132411
180.122,263.769516715
180.137,263.670488982
180.152,263.571048141
180.167,263.471193115
180.182,263.370922828
180.197,263.270236198
180.212,263.169132142
180.227,263.067609569
180.242,262.965667386
180.257,262.863304493
180.272,262.760519783
180.287,262.657312143
180.302,262.553680452
180.317,262.449623579
180.332,262.345140384
180.347,262.240229719
180.362,262.134890422
180.377,262.029121319
180.392,261.922921226
180.407,261.816288944
180.422,261.709223257
180.437,261.601722937
180.452,261.493786737
180.467,261.385413394
180.482,261.276601626
180.497,261.167350132
180.512,261.057657588
180.527,260.947522652
180.542,260.836943957
180.557,260.725920112
180.56,260.703661802
180.572,260.614449704
180.587,260.502531291
180.602,260.390163405
180.617,260.27734455
180.632,260.164073201
180.647,260.050347801
180.66,259.951417285
180.662,259.936166763
180.677,259.821528466
180.692,259.706431257
180.707,259.590873445
180.722,259.474853306
180.737,259.358369075
180.752,259.241418951
180.767,259.124001093
180.782,259.006113618
180.797,258.887754602
180.812,258.768922078
180.827,258.649614035
180.842,258.529828415
180.857,258.409563117
180.872,258.288815989
180.887,258.167584835
180.902,258.045867407
180.917,257.923661408
180.932,257.80096449
180.947,257.677774253
180.962,257.554088245
180.977,257.429903962
180.992,257.305218845
181.007,257.180030281
181.022,257.054335602
181.037,256.928132087
181.052,256.801416956
181.067,256.674187376
181.082,256.546440457
181.097,256.418173254
181.112,256.289382765
181.127,256.160065932
181.142,256.030219643
181.157,255.89984073
181.172,255.768925969
181.187,255.637472085
181.202,255.505475746
181.217,255.372933569
181.232,255.239842121
181.247,255.106197917
181.262,254.971997422
181.277,254.837237056
181.292,254.701913191
181.307,254.566022156
181.31,254.538775562
181.322,254.429560236
181.337,254.292523678
181.352,254.15490869
181.367,254.016711444
181.382,253.877928081
181.397,253.738554711
181.412,253.598587418
181.427,253.45802226
181.442,253.316855278
181.457,253.175082496
181.472,253.032699922
181.487,252.889703559
181.502,252.746089405
181.517,252.601853455
181.532,252.456991712
181.547,252.311500186
181.562,252.165374902
181.577,252.018611904
181.592,251.871207261
181.607,251.723157073
181.622,251.574457474
181.637,251.425104642
181.652,251.275094799
181.667,251.124424225
181.682,250.973089258
181.697,250.821086301
181.712,250.668411832
181.727,250.515062407
181.742,250.361034668
181.757,250.206325348
181.772,250.050931282
181.787,249.894849408
181.802,249.738076776
181.817,249.580610555
181.832,249.42244804
181.847,249.263586656
181.862,249.104023963
181.877,248.943757668
181.892,248.782785623
181.907,248.621105834
181.922,248.458716466
181.937,248.295615847
181.952,248.131802468
181.967,247.967274994
181.982,247.802032259
181.997,247.636073269
182.012,247.469397209
182.027,247.302003435
182.042,247.133891475
182.057,246.965061031
182.06,246.931208709
182.072,246.795511967
182.087,246.625244312
182.102,246.454258245
182.117,246.282554094
182.132,246.110132316
182.147,245.936993492
182.162,245.763138303
182.177,245.588567518
182.192,245.413281967
182.207,245.237282518
182.222,245.060570043
182.237,244.883145391
182.252,244.705009343
182.267,244.526162572
182.282,244.346605589
182.297,244.166338691
182.312,243.985361894
182.327,243.803674861
182.342,243.621276826
182.357,243.438166496
182.372,243.254341957
182.387,243.069800554
182.402,242.884538767
182.417,242.698552069
182.432,242.511834764
182.447,242.324379808
182.462,242.136178614
182.477,241.947220823
182.492,241.757494055
182.507,241.566983633
182.522,241.375672265
182.537,241.183539694
182.552,240.990562304
182.567,240.796712676
182.582,240.601959094
182.597,240.406264984
182.612,240.209588288
182.627,240.01188075
182.642,239.813087125
182.657,239.613144274
182.672,239.411980145
182.687,239.20951262
182.702,239.005648215
182.717,238.800280594
182.732,238.593288895
182.747,238.38453582
182.762,238.173865466
182.777,237.96110086
182.792,237.746041145
182.807,237.528458388
182.822,237.308093928
182.837,237.084654234
182.852,236.85780618
182.867,236.627171681
182.882,236.392321613
182.897,236.15276893
182.912,235.907960929
182.927,235.657270591
182.942,235.399986979
182.957,235.135304738
182.972,234.86231281
182.987,234.579982646
183.002,234.287156457
183.017,233.982536412
183.032,233.664676327
183.047,233.331978357
183.062,232.982698718
183.077,232.614968867
183.092,232.226842343
183.107,231.81638345
183.122,231.381823465
183.137,230.921825173
183.152,230.435920395
183.167,229.925222349
183.182,229.39356988
183.197,228.849334088
183.212,228.308184621
183.227,227.797052973
183.242,227.358898121
183.257,227.05522423
183.367,227.106010346
183.382,227.445874594
183.397,227.902896429
183.412,228.420275701
183.427,228.959636706
183.442,229.497379378
183.457,230.02001807
183.472,230.520541661
183.487,230.995927925
183.502,231.44553542
183.517,231.87008975
183.532,232.271054382
183.547,232.650245386
183.562,233.009599515
183.577,233.35103824
183.592,233.67639154
183.607,233.987358669
183.622,234.285491521
183.637,234.572191545
183.652,234.848714488
183.667,235.116179409
183.682,235.375579732
183.697,235.627794982
183.712,235.873602406
183.727,236.113688007
183.742,236.348656774
183.757,236.579041995
183.772,236.805313631
183.787,237.027885804
183.802,237.247123434
183.817,237.463348101
183.832,237.676843227
183.847,237.887858617
183.862,238.09661446
183.877,238.30330484
183.892,238.508100817
183.907,238.711153136
183.922,238.912594598
183.937,239.112542157
183.952,239.311098752
183.967,239.50835493
183.982,239.704390267
183.997,239.899274628
184.012,240.09306928
184.027,240.285827868
184.042,240.47759729
184.057,240.668418463
184.072,240.858327007
184.087,241.047353849
184.102,241.235525767
184.117,241.422865862
184.132,241.60939399
184.147,241.795127139
184.162,241.980079771
184.177,242.16426412
184.192,242.347690466
184.207,242.530367374
184.222,242.71230191
184.237,242.893499834
184.252,243.073965771
184.267,243.253703368
184.282,243.432715425
184.297,243.611004025
184.312,243.788570641
184.327,243.965416231
184.342,244.141541331
184.357,244.316946127
184.372,244.491630529
184.387,244.665594231
184.402,244.838836763
184.417,245.011357544
184.432,245.18315592
184.447,245.354231206
184.462,245.524582714
184.477,245.694209787
184.492,245.863111821
184.507,246.031288285
184.522,246.198738746
184.537,246.365462876
184.552,246.531460474
184.56,246.619695425
184.567,246.69673147
184.582,246.86127594
184.597,247.025094108
184.612,247.188186355
184.627,247.350553224
184.642,247.512195418
184.657,247.673113808
184.672,247.833309427
184.687,247.992783475
184.702,248.151537316
184.717,248.309572474
184.732,248.466890635
184.747,248.623493638
184.762,248.779383475
184.777,248.934562288
184.792,249.089032361
184.807,249.242796117
184.822,249.395856113
184.837,249.548215033
184.852,249.699875685
184.867,249.850840994
184.882,250.001113995
184.897,250.15069783
184.912,250.299595738
184.927,250.447811052
184.942,250.595347194
184.957,250.742207665
184.972,250.888396042
184.987,251.033915972
185.002,251.178771165
185.017,251.322965388
185.032,251.466502462
185.047,251.609386255
185.062,251.751620672
185.077,251.89320966
185.092,252.034157192
185.107,252.174467269
185.122,252.314143914
185.137,252.453191163
185.152,252.591613067
185.167,252.729413683
185.182,252.866597071
185.197,253.003167291
185.212,253.139128398
185.227,253.274484439
185.242,253.409239448
185.257,253.543397444
185.272,253.67696243
185.287,253.809938384
185.302,253.942329262
185.31,254.012699857
185.317,254.074138994
185.332,254.205371477
185.347,254.33603058
185.362,254.466120137
185.377,254.595643944
185.392,254.724605761
185.407,254.853009309
185.422,254.980858266
185.437,255.108156269
185.452,255.234906909
185.467,255.361113734
185.482,255.486780245
185.497,255.611909895
185.512,255.736506089
185.527,255.860572186
185.542,255.984111491
185.557,256.107127264
185.572,256.229622713
185.587,256.351600993
185.602,256.473065213
185.617,256.594018429
185.632,256.714463644
185.647,256.834403815
185.662,256.953841845
185.677,257.072780588
185.692,257.191222847
185.707,257.309171377
185.722,257.426628882
185.737,257.543598018
185.752,257.660081392
185.767,257.776081564
185.782,257.891601047
185.797,258.006642307
185.812,258.121207763
185.827,258.235299791
185.842,258.348920722
185.857,258.462072843
185.872,258.574758398
185.887,258.68697959
185.902,258.79873858
185.917,258.910037491
185.932,259.020878403
185.947,259.131263361
185.96,259.226563061
185.962,259.241194372
185.977,259.350673405
185.992,259.459702394
186.007,259.568283239
186.022,259.676417807
186.037,259.78410793
186.052,259.891355411
186.06,259.948373689
186.067,259.99816202
186.082,260.104529499
186.097,260.21045956
186.112,260.315953886
186.127,260.421014135
186.142,260.525641939
186.157,260.629838903
186.172,260.73360661
186.187,260.836946616
186.202,260.939860459
186.217,261.042349653
186.232,261.144415692
186.247,261.246060049
186.262,261.347284178
186.277,261.448089517
186.292,261.548477485
186.307,261.648449484
186.322,261.748006901
186.337,261.847151107
186.352,261.94588346
186.367,262.044205302
186.382,262.142117966
186.397,262.239622768
186.412,262.336721017
186.427,262.433414007
186.442,262.529703025
186.457,262.625589347
186.472,262.721074239
186.487,262.816158959
186.502,262.91084476
186.517,263.005132883
186.532,263.099024565
186.547,263.192521036
186.562,263.28562352
186.577,263.378333236
186.592,263.470651398
186.607,263.562579215
186.622,263.654117892
186.637,263.745268633
186.652,263.836032634
186.667,263.926411092
186.682,264.0164052
186.697,264.106016149
186.71,264.183369958
186.712,264.195245129
186.727,264.284093326
186.742,264.372561928
186.757,264.460652121
186.772,264.548365089
186.787,264.635702016
186.802,264.722664089
186.817,264.80925249
186.832,264.895468405
186.847,264.98131302
186.862,265.06678752
186.877,265.151893093
186.892,265.236630926
186.907,265.32100221
186.922,265.405008135
186.937,265.488649892
186.952,265.571928677
186.967,265.654845685
186.982,265.737402112
186.997,265.81959916
187.012,265.901438029
187.027,265.982919923
187.042,266.064046047
187.057,266.144817611
187.072,266.225235824
187.087,266.3053019
187.102,266.385017053
187.117,266.464382501
187.132,266.543399465
187.147,266.622069167
187.162,266.700392833
187.177,266.778371689
187.192,266.856006966
187.207,266.933299896
187.222,267.010251716
187.237,267.086863662
187.252,267.163136973
187.267,267.239072894
187.282,267.314672668
187.297,267.389937543
187.312,267.464868767
187.327,267.539467594
187.342,267.613735276
187.357,267.68767307
187.372,267.761282233
187.387,267.834564027
187.402,267.907519713
187.417,267.980150556
187.432,268.052457821
187.447,268.124442776
187.46,268.186570005
187.462,268.196106691
187.477,268.267450836
187.492,268.338476485
187.507,268.409184912
187.522,268.479577392
187.537,268.549655203
187.552,268.619419621
187.567,268.688871927
187.582,268.758013401
187.597,268.826845325
187.612,268.89536898
187.627,268.963585649
187.642,269.031496617
187.657,269.099103167
187.672,269.166406585
187.687,269.233408156
187.702,269.300109166
187.717,269.366510901
187.732,269.432614646
187.747,269.498421689
187.762,269.563933315
187.777,269.62915081
187.792,269.69407546
187.807,269.758708551
187.822,269.823051368
187.837,269.887105196
187.852,269.950871318
187.867,270.014351019
187.882,270.077545581
187.897,270.140456286
187.912,270.203084414
187.927,270.265431246
187.942,270.32749806
187.957,270.389286135
187.972,270.450796745
187.987,270.512031167
188.002,270.572990673
188.017,270.633676535
188.032,270.694090024
188.047,270.754232408
188.062,270.814104954
188.077,270.873708927
188.092,270.933045589
188.107,270.992116202
188.122,271.050922023
188.137,271.10946431
188.152,271.167744317
188.167,271.225763295
188.182,271.283522495
188.197,271.341023162
188.21,271.390648912
188.212,271.398266541
188.227,271.455253875
188.242,271.511986401
188.257,271.568465357
188.272,271.624691976
188.287,271.680667487
188.302,271.736393119
188.317,271.791870096
188.332,271.847099639
188.347,271.902082967
188.362,271.956821294
188.377,272.011315832
188.392,272.065567789
188.407,272.11957837
188.422,272.173348777
188.437,272.226880207
188.452,272.280173855
188.467,272.333230912
188.482,272.386052564
188.497,272.438639994
188.512,272.490994384
188.527,272.543116907
188.542,272.595008736
188.557,272.646671039
188.572,272.698104981
188.587,272.74931172
188.602,272.800292413
188.617,272.851048212
188.632,272.901580265
188.647,272.951889714
188.66,272.995312058
188.662,273.001977701
188.677,273.05184536
188.692,273.101493821
188.707,273.150924212
188.722,273.200137655
188.737,273.249135267
