# 48698 WSSS Singapore Observations at 12Z 11 Jun 2019
Frequency [GHz],TB
175.31,273.876359277
175.322,273.856985608
175.337,273.832715165
175.352,273.808385239
175.367,273.783995622
175.382,273.759546103
175.397,273.735036469
175.412,273.710466508
175.427,273.685836005
175.442,273.661144746
175.457,273.636392514
175.472,273.611579091
175.487,273.586704259
175.502,273.561767798
175.517,273.536769486
175.532,273.511709103
175.547,273.486586424
175.562,273.461401226
175.577,273.436153281
175.592,273.410842365
175.607,273.385468248
175.622,273.360030701
175.637,273.334529493
175.652,273.308964394
175.667,273.28333517
175.682,273.257641586
175.697,273.231883407
175.712,273.206060397
175.727,273.180172317
175.742,273.154218929
175.757,273.12819999
175.772,273.10211526
175.787,273.075964496
175.802,273.049747451
175.817,273.023463882
175.832,272.997113539
175.847,272.970696176
175.862,272.944211541
175.877,272.917659383
175.892,272.89103945
175.907,272.864351488
175.922,272.83759524
175.937,272.810770449
175.952,272.783876859
175.967,272.756914207
175.982,272.729882234
175.997,272.702780675
176.012,272.675609268
176.027,272.648367746
176.042,272.621055842
176.057,272.593673286
176.072,272.56621981
176.087,272.53869514
176.102,272.511099003
176.117,272.483431125
176.132,272.455691228
176.147,272.427879035
176.162,272.399994265
176.177,272.372036638
176.192,272.34400587
176.207,272.315901676
176.222,272.287723771
176.237,272.259471865
176.252,272.231145669
176.267,272.202744893
176.282,272.174269242
176.297,272.145718421
176.31,272.120913344
176.312,272.117092134
176.327,272.088390083
176.342,272.059611967
176.357,272.030757484
176.372,272.00182633
176.387,271.9728182
176.402,271.943732785
176.417,271.914569777
176.432,271.885328864
176.447,271.856009732
176.46,271.830536305
176.462,271.826612067
176.477,271.797135551
176.492,271.767579866
176.507,271.73794469
176.522,271.7082297
176.537,271.67843457
176.552,271.648558975
176.567,271.618602584
176.582,271.588565066
176.597,271.558446088
176.612,271.528245313
176.627,271.497962406
176.642,271.467597024
176.657,271.437148828
176.672,271.406617471
176.687,271.376002608
176.702,271.345303889
176.717,271.314520965
176.732,271.28365348
176.747,271.25270108
176.762,271.221663406
176.777,271.190540098
176.792,271.159330793
176.807,271.128035125
176.822,271.096652727
176.837,271.065183229
176.852,271.033626257
176.867,271.001981436
176.882,270.970248388
176.897,270.938426732
176.912,270.906516086
176.927,270.874516063
176.942,270.842426275
176.957,270.810246331
176.972,270.777975835
176.987,270.745614392
177.002,270.713161602
177.017,270.680617062
177.032,270.647980366
177.047,270.615251107
177.062,270.582428872
177.077,270.549513248
177.092,270.516503817
177.107,270.483400158
177.122,270.450201848
177.137,270.416908461
177.152,270.383519565
177.167,270.350034729
177.182,270.316453516
177.197,270.282775485
177.21,270.253509202
177.212,270.249000194
177.227,270.215127197
177.242,270.181156043
177.257,270.147086279
177.272,270.112917448
177.287,270.07864909
177.302,270.044280741
177.31,270.025909908
177.317,270.009811932
177.332,269.975242193
177.347,269.940571048
177.362,269.905798017
177.377,269.870922619
177.392,269.835944367
177.407,269.800862769
177.422,269.765677331
177.437,269.730387554
177.452,269.694992936
177.467,269.659492968
177.482,269.623887141
177.497,269.588174937
177.512,269.552355837
177.527,269.516429318
177.542,269.480394849
177.557,269.444251898
177.572,269.407999926
177.587,269.371638391
177.602,269.335166746
177.617,269.298584439
177.632,269.261890912
177.647,269.225085604
177.66,269.193096814
177.662,269.188167948
177.677,269.151137372
177.692,269.113993299
177.707,269.076735147
177.722,269.039362328
177.737,269.00187425
177.752,268.964270314
177.767,268.926549916
177.782,268.888712447
177.797,268.850757292
177.812,268.812683831
177.827,268.774491436
177.842,268.736179475
177.857,268.697747311
177.872,268.659194297
177.887,268.620519785
177.902,268.581723115
177.917,268.542803626
177.932,268.503760648
177.947,268.464593503
177.96,268.430547681
177.962,268.42530151
177.977,268.385883979
177.992,268.346340212
178.007,268.306669507
178.022,268.266871153
178.037,268.226944433
178.052,268.186888622
178.067,268.146702987
178.082,268.106386789
178.097,268.06593928
178.112,268.025359707
178.127,267.984647305
178.142,267.943801305
178.157,267.902820927
178.172,267.861705385
178.187,267.820453884
178.202,267.77906562
178.217,267.737539781
178.232,267.695875547
178.247,267.654072088
178.262,267.612128566
178.277,267.570044132
178.292,267.527817931
178.307,267.485449097
178.322,267.442936754
178.337,267.400280016
178.352,267.35747799
178.367,267.31452977
178.382,267.271434442
178.397,267.22819108
178.41,267.190593034
178.412,267.184798749
178.427,267.141256503
178.442,267.097563386
178.457,267.053718431
178.472,267.009720657
178.487,266.965569077
178.502,266.921262689
178.517,266.87680048
178.532,266.832181427
178.547,266.787404492
178.562,266.742468629
178.577,266.697372776
178.592,266.652115861
178.607,266.606696798
178.622,266.561114489
178.637,266.515367823
178.652,266.469455676
178.667,266.423376909
178.682,266.37713037
178.697,266.330714896
178.712,266.284129306
178.727,266.237372407
178.742,266.190442991
178.757,266.143339835
178.772,266.096061702
178.787,266.048607339
178.802,266.000975479
178.817,265.953164837
178.832,265.905174114
178.847,265.857001995
178.862,265.808647149
178.877,265.760108226
178.892,265.711383863
178.907,265.662472676
178.922,265.613373267
178.937,265.564084219
178.952,265.514604096
178.967,265.464931447
178.982,265.415064801
178.997,265.365002666
179.012,265.314743536
179.027,265.264285881
179.042,265.213628155
179.057,265.162768791
179.072,265.111706201
179.087,265.060438779
179.102,265.008964895
179.117,264.957282902
179.132,264.905391129
179.147,264.853287883
179.16,264.807959355
179.162,264.800971452
179.177,264.748440099
179.192,264.695692066
179.207,264.642725571
179.222,264.58953881
179.237,264.536129955
179.252,264.482497155
179.267,264.428638532
179.282,264.374552186
179.297,264.320236191
179.312,264.265688597
179.327,264.210907427
179.342,264.155890679
179.357,264.100636322
179.372,264.045142303
179.387,263.989406537
179.402,263.933426914
179.417,263.877201296
179.432,263.820727516
179.447,263.764003379
179.462,263.707026661
179.477,263.649795107
179.492,263.592306433
179.507,263.534558324
179.522,263.476548437
179.537,263.418274394
179.552,263.359733788
179.567,263.300924177
179.582,263.241843091
179.597,263.182488023
179.612,263.122856434
179.627,263.062945751
179.642,263.002753367
179.657,262.942276641
179.672,262.881512894
179.687,262.820459414
179.702,262.759113452
179.717,262.697472222
179.732,262.6355329
179.747,262.573292626
179.762,262.510748502
179.777,262.447897588
179.792,262.384736909
179.807,262.321263448
179.822,262.257474149
179.837,262.193365913
179.852,262.128935603
179.867,262.064180038
179.882,261.999095995
179.897,261.933680209
179.91,261.876715628
179.912,261.867929371
179.927,261.801840128
179.942,261.735409083
179.957,261.668632793
179.972,261.601507772
179.987,261.534030486
180.002,261.466197353
180.017,261.398004747
180.032,261.329448991
180.047,261.260526363
180.062,261.19123309
180.077,261.12156535
180.092,261.05151927
180.107,260.981090929
180.122,260.910276353
180.137,260.839071516
180.152,260.767472341
180.167,260.695474696
180.182,260.623074399
180.197,260.550267211
180.212,260.477048841
180.227,260.403414939
180.242,260.329361104
180.257,260.254882876
180.272,260.179975739
180.287,260.104635119
180.302,260.028856385
180.317,259.952634847
180.332,259.875965757
180.347,259.798844306
180.362,259.721265627
180.377,259.64322479
180.392,259.564716806
180.407,259.485736625
180.422,259.406279133
180.437,259.326339154
180.452,259.24591145
180.467,259.164990721
180.482,259.083571599
180.497,259.001648655
180.512,258.919216396
180.527,258.836269262
180.542,258.752801629
180.557,258.668807807
180.56,258.651945394
180.572,258.584282039
180.587,258.499218505
180.602,258.413611314
180.617,258.327454513
180.632,258.240742078
180.647,258.153467921
180.66,258.077371191
180.662,258.065625886
180.677,257.977209748
180.692,257.888213218
180.707,257.798629937
180.722,257.708453479
180.737,257.617677352
180.752,257.526294997
180.767,257.434299787
180.782,257.341685029
180.797,257.248443964
180.812,257.154569766
180.827,257.060055545
180.842,256.964894346
180.857,256.869079148
180.872,256.772602867
180.887,256.675458356
180.902,256.577638408
180.917,256.479135751
180.932,256.379943055
180.947,256.280052931
180.962,256.179457931
180.977,256.078150551
180.992,255.976123232
181.007,255.873368363
181.022,255.769878278
181.037,255.665645263
181.052,255.560661556
181.067,255.454919349
181.082,255.348410791
181.097,255.241127989
181.112,255.133063011
181.127,255.024207892
181.142,254.914554631
181.157,254.8040952
181.172,254.692821545
181.187,254.580725587
181.202,254.467799231
181.217,254.354034366
181.232,254.239422872
181.247,254.123956623
181.262,254.00762749
181.277,253.890427351
181.292,253.772348092
181.307,253.653381615
181.31,253.629481142
181.322,253.533519843
181.337,253.412754725
181.352,253.291078247
181.367,253.168482434
181.382,253.044959358
181.397,252.92050115
181.412,252.795100003
181.427,252.668748183
181.442,252.541438037
181.457,252.413162002
181.472,252.283912615
181.487,252.153682523
181.502,252.022464495
181.517,251.890251428
181.532,251.757036367
181.547,251.622812506
181.562,251.487573211
181.577,251.351312026
181.592,251.214022687
181.607,251.075699139
181.622,250.936335548
181.637,250.795926318
181.652,250.654466104
181.667,250.511949828
181.682,250.368372698
181.697,250.223730224
181.712,250.078018235
181.727,249.931232897
181.742,249.783370733
181.757,249.634428641
181.772,249.484403917
181.787,249.33329427
181.802,249.181097846
181.817,249.027813253
181.832,248.873439574
181.847,248.7179764
181.862,248.561423844
181.877,248.403782569
181.892,248.245053813
181.907,248.085239409
181.922,247.924341814
181.937,247.762364129
181.952,247.599310132
181.967,247.435184295
181.982,247.269991817
181.997,247.103738646
182.012,246.936431508
182.027,246.768077931
182.042,246.598686276
182.057,246.428265757
182.06,246.394059063
182.072,246.256826476
182.087,246.084379443
182.102,245.910936606
182.117,245.736510879
182.132,245.561116164
182.147,245.384767382
182.162,245.207480496
182.177,245.029272541
182.192,244.850161644
182.207,244.670167055
182.222,244.489309167
182.237,244.307609548
182.252,244.125090956
182.267,243.941777374
182.282,243.757694025
182.297,243.572867403
182.312,243.387325292
182.327,243.201096795
182.342,243.014212353
182.357,242.826703775
182.372,242.63860426
182.387,242.449948424
182.402,242.260772325
182.417,242.071113497
182.432,241.881010973
182.447,241.69050532
182.462,241.499638674
182.477,241.308454779
182.492,241.11699902
182.507,240.925318479
182.522,240.733461972
182.537,240.541480115
182.552,240.349425376
182.567,240.157352147
182.582,239.965316818
182.597,239.773377859
182.612,239.581595917
182.627,239.390033919
182.642,239.198757187
182.657,239.007833567
182.672,238.817333573
182.687,238.62733055
182.702,238.437900845
182.717,238.249124003
182.732,238.061082987
182.747,237.87386441
182.762,237.687558803
182.777,237.502260893
182.792,237.31806993
182.807,237.135090024
182.822,236.953430528
182.837,236.773206453
182.852,236.594538924
182.867,236.417555677
182.882,236.242391603
182.897,236.069189349
182.912,235.898099975
182.927,235.729283677
182.942,235.562910582
182.957,235.39916163
182.972,235.238229545
182.987,235.080319913
183.002,234.925652379
183.017,234.774461965
183.032,234.627000532
183.047,234.483538376
183.062,234.344365957
183.077,234.209795736
183.092,234.080164055
183.107,233.955832976
183.122,233.83719191
183.137,233.724658801
183.152,233.618680515
183.167,233.519731982
183.182,233.428313516
183.197,233.344945656
183.212,233.270160867
183.227,233.204491593
183.242,233.148454437
183.257,233.102530846
183.367,233.100585457
183.382,233.145803906
183.397,233.201025178
183.412,233.265757382
183.427,233.339478248
183.442,233.42165366
183.457,233.511752535
183.472,233.609257861
183.487,233.713674196
183.502,233.824532181
183.517,233.941390754
183.532,234.063837679
183.547,234.191488961
183.562,234.323987549
183.577,234.461001667
183.592,234.602222976
183.607,234.747364715
183.622,234.896159903
183.637,235.048359661
183.652,235.203731656
183.667,235.362058689
183.682,235.52313741
183.697,235.686777164
183.712,235.852798944
183.727,236.021034441
183.742,236.191325195
183.757,236.363521812
183.772,236.537483263
183.787,236.713076239
183.802,236.890174564
183.817,237.06865866
183.832,237.248415058
183.847,237.429335948
183.862,237.611318769
183.877,237.794265837
183.892,237.978083998
183.907,238.162684317
183.922,238.347981789
183.937,238.533895082
183.952,238.720346295
183.967,238.907260745
183.982,239.094566768
183.997,239.282195544
184.012,239.470080932
184.027,239.658159326
184.042,239.846369522
184.057,240.034652601
184.072,240.222951818
184.087,240.411212512
184.102,240.59938201
184.117,240.787409555
184.132,240.975246234
184.147,241.162844914
184.162,241.350160181
184.177,241.537148293
184.192,241.723767129
184.207,241.909976147
184.222,242.095736342
184.237,242.28101021
184.252,242.465761717
184.267,242.649956262
184.282,242.833560647
184.297,243.016543053
184.312,243.198873006
184.327,243.380521357
184.342,243.56146025
184.357,243.7416631
184.372,243.921104566
184.387,244.099760529
184.402,244.277608064
184.417,244.454625419
184.432,244.630791986
184.447,244.806088282
184.462,244.980495918
184.477,245.153997578
184.492,245.326576995
184.507,245.498218922
184.522,245.668909108
184.537,245.838634275
184.552,246.007382088
184.56,246.096977316
184.567,246.175141135
184.582,246.341900896
184.597,246.507651719
184.612,246.672384796
184.627,246.836092135
184.642,246.998766536
184.657,247.160401565
184.672,247.320991527
184.687,247.480531445
184.702,247.639017029
184.717,247.796444658
184.732,247.95281135
184.747,248.108114741
184.762,248.262353061
184.777,248.415525107
184.792,248.567630227
184.807,248.718668291
184.822,248.868639671
184.837,249.017545221
184.852,249.165386251
184.867,249.312164514
184.882,249.457882175
184.897,249.602541803
184.912,249.746146342
184.927,249.888699097
184.942,250.030203714
184.957,250.170664165
184.972,250.310084726
184.987,250.448469964
185.002,250.585824721
185.017,250.722154093
185.032,250.857463424
185.047,250.991758281
185.062,251.125044447
185.077,251.257327907
185.092,251.388614829
185.107,251.518911559
185.122,251.648224601
185.137,251.776560612
185.152,251.903926387
185.167,252.030328849
185.182,252.155775038
185.197,252.280272102
185.212,252.403827287
185.227,252.526447927
185.242,252.648141436
185.257,252.7689153
185.272,252.888777067
185.287,253.007734342
185.302,253.125794778
185.31,253.188396292
185.317,253.24296607
185.332,253.359255947
185.347,253.474672165
185.362,253.589222506
185.377,253.702914765
185.392,253.815756749
185.407,253.927756273
185.422,254.038921151
185.437,254.149259194
185.452,254.258778205
185.467,254.367485976
185.482,254.47539028
185.497,254.582498873
185.512,254.688819488
185.527,254.794359829
185.542,254.899127572
185.557,255.003130361
185.572,255.106375802
185.587,255.208871467
185.602,255.310624884
185.617,255.411643542
185.632,255.511934882
185.647,255.611506301
185.662,255.710365147
185.677,255.808518717
185.692,255.905974258
185.707,256.002738962
185.722,256.098819969
185.737,256.194224362
185.752,256.288959168
185.767,256.383031355
185.782,256.476447834
185.797,256.569215456
185.812,256.661341011
185.827,256.752831231
185.842,256.843692783
185.857,256.933932274
185.872,257.023556249
185.887,257.112571188
185.902,257.200983512
185.917,257.288799574
185.932,257.376025666
185.947,257.462668017
185.96,257.537290638
185.962,257.54873279
185.977,257.634226085
185.992,257.719153939
186.007,257.803522325
186.022,257.887337151
186.037,257.970604261
186.052,258.053329438
186.06,258.097229919
186.067,258.1355184
186.082,258.2171768
186.097,258.298310231
186.112,258.378924223
186.127,258.459024241
186.142,258.53861569
186.157,258.617703912
186.172,258.69629419
186.187,258.774391743
186.202,258.85200173
186.217,258.929129251
186.232,259.005779343
186.247,259.081956988
186.262,259.157667105
186.277,259.232914557
186.292,259.307704146
186.307,259.382040619
186.322,259.455928665
186.337,259.529372916
186.352,259.602377947
186.367,259.674948279
186.382,259.747088378
186.397,259.818802652
186.412,259.890095458
186.427,259.960971098
186.442,260.031433823
186.457,260.101487827
186.472,260.171137257
186.487,260.240386205
186.502,260.309238713
186.517,260.377698772
186.532,260.445770326
186.547,260.513457264
186.562,260.580763432
186.577,260.647692624
186.592,260.714248588
186.607,260.780435023
186.622,260.846255583
186.637,260.911713876
186.652,260.976813462
186.667,261.041557859
186.682,261.105950538
186.697,261.169994926
186.71,261.225220952
186.712,261.233694409
186.727,261.297052327
186.742,261.360071979
186.757,261.422756622
186.772,261.485109471
186.787,261.5471337
186.802,261.608832443
186.817,261.670208794
186.832,261.731265808
186.847,261.792006498
186.862,261.852433843
186.877,261.912550782
186.892,261.972360214
186.907,262.031865006
186.922,262.091067983
186.937,262.149971939
186.952,262.208579628
186.967,262.266893772
186.982,262.324917055
186.997,262.382652131
187.012,262.440101617
187.027,262.497268097
187.042,262.554154122
187.057,262.610762212
187.072,262.667094854
187.087,262.723154502
187.102,262.77894358
187.117,262.834464482
187.132,262.88971957
187.147,262.944711176
187.162,262.999441605
187.177,263.053913129
187.192,263.108127993
187.207,263.162088415
187.222,263.215796582
187.237,263.269254655
187.252,263.322464768
187.267,263.375429027
187.282,263.428149512
187.297,263.480628278
187.312,263.532867352
187.327,263.584868736
187.342,263.636634409
187.357,263.688166321
187.372,263.739466403
187.387,263.790536558
187.402,263.841378665
187.417,263.891994582
187.432,263.942386143
187.447,263.992555158
187.46,264.03585634
187.462,264.042503416
187.477,264.092232683
187.492,264.141744704
187.507,264.191041201
187.522,264.240123876
187.537,264.28899441
187.552,264.337654462
187.567,264.386105672
187.582,264.43434966
187.597,264.482388026
187.612,264.530222349
187.627,264.57785419
187.642,264.625285092
187.657,264.672516578
187.672,264.719550153
187.687,264.766387302
187.702,264.813029496
187.717,264.859478185
187.732,264.905734802
187.747,264.951800764
187.762,264.997677471
187.777,265.043366305
187.792,265.088868633
187.807,265.134185805
187.822,265.179319154
187.837,265.22427
187.852,265.269039645
187.867,265.313629377
187.882,265.358040468
187.897,265.402274176
187.912,265.446331743
187.927,265.490214398
187.942,265.533923356
187.957,265.577459815
187.972,265.620824963
187.987,265.664019972
188.002,265.707046001
188.017,265.749904196
188.032,265.79259569
188.047,265.835121603
188.062,265.877483042
188.077,265.919681101
188.092,265.961716863
188.107,266.003591399
188.122,266.045305765
188.137,266.086861009
188.152,266.128258165
188.167,266.169498256
188.182,266.210582295
188.197,266.251511282
188.21,266.286858415
188.212,266.292286206
188.227,266.332908046
188.242,266.373377771
188.257,266.413696338
188.272,266.453864695
188.287,266.493883777
188.302,266.533754513
188.317,266.573477819
188.332,266.613054602
188.347,266.652485759
188.362,266.691772179
188.377,266.73091474
188.392,266.76991431
188.407,266.808771751
188.422,266.847487913
188.437,266.886063639
188.452,266.924499761
188.467,266.962797105
188.482,267.000956486
188.497,267.038978714
188.512,267.076864587
188.527,267.114614896
188.542,267.152230426
188.557,267.189711952
188.572,267.22706024
188.587,267.264276053
188.602,267.301360141
188.617,267.33831325
188.632,267.375136117
188.647,267.411829472
188.66,267.443526178
188.662,267.448394038
188.677,267.484830532
188.692,267.521139661
188.707,267.557322129
188.722,267.593378631
