# 78954 TBPB Grantley Adams Observations at 12Z 26 Nov 2019
Frequency [GHz],TB
175.31,275.530588063
175.322,275.510253841
175.337,275.48477682
175.352,275.459233758
175.367,275.433624426
175.382,275.407948591
175.397,275.382206019
175.412,275.356396476
175.427,275.330519726
175.442,275.304575529
175.457,275.278563648
175.472,275.252483841
175.487,275.226335867
175.502,275.200119481
175.517,275.173834438
175.532,275.147480491
175.547,275.121057393
175.562,275.094564894
175.577,275.068002742
175.592,275.041370685
175.607,275.014668467
175.622,274.987895834
175.637,274.961052528
175.652,274.934138289
175.667,274.907152858
175.682,274.88009597
175.697,274.852967364
175.712,274.825766773
175.727,274.79849393
175.742,274.771148567
175.757,274.743730412
175.772,274.716239194
175.787,274.688674639
175.802,274.661036471
175.817,274.633324413
175.832,274.605538187
175.847,274.577677511
175.862,274.549742103
175.877,274.521731679
175.892,274.493645954
175.907,274.465484639
175.922,274.437247445
175.937,274.40893408
175.952,274.380544253
175.967,274.352077667
175.982,274.323534026
175.997,274.294913032
176.012,274.266214385
176.027,274.237437781
176.042,274.208582916
176.057,274.179649486
176.072,274.150637181
176.087,274.121545692
176.102,274.092374706
176.117,274.063123911
176.132,274.03379299
176.147,274.004381626
176.162,273.974889499
176.177,273.945316287
176.192,273.915661666
176.207,273.885925311
176.222,273.856106894
176.237,273.826206085
176.252,273.796222552
176.267,273.76615596
176.282,273.736005975
176.297,273.705772257
176.31,273.679501708
176.312,273.675454466
176.327,273.645052259
176.342,273.614565292
176.357,273.583993218
176.372,273.553335688
176.387,273.522592349
176.402,273.49176285
176.417,273.460846833
176.432,273.429843941
176.447,273.398753813
176.46,273.371738191
176.462,273.367576086
176.477,273.336310396
176.492,273.304956375
176.507,273.273513654
176.522,273.24198186
176.537,273.210360619
176.552,273.178649553
176.567,273.146848284
176.582,273.11495643
176.597,273.082973607
176.612,273.050899427
176.627,273.018733502
176.642,272.986475439
176.657,272.954124845
176.672,272.921681323
176.687,272.889144472
176.702,272.856513891
176.717,272.823789175
176.732,272.790969918
176.747,272.758055707
176.762,272.725046132
176.777,272.691940776
176.792,272.658739221
176.807,272.625441046
176.822,272.592045828
176.837,272.558553139
176.852,272.524962551
176.867,272.49127363
176.882,272.457485942
176.897,272.423599048
176.912,272.389612508
176.927,272.355525877
176.942,272.321338709
176.957,272.287050552
176.972,272.252660955
176.987,272.218169461
177.002,272.18357561
177.017,272.148878941
177.032,272.114078987
177.047,272.079175279
177.062,272.044167347
177.077,272.009054714
177.092,271.973836901
177.107,271.938513428
177.122,271.903083809
177.137,271.867547554
177.152,271.831904173
177.167,271.796153169
177.182,271.760294044
177.197,271.724326296
177.21,271.693065991
177.212,271.688249417
177.227,271.6520629
177.242,271.615766229
177.257,271.579358889
177.272,271.542840359
177.287,271.506210115
177.302,271.469467628
177.31,271.449825556
177.317,271.432612366
177.332,271.395643795
177.347,271.358561373
177.362,271.321364558
177.377,271.284052802
177.392,271.246625554
177.407,271.209082257
177.422,271.171422352
177.437,271.133645276
177.452,271.095750459
177.467,271.05773733
177.482,271.019605311
177.497,270.981353823
177.512,270.942982279
177.527,270.90449009
177.542,270.865876661
177.557,270.827141394
177.572,270.788283684
177.587,270.749302925
177.602,270.710198502
177.617,270.670969799
177.632,270.631616194
177.647,270.592137058
177.66,270.557819778
177.662,270.552531759
177.677,270.512799662
177.692,270.472940122
177.707,270.432952493
177.722,270.392836123
177.737,270.352590353
177.752,270.31221452
177.767,270.271707957
177.782,270.231069989
177.797,270.190299936
177.812,270.149397115
177.827,270.108360833
177.842,270.067190396
177.857,270.0258851
177.872,269.984444238
177.887,269.942867096
177.902,269.901152953
177.917,269.859301085
177.932,269.817310757
177.947,269.775181233
177.96,269.738555809
177.962,269.732911768
177.977,269.690501609
177.992,269.647949999
178.007,269.605256174
178.022,269.562419362
178.037,269.519438787
178.052,269.476313662
178.067,269.433043197
178.082,269.389626592
178.097,269.346063041
178.112,269.302351732
178.127,269.258491844
178.142,269.214482548
178.157,269.170323009
178.172,269.126012383
178.187,269.08154982
178.202,269.036934461
178.217,268.992165438
178.232,268.947241876
178.247,268.902162892
178.262,268.856927593
178.277,268.811535081
178.292,268.765984446
178.307,268.720274769
178.322,268.674405126
178.337,268.628374579
178.352,268.582182185
178.367,268.53582699
178.382,268.489308031
178.397,268.442624334
178.41,268.402031117
178.412,268.395774917
178.427,268.348758788
178.442,268.301574945
178.457,268.254222375
178.472,268.206700056
178.487,268.159006954
178.502,268.111142025
178.517,268.063104216
178.532,268.014892461
178.547,267.966505684
178.562,267.917942797
178.577,267.869202701
178.592,267.820284285
178.607,267.771186426
178.622,267.721907992
178.637,267.672447835
178.652,267.622804796
178.667,267.572977704
178.682,267.522965375
178.697,267.472766613
178.712,267.422380207
178.727,267.371804934
178.742,267.321039558
178.757,267.270082828
178.772,267.218933479
178.787,267.167590234
178.802,267.1160518
178.817,267.064316868
178.832,267.012384118
178.847,266.960252211
178.862,266.907919796
178.877,266.855385504
178.892,266.802647952
178.907,266.74970574
178.922,266.696557452
178.937,266.643201656
178.952,266.589636903
178.967,266.535861727
178.982,266.481874643
178.997,266.427674153
179.012,266.373258736
179.027,266.318626856
179.042,266.263776958
179.057,266.208707469
179.072,266.153416795
179.087,266.097903325
179.102,266.042165427
179.117,265.98620145
179.132,265.930009724
179.147,265.873588555
179.16,265.824503293
179.162,265.816936233
179.177,265.760051022
179.192,265.702931169
179.207,265.645574897
179.222,265.587980408
179.237,265.530145879
179.252,265.472069468
179.267,265.413749308
179.282,265.355183509
179.297,265.296370158
179.312,265.237307315
179.327,265.177993019
179.342,265.118425282
179.357,265.058602093
179.372,264.998521412
179.387,264.938181177
179.402,264.877579297
179.417,264.816713655
179.432,264.755582107
179.447,264.694182482
179.462,264.632512579
179.477,264.570570172
179.492,264.508353003
179.507,264.445858788
179.522,264.38308521
179.537,264.320029926
179.552,264.256690559
179.567,264.193064703
179.582,264.129149921
179.597,264.064943743
179.612,264.000443668
179.627,263.935647162
179.642,263.870551659
179.657,263.805154557
179.672,263.739453223
179.687,263.673444987
179.702,263.607127147
179.717,263.540496964
179.732,263.473551662
179.747,263.406288431
179.762,263.338704423
179.777,263.270796754
179.792,263.202562501
179.807,263.133998703
179.822,263.065102362
179.837,262.995870439
179.852,262.926299855
179.867,262.856387493
179.882,262.786130194
179.897,262.715524758
179.91,262.654049272
179.912,262.644567944
179.927,262.573256468
179.942,262.501587004
179.957,262.429556184
179.972,262.357160593
179.987,262.284396776
180.002,262.211261231
180.017,262.137750412
180.032,262.063860726
180.047,261.989588536
180.062,261.914930156
180.077,261.839881856
180.092,261.764439856
180.107,261.688600328
180.122,261.612359397
180.137,261.535713137
180.152,261.458657576
180.167,261.381188688
180.182,261.303302398
180.197,261.224994582
180.212,261.146261062
180.227,261.067097609
180.242,260.987499942
180.257,260.907463728
180.272,260.82698458
180.287,260.746058057
180.302,260.664679665
180.317,260.582844854
180.332,260.500549021
180.347,260.417787507
180.362,260.334555598
180.377,260.250848523
180.392,260.166661455
180.407,260.08198951
180.422,259.996827748
180.437,259.911171172
180.452,259.825014725
180.467,259.738353294
180.482,259.651181707
180.497,259.563494735
180.512,259.475287088
180.527,259.386553419
180.542,259.297288321
180.557,259.207486328
180.56,259.189461017
180.572,259.117141914
180.587,259.026249495
180.602,258.934803424
180.617,258.842797998
180.632,258.750227453
180.647,258.657085964
180.66,258.575896963
180.662,258.563367646
180.677,258.469066557
180.692,258.374176692
180.707,258.278691989
180.722,258.182606324
180.737,258.085913515
180.752,257.988607321
180.767,257.890681442
180.782,257.792129519
180.797,257.692945134
180.812,257.593121814
180.827,257.492653025
180.842,257.391532178
180.857,257.289752626
180.872,257.187307668
180.887,257.084190546
180.902,256.980394449
180.917,256.875912509
180.932,256.770737807
180.947,256.664863372
180.962,256.558282181
180.977,256.45098716
180.992,256.342971186
181.007,256.234227088
181.022,256.124747646
181.037,256.014525596
181.052,255.903553629
181.067,255.791824392
181.082,255.679330491
181.097,255.566064491
181.112,255.452018919
181.127,255.337186265
181.142,255.221558983
181.157,255.105129496
181.172,254.987890193
181.187,254.869833436
181.202,254.750951559
181.217,254.63123687
181.232,254.510681658
181.247,254.389278188
181.262,254.267018711
181.277,254.143895461
181.292,254.019900661
181.307,253.895026526
181.31,253.869945492
181.322,253.769265261
181.337,253.642609072
181.352,253.515050163
181.367,253.386580741
181.382,253.257193022
181.397,253.126879228
181.412,252.995631599
181.427,252.86344239
181.442,252.730303877
181.457,252.596208362
181.472,252.461148174
181.487,252.325115678
181.502,252.188103274
181.517,252.050103403
181.532,251.911108551
181.547,251.771111257
181.562,251.63010411
181.577,251.488079759
181.592,251.345030918
181.607,251.200950365
181.622,251.055830953
181.637,250.90966561
181.652,250.762447344
181.667,250.614169251
181.682,250.464824514
181.697,250.314406411
181.712,250.16290832
181.727,250.010323718
181.742,249.856646193
181.757,249.701869439
181.772,249.545987266
181.787,249.388993601
181.802,249.230882492
181.817,249.071648111
181.832,248.911284753
181.847,248.749786844
181.862,248.587148938
181.877,248.423365723
181.892,248.258432014
181.907,248.092342761
181.922,247.925093045
181.937,247.756678077
181.952,247.587093193
181.967,247.416333858
181.982,247.244395655
181.997,247.071274282
182.012,246.896965548
182.027,246.721465363
182.042,246.544769728
182.057,246.366874728
182.06,246.331151464
182.072,246.187776514
182.087,246.007471293
182.102,245.82595531
182.117,245.643224828
182.132,245.459276108
182.147,245.274105382
182.162,245.087708829
182.177,244.900082542
182.192,244.71122249
182.207,244.521124486
182.222,244.329784136
182.237,244.137196794
182.252,243.943357508
182.267,243.748260956
182.282,243.551901379
182.297,243.354272508
182.312,243.155367475
182.327,242.955178722
182.342,242.753697895
182.357,242.550915727
182.372,242.34682191
182.387,242.141404945
182.402,241.934651982
182.417,241.726548641
182.432,241.517078805
182.447,241.306224398
182.462,241.093965127
182.477,240.880278202
182.492,240.665138015
182.507,240.448515782
182.522,240.230379144
182.537,240.010691714
182.552,239.789412568
182.567,239.566495671
182.582,239.341889231
182.597,239.115534971
182.612,238.887367295
182.627,238.65731236
182.642,238.42528701
182.657,238.19119757
182.672,237.954938483
182.687,237.716390747
182.702,237.475420142
182.717,237.231875212
182.732,236.985584953
182.747,236.736356181
182.762,236.483970517
182.777,236.228180943
182.792,235.96870786
182.807,235.705234576
182.822,235.437402141
182.837,235.164803441
182.852,234.886976452
182.867,234.603396532
182.882,234.31346766
182.897,234.016512487
182.912,233.711761113
182.927,233.398338499
182.942,233.075250492
182.957,232.741368518
182.972,232.395413148
182.987,232.035936974
183.002,231.661307612
183.017,231.269692208
183.032,230.859045724
183.047,230.42710659
183.062,229.971405295
183.077,229.489294435
183.092,228.978012921
183.107,228.434803141
183.122,227.857108041
183.137,227.242885823
183.152,226.591092448
183.167,225.902393483
183.182,225.180169135
183.197,224.431851293
183.212,223.670543601
183.227,222.916669006
183.242,222.199012666
183.257,221.55404772
183.367,221.694273259
183.382,222.356756872
183.397,223.081895861
183.412,223.835091271
183.427,224.589804762
183.442,225.32766941
183.457,226.037214294
183.472,226.712191115
183.487,227.350020147
183.502,227.950543309
183.517,228.515102568
183.532,229.045894796
183.547,229.545538641
183.562,230.016794637
183.577,230.462391858
183.592,230.884926511
183.607,231.286807881
183.622,231.670234679
183.637,232.037190286
183.652,232.3894493
183.667,232.728590369
183.682,233.056012134
183.697,233.372950271
183.712,233.680494412
183.727,233.979604252
183.742,234.271124467
183.757,234.555798285
183.772,234.834279676
183.787,235.107144205
183.802,235.374898632
183.817,235.637989372
183.832,235.896809916
183.847,236.151707338
183.862,236.402987983
183.877,236.650922442
183.892,236.895749897
183.907,237.137681921
183.922,237.376905791
183.937,237.613587395
183.952,237.847873769
183.967,238.079895317
183.982,238.309767768
183.997,238.537593875
184.012,238.763464923
184.027,238.987462046
184.042,239.209657389
184.057,239.43011513
184.072,239.648892385
184.087,239.866040002
184.102,240.081603268
184.117,240.295622532
184.132,240.508133758
184.147,240.719169015
184.162,240.928756911
184.177,241.136922984
184.192,241.343690042
184.207,241.549078473
184.222,241.753106518
184.237,241.955790513
184.252,242.157145111
184.267,242.357183474
184.282,242.555917449
184.297,242.753357724
184.312,242.949513966
184.327,243.14439495
184.342,243.33800867
184.357,243.530362437
184.372,243.721462974
184.387,243.911316494
184.402,244.099928777
184.417,244.287305227
184.432,244.473450942
184.447,244.658370756
184.462,244.842069293
184.477,245.024551007
184.492,245.205820219
184.507,245.38588115
184.522,245.564737953
184.537,245.74239474
184.552,245.918855603
184.56,246.012480476
184.567,246.094124635
184.582,246.268205954
184.597,246.44110371
184.612,246.612822106
184.627,246.783365411
184.642,246.952737964
184.657,247.120944188
184.672,247.287988598
184.687,247.453875806
184.702,247.618610524
184.717,247.782197572
184.732,247.944641881
184.747,248.105948491
184.762,248.266122558
184.777,248.425169352
184.792,248.583094257
184.807,248.739902772
184.822,248.895600508
184.837,249.050193192
184.852,249.203686658
184.867,249.356086849
184.882,249.507399814
184.897,249.657631708
184.912,249.806788782
184.927,249.954877388
184.942,250.10190397
184.957,250.247875061
184.972,250.392797283
184.987,250.536677341
185.002,250.679522017
185.017,250.82133817
185.032,250.962132729
185.047,251.10191269
185.062,251.240685114
185.077,251.378457118
185.092,251.515235878
185.107,251.651028617
185.122,251.785842608
185.137,251.919685166
185.152,252.052563645
185.167,252.184485435
185.182,252.315457957
185.197,252.44548866
185.212,252.574585018
185.227,252.702754524
185.242,252.830004691
185.257,252.956343042
185.272,253.081777113
185.287,253.206314446
185.302,253.329962589
185.31,253.39554729
185.317,253.452729088
185.332,253.574621488
185.347,253.695647331
185.362,253.815814148
185.377,253.935129462
185.392,254.053600783
185.407,254.171235603
185.422,254.2880414
185.437,254.404025627
185.452,254.519195719
185.467,254.633559084
185.482,254.747123102
185.497,254.859895128
185.512,254.971882483
185.527,255.083092457
185.542,255.193532306
185.557,255.30320925
185.572,255.412130472
185.587,255.520303115
185.602,255.627734284
185.617,255.734431039
185.632,255.840400401
185.647,255.945649344
185.662,256.050184799
185.677,256.15401365
185.692,256.257142732
185.707,256.359578835
185.722,256.461328698
185.737,256.56239901
185.752,256.66279641
185.767,256.762527485
185.782,256.861598772
185.797,256.960016754
185.812,257.057787859
185.827,257.154918465
185.842,257.251414894
185.857,257.347283412
185.872,257.442530234
185.887,257.537161516
185.902,257.63118336
185.917,257.724601813
185.932,257.817422865
185.947,257.90965245
185.96,257.98911087
185.962,258.001296446
185.977,258.092360674
185.992,258.182850899
186.007,258.27277283
186.022,258.362132119
186.037,258.45093436
186.052,258.539185092
186.06,258.586028539
186.067,258.626889799
186.082,258.714053905
186.097,258.80068278
186.112,258.886781738
186.127,258.972356037
186.142,259.057410877
186.157,259.141951405
186.172,259.225982711
186.187,259.309509832
186.202,259.392537746
186.217,259.47507138
186.232,259.557115604
186.247,259.638675237
186.262,259.71975504
186.277,259.800359724
186.292,259.880493945
186.307,259.960162307
186.322,260.03936936
186.337,260.118119602
186.352,260.196417482
186.367,260.274267394
186.382,260.351673682
186.397,260.42864064
186.412,260.505172512
186.427,260.581273492
186.442,260.656947722
186.457,260.732199298
186.472,260.807032266
186.487,260.881450624
186.502,260.955458322
186.517,261.029059264
186.532,261.102257306
186.547,261.175056256
186.562,261.247459878
186.577,261.31947189
186.592,261.391095966
186.607,261.462335732
186.622,261.533194773
186.637,261.603676629
186.652,261.673784796
186.667,261.743522729
186.682,261.812893838
186.697,261.881901494
186.71,261.941416709
186.712,261.950549024
186.727,262.018839715
186.742,262.086776814
186.757,262.154363527
186.772,262.221603019
186.787,262.288498419
186.802,262.355052816
186.817,262.421269258
186.832,262.487150759
186.847,262.552700293
186.862,262.617920799
186.877,262.682815178
186.892,262.747386295
186.907,262.811636979
186.922,262.875570026
186.937,262.939188194
186.952,263.002494209
186.967,263.065490763
186.982,263.128180513
186.997,263.190566084
187.012,263.252650068
187.027,263.314435026
187.042,263.375923485
187.057,263.437117942
187.072,263.498020862
187.087,263.558634682
187.102,263.618961805
187.117,263.679004607
187.132,263.738765433
187.147,263.798246602
187.162,263.857450399
187.177,263.916379086
187.192,263.975034895
187.207,264.033420029
187.222,264.091536667
187.237,264.149386959
187.252,264.20697303
187.267,264.264296978
187.282,264.321360875
187.297,264.378166769
187.312,264.434716683
187.327,264.491012614
187.342,264.547056536
187.357,264.602850398
187.372,264.658396128
187.387,264.713695627
187.402,264.768750775
187.417,264.82356343
187.432,264.878135427
187.447,264.932468579
187.46,264.979365497
187.462,264.986564678
187.477,265.040425492
187.492,265.094052773
187.507,265.147448247
187.522,265.200613622
187.537,265.253550587
187.552,265.306260809
187.567,265.358745936
187.582,265.411007598
187.597,265.463047404
187.612,265.514866945
187.627,265.566467794
187.642,265.617851505
187.657,265.669019616
187.672,265.719973644
187.687,265.770715092
187.702,265.821245443
187.717,265.871566165
187.732,265.921678708
187.747,265.971584507
187.762,266.02128498
187.777,266.070781528
187.792,266.120075538
187.807,266.169168381
187.822,266.218061412
187.837,266.266755971
187.852,266.315253384
187.867,266.363554963
187.882,266.411662003
187.897,266.459575787
187.912,266.507297583
187.927,266.554828646
187.942,266.602170217
187.957,266.649323523
187.972,266.696289778
187.987,266.743070185
188.002,266.789665931
188.017,266.836078192
188.032,266.882308133
188.047,266.928356903
188.062,266.974225642
188.077,267.019915477
188.092,267.065427524
188.107,267.110762886
188.122,267.155922655
188.137,267.200907914
188.152,267.245719731
188.167,267.290359166
188.182,267.334827267
188.197,267.379125073
188.21,267.417379547
188.212,267.423253609
188.227,267.467213894
188.242,267.511006933
188.257,267.554633724
188.272,267.598095254
188.287,267.641392499
188.302,267.684526427
188.317,267.727497995
188.332,267.770308154
188.347,267.812957841
188.362,267.855447988
188.377,267.897779516
188.392,267.939953337
188.407,267.981970356
188.422,268.023831467
188.437,268.065537557
188.452,268.107089505
188.467,268.148488182
188.482,268.189734448
188.497,268.230829159
188.512,268.271773161
188.527,268.312567291
188.542,268.353212382
188.557,268.393709255
188.572,268.434058726
188.587,268.474261604
188.602,268.514318691
188.617,268.554230778
188.632,268.593998655
188.647,268.633623099
188.66,268.667848861
188.662,268.673104884
188.677,268.712444777
188.692,268.751643536
188.707,268.790701914
188.722,268.829620657
