# 78954 TBPB Grantley Adams Observations at 12Z 24 Nov 2019
Frequency [GHz],TB
175.31,271.528944699
175.322,271.507144861
175.337,271.47983493
175.352,271.452457998
175.367,271.425013864
175.382,271.397502325
175.397,271.369923181
175.412,271.342276226
175.427,271.314561257
175.442,271.286778068
175.457,271.258926454
175.472,271.231006206
175.487,271.203017116
175.502,271.174958975
175.517,271.146831573
175.532,271.118634699
175.547,271.09036814
175.562,271.062031684
175.577,271.033625116
175.592,271.005148221
175.607,270.976600783
175.622,270.947982585
175.637,270.919293408
175.652,270.890533034
175.667,270.861701242
175.682,270.832797811
175.697,270.803822518
175.712,270.774775141
175.727,270.745655454
175.742,270.716463233
175.757,270.687198251
175.772,270.657860281
175.787,270.628449093
175.802,270.598964458
175.817,270.569406145
175.832,270.539773923
175.847,270.510067558
175.862,270.480286816
175.877,270.450431463
175.892,270.420501261
175.907,270.390495974
175.922,270.360415362
175.937,270.330259187
175.952,270.300027206
175.967,270.26971918
175.982,270.239334863
175.997,270.208874012
176.012,270.178336382
176.027,270.147721725
176.042,270.117029795
176.057,270.086260341
176.072,270.055413114
176.087,270.024487863
176.102,269.993484334
176.117,269.962402274
176.132,269.931241428
176.147,269.90000154
176.162,269.868682352
176.177,269.837283605
176.192,269.805805039
176.207,269.774246393
176.222,269.742607405
176.237,269.71088781
176.252,269.679087344
176.267,269.64720574
176.282,269.615242729
176.297,269.583198045
176.31,269.55535971
176.312,269.551071414
176.327,269.518862568
176.342,269.486571231
176.357,269.45419713
176.372,269.421739989
176.387,269.38919953
176.402,269.356575476
176.417,269.323867547
176.432,269.291075461
176.447,269.258198936
176.46,269.229637425
176.462,269.225237687
176.477,269.192191429
176.492,269.159059875
176.507,269.125842736
176.522,269.092539724
176.537,269.059150546
176.552,269.02567491
176.567,268.992112522
176.582,268.958463085
176.597,268.924726303
176.612,268.890901877
176.627,268.856989506
176.642,268.822988888
176.657,268.788899721
176.672,268.754721699
176.687,268.720454516
176.702,268.686097864
176.717,268.651651432
176.732,268.61711491
176.747,268.582487984
176.762,268.547770341
176.777,268.512961663
176.792,268.478061633
176.807,268.443069932
176.822,268.407986237
176.837,268.372810227
176.852,268.337541575
176.867,268.302179957
176.882,268.266725043
176.897,268.231176505
176.912,268.195534009
176.927,268.159797223
176.942,268.123965811
176.957,268.088039437
176.972,268.052017761
176.987,268.015900442
177.002,267.979687139
177.017,267.943377505
177.032,267.906971196
177.047,267.870467862
177.062,267.833867153
177.077,267.797168717
177.092,267.7603722
177.107,267.723477246
177.122,267.686483496
177.137,267.64939059
177.152,267.612198166
177.167,267.57490586
177.182,267.537513305
177.197,267.500020133
177.21,267.467444377
177.212,267.462425974
177.227,267.424730454
177.242,267.386933198
177.257,267.34903383
177.272,267.311031971
177.287,267.272927239
177.302,267.234719249
177.31,267.214299301
177.317,267.196407617
177.332,267.157991954
177.347,267.11947187
177.362,267.080846971
177.377,267.042116863
177.392,267.003281147
177.407,266.964339425
177.422,266.925291293
177.437,266.886136346
177.452,266.846874178
177.467,266.807504378
177.482,266.768026535
177.497,266.728440233
177.512,266.688745054
177.527,266.64894058
177.542,266.609026387
177.557,266.569002049
177.572,266.52886714
177.587,266.488621228
177.602,266.448263879
177.617,266.407794658
177.632,266.367213126
177.647,266.32651884
177.66,266.291158911
177.662,266.285711357
177.677,266.244790227
177.692,266.203755002
177.707,266.162605228
177.722,266.121340448
177.737,266.079960202
177.752,266.038464029
177.767,265.996851463
177.782,265.955122035
177.797,265.913275273
177.812,265.871310702
177.827,265.829227845
177.842,265.787026219
177.857,265.74470534
177.872,265.70226472
177.887,265.659703868
177.902,265.617022287
177.917,265.574219482
177.932,265.531294948
177.947,265.488248182
177.96,265.450841719
177.962,265.445078674
177.977,265.401785912
177.992,265.35836938
178.007,265.314828557
178.022,265.271162921
178.037,265.227371945
178.052,265.183455096
178.067,265.13941184
178.082,265.095241639
178.097,265.050943949
178.112,265.006518223
178.127,264.961963912
178.142,264.917280458
178.157,264.872467305
178.172,264.827523888
178.187,264.782449639
178.202,264.737243988
178.217,264.691906357
178.232,264.646436167
178.247,264.600832832
178.262,264.555095762
178.277,264.509224365
178.292,264.46321804
178.307,264.417076185
178.322,264.370798192
178.337,264.324383448
178.352,264.277831335
178.367,264.23114123
178.382,264.184312507
178.397,264.137344533
178.41,264.096525824
178.412,264.09023667
178.427,264.042988275
178.442,263.995598701
178.457,263.948067294
178.472,263.900393396
178.487,263.852576344
178.502,263.804615467
178.517,263.756510091
178.532,263.708259536
178.547,263.659863115
178.562,263.611320137
178.577,263.562629904
178.592,263.513791713
178.607,263.464804854
178.622,263.415668612
178.637,263.366382265
178.652,263.316945086
178.667,263.267356341
178.682,263.217615289
178.697,263.167721185
178.712,263.117673274
178.727,263.067470798
178.742,263.017112989
178.757,262.966599076
178.772,262.915928278
178.787,262.865099808
178.802,262.814112874
178.817,262.762966674
178.832,262.7116604
178.847,262.660193238
178.862,262.608564364
178.877,262.556772949
178.892,262.504818157
178.907,262.45269914
178.922,262.400415048
178.937,262.34796502
178.952,262.295348186
178.967,262.242563671
178.982,262.189610591
178.997,262.136488052
179.012,262.083195153
179.027,262.029730985
179.042,261.97609463
179.057,261.922285161
179.072,261.868301643
179.087,261.814143131
179.102,261.759808672
179.117,261.705297304
179.132,261.650608055
179.147,261.595739943
179.16,261.548042135
179.162,261.54069198
179.177,261.485463163
179.192,261.430052484
179.207,261.374458923
179.222,261.318681449
179.237,261.262719024
179.252,261.206570597
179.267,261.150235107
179.282,261.093711483
179.297,261.036998644
179.312,260.980095497
179.327,260.923000937
179.342,260.865713851
179.357,260.808233112
179.372,260.750557581
179.387,260.692686111
179.402,260.634617539
179.417,260.576350692
179.432,260.517884386
179.447,260.459217421
179.462,260.400348589
179.477,260.341276665
179.492,260.282000415
179.507,260.222518588
179.522,260.162829923
179.537,260.102933143
179.552,260.04282696
179.567,259.982510068
179.582,259.921981151
179.597,259.861238877
179.612,259.800281897
179.627,259.739108852
179.642,259.677718363
179.657,259.616109039
179.672,259.554279471
179.687,259.492228236
179.702,259.429953893
179.717,259.367454987
179.732,259.304730045
179.747,259.241777575
179.762,259.178596071
179.777,259.115184007
179.792,259.051539839
179.807,258.987662008
179.822,258.923548932
179.837,258.859199012
179.852,258.79461063
179.867,258.729782147
179.882,258.664711906
179.897,258.599398228
179.91,258.542594814
179.912,258.533839413
179.927,258.46803374
179.942,258.401979467
179.957,258.335674828
179.972,258.269118037
179.987,258.202307283
180.002,258.135240731
180.017,258.067916525
180.032,258.00033278
180.047,257.93248759
180.062,257.864379021
180.077,257.796005114
180.092,257.727363882
180.107,257.658453312
180.122,257.589271362
180.137,257.519815962
180.152,257.450085013
180.167,257.380076386
180.182,257.30978792
180.197,257.239217425
180.212,257.168362677
180.227,257.097221421
180.242,257.025791366
180.257,256.95407019
180.272,256.882055532
180.287,256.809744998
180.302,256.737136156
180.317,256.664226536
180.332,256.591013629
180.347,256.517494886
180.362,256.443667719
180.377,256.369529497
180.392,256.295077545
180.407,256.220309146
180.422,256.145221536
180.437,256.069811908
180.452,255.994077404
180.467,255.91801512
180.482,255.841622099
180.497,255.764895337
180.512,255.687831773
180.527,255.610428296
180.542,255.532681735
180.557,255.454588867
180.56,255.438928448
180.572,255.376146407
180.587,255.297351011
180.602,255.218199274
180.617,255.138687727
180.632,255.058812835
180.647,254.978570999
180.66,254.908728421
180.662,254.897958547
180.677,254.81697174
180.692,254.735606766
180.707,254.653859736
180.722,254.571726688
180.737,254.489203577
180.752,254.406286281
180.767,254.322970592
180.782,254.239252218
180.797,254.155126778
180.812,254.070589802
180.827,253.985636725
180.842,253.900262887
180.857,253.814463532
180.872,253.728233799
180.887,253.641568725
180.902,253.55446324
180.917,253.466912164
180.932,253.378910204
180.947,253.290451949
180.962,253.201531869
180.977,253.112144313
180.992,253.022283499
181.007,252.931943518
181.022,252.841118326
181.037,252.74980174
181.052,252.657987434
181.067,252.565668939
181.082,252.472839633
181.097,252.37949274
181.112,252.285621323
181.127,252.191218284
181.142,252.096276353
181.157,252.000788089
181.172,251.904745869
181.187,251.808141888
181.202,251.710968151
181.217,251.613216467
181.232,251.514878443
181.247,251.415945482
181.262,251.316408771
181.277,251.216259278
181.292,251.115487746
181.307,251.014084682
181.31,250.993727433
181.322,250.912040356
181.337,250.809344789
181.352,250.705987748
181.367,250.601958736
181.382,250.497246987
181.397,250.391841455
181.412,250.285730807
181.427,250.178903413
181.442,250.071347337
181.457,249.96305033
181.472,249.853999815
181.487,249.744182883
181.502,249.633586275
181.517,249.522196379
181.532,249.409999212
181.547,249.296980414
181.562,249.18312523
181.577,249.068418501
181.592,248.95284465
181.607,248.836387667
181.622,248.719031098
181.637,248.600758026
181.652,248.481551057
181.667,248.361392307
181.682,248.24026338
181.697,248.118145355
181.712,247.995018765
181.727,247.870863579
181.742,247.745659185
181.757,247.619384362
181.772,247.492017266
181.787,247.363535405
181.802,247.233915613
181.817,247.103134026
181.832,246.971166061
181.847,246.83798638
181.862,246.70356887
181.877,246.567886608
181.892,246.430911829
181.907,246.292615896
181.922,246.152969265
181.937,246.011941442
181.952,245.869500953
181.967,245.725615296
181.982,245.580250901
181.997,245.433373082
182.012,245.284945992
182.027,245.134932564
182.042,244.983294464
182.057,244.829992028
182.06,244.799128233
182.072,244.674984202
182.087,244.518228475
182.102,244.359680807
182.117,244.199295556
182.132,244.037025399
182.147,243.87282124
182.162,243.706632124
182.177,243.538405134
182.192,243.368085288
182.207,243.195615423
182.222,243.020936071
182.237,242.843985333
182.252,242.664698729
182.267,242.48300905
182.282,242.29884619
182.297,242.112136968
182.312,241.922804935
182.327,241.730770165
182.342,241.535949027
182.357,241.338253943
182.372,241.13759312
182.387,240.933870263
182.402,240.726984266
182.417,240.516828872
182.432,240.303292309
182.447,240.086256896
182.462,239.865598614
182.477,239.641186644
182.492,239.412882871
182.507,239.180541345
182.522,238.944007708
182.537,238.703118573
182.552,238.457700872
182.567,238.207571149
182.582,237.95253483
182.597,237.692385445
182.612,237.426903828
182.627,237.155857304
182.642,236.878998858
182.657,236.596066335
182.672,236.306781681
182.687,236.010850272
182.702,235.70796038
182.717,235.397782865
182.732,235.079971161
182.747,234.754161728
182.762,234.419975099
182.777,234.077017786
182.792,233.724885328
182.807,233.363166883
182.822,232.991451884
182.837,232.609339447
182.852,232.216451427
182.867,231.812450283
182.882,231.39706329
182.897,230.970115085
182.912,230.531571106
182.927,230.081595235
182.942,229.620625887
182.957,229.149475853
182.972,228.669462558
182.987,228.182576745
183.002,227.691698976
183.017,227.200874204
183.032,226.71565431
183.047,226.243515483
183.062,225.794349037
183.077,225.381006477
183.092,225.019845279
183.107,224.731160771
183.122,224.539288087
183.137,224.472004357
183.152,224.558657969
183.167,224.826254283
183.182,225.292718369
183.197,225.957154863
183.212,226.788812959
183.227,227.720071333
183.242,228.652407409
183.257,229.48155216
183.367,229.289723259
183.382,228.427421309
183.397,227.486611055
183.412,226.572692686
183.427,225.777503226
183.442,225.159063417
183.457,224.73973857
183.472,224.514893189
183.487,224.463823765
183.502,224.558728734
183.517,224.770642565
183.532,225.0727451
183.547,225.441848087
183.562,225.858779571
183.577,226.308180709
183.592,226.778038704
183.607,227.259140953
183.622,227.744546278
183.637,228.229116216
183.652,228.7091201
183.667,229.181912832
183.682,229.645677556
183.697,230.09922328
183.712,230.541827451
183.727,230.973114542
183.742,231.392963054
183.757,231.801434701
183.772,232.198720774
183.787,232.585101748
183.802,232.960917036
183.817,233.326542499
183.832,233.682373868
183.847,234.028814643
183.862,234.366267396
183.877,234.695127623
183.892,235.015779532
183.907,235.328593258
183.922,235.633923148
183.937,235.932106834
183.952,236.223464874
183.967,236.508300808
183.982,236.786901501
183.997,237.059537684
184.012,237.326464622
184.027,237.587922864
184.042,237.844139036
184.057,238.095326638
184.072,238.341686848
184.087,238.583409295
184.102,238.820672817
184.117,239.053646167
184.132,239.282488701
184.147,239.507351008
184.162,239.728375511
184.177,239.945697027
184.192,240.159443284
184.207,240.369735401
184.222,240.576688343
184.237,240.780411328
184.252,240.98100821
184.267,241.178577838
184.282,241.373214379
184.297,241.565007621
184.312,241.754043248
184.327,241.940403106
184.342,242.12416543
184.357,242.305405071
184.372,242.484193697
184.387,242.660599979
184.402,242.834689767
184.417,243.006526248
184.432,243.176170099
184.447,243.343679621
184.462,243.509110871
184.477,243.672517777
184.492,243.833952254
184.507,243.993464304
184.522,244.15110211
184.537,244.306912134
184.552,244.460939189
184.56,244.542372912
184.567,244.613226529
184.582,244.763815914
184.597,244.912747683
184.612,245.060060815
184.627,245.205792996
184.642,245.349980667
184.657,245.492659085
184.672,245.633862368
184.687,245.773623548
184.702,245.91197461
184.717,246.04894654
184.732,246.184569359
184.747,246.318872167
184.762,246.451883176
184.777,246.583629743
184.792,246.714138406
184.807,246.843434911
184.822,246.971544243
184.837,247.098490654
184.852,247.22429769
184.867,247.348988216
184.882,247.472584439
184.897,247.595107932
184.912,247.716579656
184.927,247.837019982
184.942,247.95644871
184.957,248.074885087
184.972,248.19234783
184.987,248.308855138
185.002,248.424424714
185.017,248.539073778
185.032,248.652819085
185.047,248.765676936
185.062,248.8776632
185.077,248.98879332
185.092,249.09908233
185.107,249.208544868
185.122,249.31719519
185.137,249.425047176
185.152,249.53211435
185.167,249.638409881
185.182,249.743946605
185.197,249.848737026
185.212,249.952793331
185.227,250.056127397
185.242,250.158750802
185.257,250.260674833
185.272,250.361910497
185.287,250.462468524
185.302,250.562359382
185.31,250.615365242
185.317,250.661593278
185.332,250.76018017
185.347,250.858129775
185.362,250.955451572
185.377,251.052154812
185.392,251.148248523
185.407,251.243741517
185.422,251.338642397
185.437,251.432959563
185.452,251.526701214
185.467,251.61987536
185.482,251.712489823
185.497,251.804552244
185.512,251.896070085
185.527,251.987050641
185.542,252.077501036
185.557,252.167428235
185.572,252.256839045
185.587,252.345740118
185.602,252.434137961
185.617,252.522038933
185.632,252.609449253
185.647,252.696375006
185.662,252.78282214
185.677,252.868796476
185.692,252.95430371
185.707,253.039349413
185.722,253.12393904
185.737,253.208077929
185.752,253.291771304
185.767,253.375024282
185.782,253.457841873
185.797,253.540228983
185.812,253.622190416
185.827,253.703730879
185.842,253.784854984
185.857,253.865567249
185.872,253.945872103
185.887,254.025773886
185.902,254.105276853
185.917,254.184385174
185.932,254.263102941
185.947,254.341434163
185.96,254.409011594
185.962,254.419382776
185.977,254.496952638
185.992,254.574147536
186.007,254.650971186
186.022,254.727427234
186.037,254.803519258
186.052,254.879250773
186.06,254.919494699
186.067,254.954625227
186.082,255.029646008
186.097,255.104316443
186.112,255.178639799
186.127,255.252619287
186.142,255.32625806
186.157,255.399559217
186.172,255.472525805
186.187,255.545160817
186.202,255.617467198
186.217,255.689447841
186.232,255.761105591
186.247,255.832443249
186.262,255.903463567
186.277,255.974169254
186.292,256.044562974
186.307,256.114647351
186.322,256.184424966
186.337,256.253898358
186.352,256.323070029
186.367,256.391942442
186.382,256.460518021
186.397,256.528799154
186.412,256.596788194
186.427,256.664487459
186.442,256.731899229
186.457,256.799025757
186.472,256.865869257
186.487,256.932431915
186.502,256.998715885
186.517,257.06472329
186.532,257.130456223
186.547,257.195916748
186.562,257.261106901
186.577,257.32602869
186.592,257.390684095
186.607,257.45507507
186.622,257.519203542
186.637,257.583071413
186.652,257.646680561
186.667,257.710032837
186.682,257.773130071
186.697,257.835974067
186.71,257.890235399
186.712,257.898566606
186.727,257.960909449
186.742,258.023004333
186.757,258.084852972
186.772,258.146457062
186.787,258.207818276
186.802,258.268938266
186.817,258.329818667
186.832,258.39046109
186.847,258.450867131
186.862,258.511038364
186.877,258.570976346
186.892,258.630682615
186.907,258.690158693
186.922,258.749406081
186.937,258.808426266
186.952,258.867220716
186.967,258.925790884
186.982,258.984138205
186.997,259.042264099
187.012,259.10016997
187.027,259.157857207
187.042,259.215327182
187.057,259.272581255
187.072,259.329620767
187.087,259.386447049
187.102,259.443061415
187.117,259.499465166
187.132,259.555659588
187.147,259.611645955
187.162,259.667425527
187.177,259.72299955
187.192,259.778369259
187.207,259.833535874
187.222,259.888500603
187.237,259.943264644
187.252,259.99782918
187.267,260.052195383
187.282,260.106364412
187.297,260.160337418
187.312,260.214115536
187.327,260.267699892
187.342,260.321091601
187.357,260.374291766
187.372,260.427301481
187.387,260.480121827
187.402,260.532753876
187.417,260.585198689
187.432,260.637457317
187.447,260.689530801
187.46,260.73451219
187.462,260.741420172
187.477,260.793126451
187.492,260.84465065
187.507,260.895993771
187.522,260.947156805
187.537,260.998140737
187.552,261.04894654
187.567,261.09957518
187.582,261.150027611
187.597,261.200304783
187.612,261.250407632
187.627,261.300337089
187.642,261.350094077
187.657,261.399679507
187.672,261.449094284
187.687,261.498339306
187.702,261.547415461
187.717,261.59632363
187.732,261.645064686
187.747,261.693639493
187.762,261.74204891
187.777,261.790293786
187.792,261.838374964
187.807,261.886293279
187.822,261.934049558
187.837,261.981644623
187.852,262.029079287
187.867,262.076354357
187.882,262.123470631
187.897,262.170428904
187.912,262.21722996
187.927,262.26387458
187.942,262.310363536
187.957,262.356697594
187.972,262.402877513
187.987,262.448904049
188.002,262.494777947
188.017,262.540499948
188.032,262.586070788
188.047,262.631491195
188.062,262.676761891
188.077,262.721883594
188.092,262.766857015
188.107,262.811682858
188.122,262.856361823
188.137,262.900894605
188.152,262.94528189
188.167,262.989524363
188.182,263.0336227
188.197,263.077577572
188.21,263.115556264
188.212,263.121389648
188.227,263.165059587
188.242,263.208588046
188.257,263.251975677
188.272,263.295223123
188.287,263.338331028
188.302,263.381300026
188.317,263.424130748
188.332,263.466823821
188.347,263.509379866
188.362,263.551799499
188.377,263.594083332
188.392,263.636231973
188.407,263.678246023
188.422,263.720126082
188.437,263.761872742
188.452,263.803486594
188.467,263.844968221
188.482,263.886318204
188.497,263.92753712
188.512,263.968625541
188.527,264.009584033
188.542,264.050413161
188.557,264.091113485
188.572,264.131685559
188.587,264.172129936
188.602,264.212447162
188.617,264.252637782
188.632,264.292702335
188.647,264.332641357
188.66,264.367154047
188.662,264.37245538
188.677,264.412144933
188.692,264.45171054
188.707,264.491152723
188.722,264.530471998
188.737,264.569668879
