# 48698 WSSS Singapore Observations at 12Z 27 Oct 2019
Frequency [GHz],TB
175.31,269.719693431
175.322,269.698757256
175.337,269.6725295
175.352,269.646237613
175.367,269.619881379
175.382,269.593460579
175.397,269.566974994
175.412,269.540424406
175.427,269.513808593
175.442,269.487127332
175.457,269.460380402
175.472,269.433567578
175.487,269.406688634
175.502,269.379743345
175.517,269.352731482
175.532,269.325652818
175.547,269.298507123
175.562,269.271294166
175.577,269.244013714
175.592,269.216665536
175.607,269.189249396
175.622,269.16176506
175.637,269.134212291
175.652,269.106590851
175.667,269.078900502
175.682,269.051141003
175.697,269.023312114
175.712,268.995413592
175.727,268.967445193
175.742,268.939406673
175.757,268.911297786
175.772,268.883118285
175.787,268.854867921
175.802,268.826546445
175.817,268.798153606
175.832,268.769689152
175.847,268.741152829
175.862,268.712544383
175.877,268.683863558
175.892,268.655110098
175.907,268.626283743
175.922,268.597384233
175.937,268.568411309
175.952,268.539364708
175.967,268.510244166
175.982,268.481049418
175.997,268.451780199
176.012,268.42243624
176.027,268.393017273
176.042,268.363523028
176.057,268.333953233
176.072,268.304307615
176.087,268.2745859
176.102,268.244787813
176.117,268.214913076
176.132,268.184961411
176.147,268.154932538
176.162,268.124826176
176.177,268.094642043
176.192,268.064379853
176.207,268.034039323
176.222,268.003620165
176.237,267.97312209
176.252,267.942544809
176.267,267.911888031
176.282,267.881151462
176.297,267.850334809
176.31,267.823562036
176.312,267.819437777
176.327,267.788460066
176.342,267.75740138
176.357,267.726261418
176.372,267.695039878
176.387,267.663736456
176.402,267.632350848
176.417,267.600882748
176.432,267.569331847
176.447,267.537697837
176.46,267.510214227
176.462,267.505980405
176.477,267.47417924
176.492,267.442294026
176.507,267.410324449
176.522,267.37827019
176.537,267.34613093
176.552,267.313906349
176.567,267.281596124
176.582,267.249199931
176.597,267.216717445
176.612,267.184148336
176.627,267.151492278
176.642,267.118748938
176.657,267.085917984
176.672,267.052999081
176.687,267.019991894
176.702,266.986896085
176.717,266.953711314
176.732,266.92043724
176.747,266.88707352
176.762,266.853619808
176.777,266.820075758
176.792,266.786441021
176.807,266.752715247
176.822,266.718898084
176.837,266.684989178
176.852,266.650988171
176.867,266.616894708
176.882,266.582708427
176.897,266.548428967
176.912,266.514055964
176.927,266.479589053
176.942,266.445027866
176.957,266.410372034
176.972,266.375621185
176.987,266.340774946
177.002,266.30583294
177.017,266.270794791
177.032,266.235660119
177.047,266.200428541
177.062,266.165099676
177.077,266.129673135
177.092,266.094148532
177.107,266.058525477
177.122,266.022803577
177.137,265.986982437
177.152,265.951061661
177.167,265.915040851
177.182,265.878919605
177.197,265.842697521
177.21,265.811223166
177.212,265.806374191
177.227,265.76994921
177.242,265.733422166
177.257,265.696792648
177.272,265.66006024
177.287,265.623224525
177.302,265.586285085
177.31,265.566541493
177.317,265.549241498
177.332,265.512093338
177.347,265.474840179
177.362,265.437481593
177.377,265.400017148
177.392,265.362446409
177.407,265.32476894
177.422,265.286984302
177.437,265.249092053
177.452,265.211091748
177.467,265.172982941
177.482,265.134765183
177.497,265.09643802
177.512,265.058000997
177.527,265.019453658
177.542,264.980795542
177.557,264.942026185
177.572,264.903145122
177.587,264.864151883
177.602,264.825045997
177.617,264.785826989
177.632,264.746494382
177.647,264.707047695
177.66,264.672767914
177.662,264.667486444
177.677,264.627810144
177.692,264.588018305
177.707,264.548110434
177.722,264.508086036
177.737,264.467944611
177.752,264.427685657
177.767,264.38730867
177.782,264.346813141
177.797,264.306198558
177.812,264.265464406
177.827,264.224610166
177.842,264.183635318
177.857,264.142539334
177.872,264.101321688
177.887,264.059981846
177.902,264.018519272
177.917,263.976933428
177.932,263.935223769
177.947,263.893389751
177.96,263.857032582
177.962,263.851430821
177.977,263.809346426
177.992,263.767136007
178.007,263.724799004
178.022,263.682334849
178.037,263.639742974
178.052,263.597022804
178.067,263.554173761
178.082,263.511195265
178.097,263.468086727
178.112,263.424847559
178.127,263.381477166
178.142,263.337974948
178.157,263.294340303
178.172,263.250572623
178.187,263.206671295
178.202,263.162635703
178.217,263.118465226
178.232,263.074159237
178.247,263.029717105
178.262,262.985138197
178.277,262.940421869
178.292,262.895567479
178.307,262.850574374
178.322,262.805441901
178.337,262.760169398
178.352,262.7147562
178.367,262.669201635
178.382,262.623505029
178.397,262.577665698
178.41,262.537822299
178.412,262.531682955
178.427,262.485556109
178.442,262.439284461
178.457,262.392867306
178.472,262.346303935
178.487,262.299593632
178.502,262.252735675
178.517,262.205729337
178.532,262.158573883
178.547,262.111268574
178.562,262.063812663
178.577,262.016205397
178.592,261.968446017
178.607,261.920533757
178.622,261.872467844
178.637,261.824247499
178.652,261.775871936
178.667,261.727340362
178.682,261.678651975
178.697,261.629805969
178.712,261.580801529
178.727,261.531637832
178.742,261.482314049
178.757,261.432829343
178.772,261.383182867
178.787,261.33337377
178.802,261.28340119
178.817,261.233264259
178.832,261.182962098
178.847,261.132493823
178.862,261.08185854
178.877,261.031055345
178.892,260.980083327
178.907,260.928941567
178.922,260.877629134
178.937,260.826145091
178.952,260.774488489
178.967,260.722658372
178.982,260.670653774
178.997,260.618473717
179.012,260.566117216
179.027,260.513583275
179.042,260.460870886
179.057,260.407979034
179.072,260.354906692
179.087,260.301652821
179.102,260.248216373
179.117,260.194596288
179.132,260.140791496
179.147,260.086800915
179.16,260.039857951
179.162,260.032623451
179.177,259.978258
179.192,259.923703443
179.207,259.868958652
179.222,259.814022485
179.237,259.758893789
179.252,259.703571398
179.267,259.648054132
179.282,259.592340799
179.297,259.536430193
179.312,259.480321096
179.327,259.424012275
179.342,259.367502484
179.357,259.310790463
179.372,259.253874935
179.387,259.196754613
179.402,259.139428192
179.417,259.081894353
179.432,259.024151762
179.447,258.966199069
179.462,258.908034908
179.477,258.849657899
179.492,258.791066642
179.507,258.732259725
179.522,258.673235717
179.537,258.613993168
179.552,258.554530615
179.567,258.494846575
179.582,258.434939546
179.597,258.374808011
179.612,258.314450432
179.627,258.253865254
179.642,258.193050901
179.657,258.13200578
179.672,258.070728277
179.687,258.009216759
179.702,257.947469572
179.717,257.885485041
179.732,257.823261471
179.747,257.760797147
179.762,257.69809033
179.777,257.63513926
179.792,257.571942157
179.807,257.508497214
179.822,257.444802605
179.837,257.380856479
179.852,257.316656962
179.867,257.252202156
179.882,257.187490138
179.897,257.12251896
179.91,257.06599945
179.912,257.05728665
179.927,256.99179121
179.942,256.926030616
179.957,256.860002817
179.972,256.793705737
179.987,256.727137271
180.002,256.660295288
180.017,256.593177628
180.032,256.525782102
180.047,256.458106494
180.062,256.390148558
180.077,256.321906017
180.092,256.253376566
180.107,256.184557868
180.122,256.115447555
180.137,256.046043228
180.152,255.976342455
180.167,255.906342774
180.182,255.836041686
180.197,255.765436663
180.212,255.69452514
180.227,255.623304518
180.242,255.551772166
180.257,255.479925413
180.272,255.407761556
180.287,255.335277853
180.302,255.262471527
180.317,255.189339763
180.332,255.115879707
180.347,255.042088469
180.362,254.967963117
180.377,254.893500682
180.392,254.818698153
180.407,254.74355248
180.422,254.668060572
180.437,254.592219295
180.452,254.516025474
180.467,254.439475891
180.482,254.362567284
180.497,254.285296348
180.512,254.207659735
180.527,254.129654049
180.542,254.051275852
180.557,253.972521658
180.56,253.95672539
180.572,253.893387935
180.587,253.813871103
180.602,253.733967538
180.617,253.653673563
180.632,253.572985456
180.647,253.491899444
180.66,253.421300087
180.662,253.410411706
180.677,253.328518369
180.692,253.246215511
180.707,253.163499158
180.722,253.080365284
180.737,252.996809811
180.752,252.912828608
180.767,252.828417492
180.782,252.743572226
180.797,252.658288517
180.812,252.572562019
180.827,252.486388332
180.842,252.399762998
180.857,252.312681504
180.872,252.225139282
180.887,252.137131706
180.902,252.048654092
180.917,251.959701701
180.932,251.870269733
180.947,251.780353332
180.962,251.689947583
180.977,251.59904751
180.992,251.507648082
181.007,251.415744203
181.022,251.323330723
181.037,251.230402426
181.052,251.136954042
181.067,251.042980234
181.082,250.94847561
181.097,250.853434714
181.112,250.757852029
181.127,250.661721978
181.142,250.565038923
181.157,250.467797163
181.172,250.369990938
181.187,250.271614425
181.202,250.17266174
181.217,250.073126938
181.232,249.973004014
181.247,249.8722869
181.262,249.770969467
181.277,249.669045528
181.292,249.566508833
181.307,249.463353072
181.31,249.442647073
181.322,249.359571878
181.337,249.255158819
181.352,249.15010741
181.367,249.044411103
181.382,248.938063292
181.397,248.831057317
181.412,248.723386456
181.427,248.615043934
181.442,248.506022919
181.457,248.396316524
181.472,248.285917808
181.487,248.174819777
181.502,248.063015383
181.517,247.950497528
181.532,247.837259065
181.547,247.723292797
181.562,247.608591477
181.577,247.493147816
181.592,247.376954476
181.607,247.26000408
181.622,247.142289205
181.637,247.023802392
181.652,246.904536141
181.667,246.78448292
181.682,246.663635162
181.697,246.541985267
181.712,246.41952561
181.727,246.296248539
181.742,246.17214638
181.757,246.04721144
181.772,245.921436008
181.787,245.794812365
181.802,245.667332781
181.817,245.538989524
181.832,245.409774863
181.847,245.279681072
181.862,245.148700439
181.877,245.016825267
181.892,244.884047886
181.907,244.750360653
181.922,244.615755968
181.937,244.480226273
181.952,244.343764067
181.967,244.206361914
181.982,244.068012451
181.997,243.928708401
182.012,243.788442586
182.027,243.647207935
182.042,243.504997504
182.057,243.361804485
182.06,243.333047383
182.072,243.217622228
182.087,243.072444256
182.102,242.92626428
182.117,242.779076228
182.132,242.63087426
182.147,242.481652795
182.162,242.331406535
182.177,242.180130499
182.192,242.027820043
182.207,241.874470904
182.222,241.720079225
182.237,241.564641601
182.252,241.408155118
182.267,241.250617393
182.282,241.092026628
182.297,240.932381659
182.312,240.771682011
182.327,240.609927959
182.342,240.447120591
182.357,240.283261878
182.372,240.118354751
182.387,239.952403178
182.402,239.785412249
182.417,239.617388274
182.432,239.448338876
182.447,239.278273101
182.462,239.107201533
182.477,238.935136413
182.492,238.76209177
182.507,238.588083565
182.522,238.413129836
182.537,238.237250862
182.552,238.06046933
182.567,237.88281052
182.582,237.7043025
182.597,237.524976331
182.612,237.344866289
182.627,237.164010102
182.642,236.9824492
182.657,236.800228978
182.672,236.617399085
182.687,236.434013724
182.702,236.250131971
182.717,236.065818117
182.732,235.881142036
182.747,235.696179564
182.762,235.51101292
182.777,235.325731141
182.792,235.140430556
182.807,234.955215291
182.822,234.770197814
182.837,234.585499518
182.852,234.401251363
182.867,234.217594561
182.882,234.034681338
182.897,233.852675767
182.912,233.671754686
182.927,233.492108725
182.942,233.313943452
182.957,233.13748066
182.972,232.962959813
182.987,232.79063968
183.002,232.620800179
183.017,232.453744443
183.032,232.289801123
183.047,232.129326928
183.062,231.972709374
183.077,231.820369666
183.092,231.672765617
183.107,231.530394393
183.122,231.393794808
183.137,231.263548755
183.152,231.140281238
183.167,231.02465832
183.182,230.917382219
183.197,230.81918272
183.212,230.730804192
183.227,230.652987743
183.242,230.586448573
183.257,230.531849277
183.367,230.531491871
183.382,230.585768765
183.397,230.651842569
183.412,230.72903725
183.427,230.816630705
183.442,230.913880565
183.457,231.02004571
183.472,231.134402905
183.487,231.256258682
183.502,231.384956973
183.517,231.519883276
183.532,231.660466159
183.547,231.806176865
183.562,231.956527649
183.577,232.111069377
183.592,232.269388734
183.607,232.43110533
183.622,232.595868847
183.637,232.763356363
183.652,232.933269879
183.667,233.105334079
183.682,233.279294333
183.697,233.454914907
183.712,233.63197739
183.727,233.810279282
183.742,233.989632752
183.757,234.169863525
183.772,234.35080988
183.787,234.53232176
183.802,234.714259952
183.817,234.896495351
183.832,235.078908279
183.847,235.261387865
183.862,235.443831465
183.877,235.626144131
183.892,235.80823811
183.907,235.990032383
183.922,236.171452228
183.937,236.352428815
183.952,236.532898823
183.967,236.712804082
183.982,236.892091235
183.997,237.070711422
184.012,237.248619983
184.027,237.425776176
184.042,237.602142915
184.057,237.777686521
184.072,237.952376493
184.087,238.126185285
184.102,238.299088107
184.117,238.471062726
184.132,238.642089292
184.147,238.812150166
184.162,238.981229761
184.177,239.149314399
184.192,239.316392167
184.207,239.482452791
184.222,239.647487515
184.237,239.811488986
184.252,239.974451152
184.267,240.136369163
184.282,240.297239278
184.297,240.45705878
184.312,240.615825899
184.327,240.773539736
184.342,240.930200196
184.357,241.085807921
184.372,241.240364235
184.387,241.393871087
184.402,241.546330999
184.417,241.697747017
184.432,241.848122674
184.447,241.997461941
184.462,242.145769193
184.477,242.293049173
184.492,242.439306963
184.507,242.584547946
184.522,242.728777786
184.537,242.8720024
184.552,243.014227931
184.56,243.089675218
184.567,243.155460729
184.582,243.29570733
184.597,243.434974437
184.612,243.573268903
184.627,243.710597713
184.642,243.846967971
184.657,243.982386887
184.672,244.11686176
184.687,244.250399971
184.702,244.383008972
184.717,244.514696269
184.732,244.645469423
184.747,244.775336034
184.762,244.904303736
184.777,245.032380187
184.792,245.159573068
184.807,245.285890069
184.822,245.411338891
184.837,245.535927234
184.852,245.659662795
184.867,245.782553265
184.882,245.904606321
184.897,246.025829627
184.912,246.146230825
184.927,246.265817534
184.942,246.384597349
184.957,246.502577835
184.972,246.619766524
184.987,246.736170916
185.002,246.851798475
185.017,246.966656625
185.032,247.080752751
185.047,247.194094193
185.062,247.306688252
185.077,247.418542178
185.092,247.529663178
185.107,247.64005841
185.122,247.749734981
185.137,247.858699949
185.152,247.966960319
185.167,248.074523045
185.182,248.181395026
185.197,248.287583106
185.212,248.393094077
185.227,248.497934672
185.242,248.60211157
185.257,248.70563139
185.272,248.808500696
185.287,248.910725994
185.302,249.01231373
185.31,249.066235373
185.317,249.113270293
185.332,249.213602012
185.347,249.313315156
185.362,249.412415936
185.377,249.510910502
185.392,249.608804945
185.407,249.706105294
185.422,249.80281752
185.437,249.898947534
185.452,249.994501183
185.467,250.089484259
185.482,250.183902489
185.497,250.277761543
185.512,250.37106703
185.527,250.463824497
185.542,250.556039434
185.557,250.647717269
185.572,250.738863372
185.587,250.829483052
185.602,250.919581561
185.617,251.009164089
185.632,251.098235771
185.647,251.186801679
185.662,251.274866831
185.677,251.362436185
185.692,251.449514642
185.707,251.536107044
185.722,251.62221818
185.737,251.707852778
185.752,251.793015513
185.767,251.877711003
185.782,251.96194381
185.797,252.045718442
185.812,252.129039353
185.827,252.211910941
185.842,252.294337551
185.857,252.376323475
185.872,252.457872952
185.887,252.53899017
185.902,252.619679261
185.917,252.699944311
185.932,252.779789351
185.947,252.859218362
185.96,252.927723358
185.962,252.938235277
185.977,253.016843978
185.992,253.095048298
186.007,253.172852021
186.022,253.250258885
186.037,253.327272578
186.052,253.403896743
186.06,253.444604934
186.067,253.480134976
186.082,253.555990825
186.097,253.631467795
186.112,253.706569345
186.127,253.781298889
186.142,253.8556598
186.157,253.929655403
186.172,254.003288984
186.187,254.076563785
186.202,254.149483004
186.217,254.222049803
186.232,254.294267297
186.247,254.366138566
186.262,254.437666646
186.277,254.508854536
186.292,254.579705196
186.307,254.650221547
186.322,254.720406472
186.337,254.790262818
186.352,254.859793392
186.367,254.92900097
186.382,254.997888287
186.397,255.066458044
186.412,255.13471291
186.427,255.202655515
186.442,255.270288459
186.457,255.337614305
186.472,255.404635587
186.487,255.471354802
186.502,255.537774419
186.517,255.603896871
186.532,255.669724565
186.547,255.735259873
186.562,255.800505138
186.577,255.865462673
186.592,255.930134763
186.607,255.994523661
186.622,256.058631594
186.637,256.12246076
186.652,256.186013328
186.667,256.249291441
186.682,256.312297216
186.697,256.37503274
186.71,256.42918652
186.712,256.437500077
186.727,256.499701263
186.742,256.561638311
186.757,256.623313207
186.772,256.684727911
186.787,256.745884363
186.802,256.806784475
186.817,256.867430137
186.832,256.927823215
186.847,256.987965555
186.862,257.047858975
186.877,257.107505276
186.892,257.166906235
186.907,257.226063607
186.922,257.284979125
186.937,257.343654504
186.952,257.402091436
186.967,257.460291594
186.982,257.518256629
186.997,257.575988175
187.012,257.633487845
187.027,257.690757232
187.042,257.747797913
187.057,257.804611445
187.072,257.861199365
187.087,257.917563195
187.102,257.973704438
187.117,258.029624579
187.132,258.085325086
187.147,258.140807411
187.162,258.19607299
187.177,258.251123239
187.192,258.305959562
187.207,258.360583346
187.222,258.414995959
187.237,258.469198759
187.252,258.523193085
187.267,258.576980262
187.282,258.630561601
187.297,258.683938396
187.312,258.737111931
187.327,258.790083473
187.342,258.842854274
187.357,258.895425575
187.372,258.947798603
187.387,258.99997457
187.402,259.051954677
187.417,259.103740111
187.432,259.155332046
187.447,259.206731645
187.46,259.251123275
187.462,259.257940058
187.477,259.308958421
187.492,259.359787862
187.507,259.410429493
187.522,259.460884418
187.537,259.511153727
187.552,259.5612385
187.567,259.611139805
187.582,259.660858701
187.597,259.710396234
187.612,259.759753441
187.627,259.808931348
187.642,259.85793097
187.657,259.906753312
187.672,259.955399371
187.687,260.003870131
187.702,260.05216657
187.717,260.100289653
187.732,260.148240336
187.747,260.196019569
187.762,260.243628289
187.777,260.291067426
187.792,260.3383379
187.807,260.385440624
187.822,260.4323765
187.837,260.479146423
187.852,260.525751279
187.867,260.572191947
187.882,260.618469296
187.897,260.664584188
187.912,260.710537476
187.927,260.756330008
187.942,260.80196262
187.957,260.847436144
187.972,260.892751404
187.987,260.937909214
188.002,260.982910384
188.017,261.027755714
188.032,261.072446
188.047,261.116982028
188.062,261.161364579
188.077,261.205594426
188.092,261.249672336
188.107,261.29359907
188.122,261.33737538
188.137,261.381002016
188.152,261.424479717
188.167,261.467809218
188.182,261.510991247
188.197,261.554026528
188.21,261.591205622
188.212,261.596915777
188.227,261.639659703
188.242,261.682259012
188.257,261.724714402
188.272,261.767026567
188.287,261.809196195
188.302,261.851223966
188.317,261.893110558
188.332,261.934856642
188.347,261.976462883
188.362,262.017929942
188.377,262.059258474
188.392,262.10044913
188.407,262.141502554
188.422,262.182419386
188.437,262.223200263
188.452,262.263845813
188.467,262.304356662
188.482,262.344733432
188.497,262.384976738
188.512,262.425087191
188.527,262.465065398
188.542,262.504911962
188.557,262.544627481
188.572,262.584212547
188.587,262.62366775
188.602,262.662993675
188.617,262.702190901
188.632,262.741260006
188.647,262.780201561
188.66,262.813848175
188.662,262.819016135
188.677,262.857704291
188.692,262.89626659
188.707,262.934703588
188.722,262.973015836
188.737,263.011203883
