# 10410 EDZE Essen Observations at 12Z 31 Oct 2019
Frequency [GHz],TB
175.31,246.980071854
175.322,247.055674672
175.337,247.150294651
175.352,247.245043246
175.367,247.339919606
175.382,247.434922867
175.397,247.530052152
175.412,247.625306568
175.427,247.720685208
175.442,247.816187151
175.457,247.91181146
175.472,248.007557186
175.487,248.103423363
175.502,248.199409009
175.517,248.295513129
175.532,248.391734712
175.547,248.48807273
175.562,248.584526143
175.577,248.681093891
175.592,248.777774901
175.607,248.874568084
175.622,248.971472333
175.637,249.068486527
175.652,249.165609527
175.667,249.262840178
175.682,249.360177309
175.697,249.457619731
175.712,249.555166239
175.727,249.652815611
175.742,249.750566607
175.757,249.848417971
175.772,249.946368428
175.787,250.044416686
175.802,250.142561437
175.817,250.240801353
175.832,250.339135087
175.847,250.437561278
175.862,250.536078542
175.877,250.634685481
175.892,250.733380674
175.907,250.832162686
175.922,250.931030059
175.937,251.029981318
175.952,251.129014969
175.967,251.228129499
175.982,251.327323375
175.997,251.426595045
176.012,251.525942936
176.027,251.625365457
176.042,251.724860997
176.057,251.824427922
176.072,251.924064583
176.087,252.023769307
176.102,252.1235404
176.117,252.22337615
176.132,252.323274824
176.147,252.423234665
176.162,252.5232539
176.177,252.62333073
176.192,252.723463338
176.207,252.823649885
176.222,252.923888509
176.237,253.024177328
176.252,253.124514439
176.267,253.224897914
176.282,253.325325805
176.297,253.425796143
176.31,253.512903231
176.312,253.526306935
176.327,253.626856165
176.342,253.727441797
176.357,253.828061771
176.372,253.928714003
176.387,254.029396388
176.402,254.130106798
176.417,254.23084308
176.432,254.33160306
176.447,254.432384539
176.46,254.519744162
176.462,254.533185296
176.477,254.634003086
176.492,254.734835639
176.507,254.835680662
176.522,254.93653584
176.537,255.037398832
176.552,255.138267273
176.567,255.239138774
176.582,255.340010921
176.597,255.440881279
176.612,255.541747384
176.627,255.64260675
176.642,255.743456865
176.657,255.844295195
176.672,255.945119177
176.687,256.045926226
176.702,256.146713732
176.717,256.247479059
176.732,256.348219545
176.747,256.448932504
176.762,256.549615226
176.777,256.650264972
176.792,256.750878981
176.807,256.851454464
176.822,256.951988609
176.837,257.052478576
176.852,257.1529215
176.867,257.253314491
176.882,257.353654633
176.897,257.453938983
176.912,257.554164574
176.927,257.654328412
176.942,257.754427477
176.957,257.854458723
176.972,257.954419079
176.987,258.054305446
177.002,258.154114702
177.017,258.253843696
177.032,258.353489252
177.047,258.453048169
177.062,258.552517218
177.077,258.651893146
177.092,258.751172673
177.107,258.850352491
177.122,258.94942927
177.137,259.048399651
177.152,259.14726025
177.167,259.246007656
177.182,259.344638435
177.197,259.443149123
177.21,259.528425219
177.212,259.541536234
177.227,259.639796254
177.242,259.737925644
177.257,259.83592084
177.272,259.93377825
177.287,260.031494259
177.302,260.129065227
177.31,260.181042505
177.317,260.226487485
177.332,260.323757343
177.347,260.420871084
177.362,260.517824966
177.377,260.614615222
177.392,260.711238059
177.407,260.807689663
177.422,260.903966191
177.437,261.00006378
177.452,261.095978538
177.467,261.191706553
177.482,261.287243887
177.497,261.382586579
177.512,261.477730643
177.527,261.572672071
177.542,261.667406832
177.557,261.761930871
177.572,261.85624011
177.587,261.95033045
177.602,262.044197768
177.617,262.137837918
177.632,262.231246736
177.647,262.324420031
177.66,262.404976457
177.662,262.417353595
177.677,262.510043197
177.692,262.602484585
177.707,262.694673486
177.722,262.786605608
177.737,262.878276638
177.752,262.969682243
177.767,263.060818072
177.782,263.151679753
177.797,263.242262896
177.812,263.332563095
177.827,263.422575921
177.842,263.512296931
177.857,263.601721664
177.872,263.690845642
177.887,263.77966437
177.902,263.868173336
177.917,263.956368014
177.932,264.044243862
177.947,264.131796323
177.96,264.207410005
177.962,264.219020825
177.977,264.305912783
177.992,264.392467598
178.007,264.478680657
178.022,264.564547336
178.037,264.650062998
178.052,264.735222994
178.067,264.820022665
178.082,264.90445734
178.097,264.988522339
178.112,265.072212972
178.127,265.15552454
178.142,265.238452336
178.157,265.320991646
178.172,265.403137745
178.187,265.484885906
178.202,265.566231394
178.217,265.647169467
178.232,265.727695381
178.247,265.807804385
178.262,265.887491728
178.277,265.966752651
178.292,266.045582398
178.307,266.123976209
178.322,266.201929322
178.337,266.279436977
178.352,266.356494413
178.367,266.433096872
178.382,266.509239596
178.397,266.58491783
178.41,266.65012624
178.412,266.660126823
178.427,266.734861829
178.442,266.809118105
178.457,266.882890916
178.472,266.956175531
178.487,267.028967227
178.502,267.101261292
178.517,267.173053018
178.532,267.244337711
178.547,267.315110684
178.562,267.385367264
178.577,267.455102788
178.592,267.524312609
178.607,267.592992091
178.622,267.661136614
178.637,267.728741573
178.652,267.795802381
178.667,267.862314465
178.682,267.928273275
178.697,267.993674275
178.712,268.058512954
178.727,268.122784817
178.742,268.186485395
178.757,268.24961024
178.772,268.312154926
178.787,268.374115055
178.802,268.435486251
178.817,268.496264167
178.832,268.556444482
178.847,268.616022903
178.862,268.674995167
178.877,268.733357041
178.892,268.791104322
178.907,268.848232841
178.922,268.904738459
178.937,268.960617074
178.952,269.015864616
178.967,269.070477051
178.982,269.124450384
178.997,269.177780654
179.012,269.230463942
179.027,269.282496365
179.042,269.333874082
179.057,269.384593294
179.072,269.434650241
179.087,269.484041208
179.102,269.532762525
179.117,269.580810564
179.132,269.628181743
179.147,269.674872528
179.16,269.714784815
179.162,269.720879432
179.177,269.766199014
179.192,269.810827883
179.207,269.854762699
179.222,269.898000171
179.237,269.94053706
179.252,269.982370178
179.267,270.023496391
179.282,270.063912618
179.297,270.103615833
179.312,270.142603063
179.327,270.180871393
179.342,270.218417964
179.357,270.255239973
179.372,270.291334675
179.387,270.326699383
179.402,270.361331471
179.417,270.395228368
179.432,270.428387568
179.447,270.460806621
179.462,270.492483143
179.477,270.523414806
179.492,270.553599347
179.507,270.583034566
179.522,270.611718324
179.537,270.639648546
179.552,270.666823219
179.567,270.693240395
179.582,270.71889819
179.597,270.743794785
179.612,270.767928423
179.627,270.791297413
179.642,270.813900129
179.657,270.835735009
179.672,270.856800558
179.687,270.877095343
179.702,270.896617998
179.717,270.915367221
179.732,270.933341774
179.747,270.950540486
179.762,270.966962248
179.777,270.982606018
179.792,270.997470815
179.807,271.011555724
179.822,271.024859892
179.837,271.037382532
179.852,271.049122916
179.867,271.060080379
179.882,271.070254321
179.897,271.079644198
179.91,271.087147499
179.912,271.088249531
179.927,271.0960699
179.942,271.103104942
179.957,271.109354355
179.972,271.114817893
179.987,271.11949537
180.002,271.123386653
180.017,271.126491665
180.032,271.128810384
180.047,271.130342842
180.062,271.131089121
180.077,271.131049356
180.092,271.130223732
180.107,271.128612481
180.122,271.126215886
180.137,271.123034272
180.152,271.119068013
180.167,271.114317525
180.182,271.108783266
180.197,271.102465735
180.212,271.095365472
180.227,271.087483052
180.242,271.078819089
180.257,271.069374231
180.272,271.059149157
180.287,271.04814458
180.302,271.036361241
180.317,271.023799909
180.332,271.010461381
180.347,270.996346476
180.362,270.981456036
180.377,270.965790924
180.392,270.949352021
180.407,270.932140225
180.422,270.914156448
180.437,270.895401616
180.452,270.875876664
180.467,270.855582536
180.482,270.834520183
180.497,270.812690561
180.512,270.790094627
180.527,270.766733337
180.542,270.742607649
180.557,270.717718513
180.56,270.712649155
180.572,270.692066874
180.587,270.665653669
180.602,270.638479824
180.617,270.610546252
180.632,270.581853851
180.647,270.552403503
180.66,270.526267439
180.662,270.522196068
180.677,270.491232389
180.692,270.45951328
180.707,270.427039534
180.722,270.393811912
180.737,270.35983115
180.752,270.325097946
180.767,270.28961297
180.782,270.253376851
180.797,270.216390183
180.812,270.178653518
180.827,270.140167368
180.842,270.100932201
180.857,270.060948436
180.872,270.02021645
180.887,269.978736566
180.902,269.936509059
180.917,269.893534152
180.932,269.849812011
180.947,269.805342749
180.962,269.760126421
180.977,269.714163026
180.992,269.667452499
181.007,269.61999472
181.022,269.571789501
181.037,269.522836597
181.052,269.473135695
181.067,269.42268642
181.082,269.371488329
181.097,269.319540916
181.112,269.266843607
181.127,269.213395761
181.142,269.159196669
181.157,269.104245557
181.172,269.048541582
181.187,268.992083833
181.202,268.934871333
181.217,268.876903038
181.232,268.818177837
181.247,268.758694554
181.262,268.698451947
181.277,268.637448712
181.292,268.575683481
181.307,268.513154822
181.31,268.500557349
181.322,268.449861248
181.337,268.385801207
181.352,268.320973096
181.367,268.255375253
181.382,268.189005965
181.397,268.121863469
181.412,268.053945951
181.427,267.985251556
181.442,267.915778384
181.457,267.845524496
181.472,267.774487919
181.487,267.702666645
181.502,267.63005864
181.517,267.556661845
181.532,267.482474181
181.547,267.407493552
181.562,267.331717854
181.577,267.255144975
181.592,267.177772803
181.607,267.099599234
181.622,267.020622171
181.637,266.940839537
181.652,266.860249278
181.667,266.778849371
181.682,266.696637828
181.697,266.61361271
181.712,266.529772129
181.727,266.445114256
181.742,266.359637333
181.757,266.27333968
181.772,266.186219704
181.787,266.098275908
181.802,266.009506901
181.817,265.919911412
181.832,265.829488294
181.847,265.738236541
181.862,265.646155296
181.877,265.553243867
181.892,265.459501736
181.907,265.364928571
181.922,265.269524247
181.937,265.173288851
181.952,265.076222702
181.967,264.978326366
181.982,264.879600672
181.997,264.780046724
182.012,264.679665927
182.027,264.578459996
182.042,264.476430981
182.057,264.373581282
182.06,264.352913097
182.072,264.269913672
182.087,264.165431317
182.102,264.060137799
182.117,263.954037135
182.132,263.847133805
182.147,263.739432776
182.162,263.630939523
182.177,263.521660063
182.192,263.411600976
182.207,263.300769437
182.222,263.189173248
182.237,263.076820865
182.252,262.963721432
182.267,262.849884818
182.282,262.735321648
182.297,262.620043341
182.312,262.504062149
182.327,262.387391196
182.342,262.270044518
182.357,262.152037107
182.372,262.033384954
182.387,261.914105095
182.402,261.794215658
182.417,261.673735911
182.432,261.552686313
182.447,261.431088565
182.462,261.308965661
182.477,261.186341946
182.492,261.063243165
182.507,260.939696525
182.522,260.815730746
182.537,260.691376122
182.552,260.566664574
182.567,260.441629707
182.582,260.316306869
182.597,260.190733201
182.612,260.064947689
182.627,259.938991217
182.642,259.812906609
182.657,259.686738673
182.672,259.560534236
182.687,259.434342174
182.702,259.308213434
182.717,259.182201047
182.732,259.056360132
182.747,258.930747886
182.762,258.805423562
182.777,258.680448435
182.792,258.555885752
182.807,258.431800657
182.822,258.308260116
182.837,258.18533281
182.852,258.063089021
182.867,257.941600501
182.882,257.820940338
182.897,257.70118281
182.912,257.582403262
182.927,257.464677997
182.942,257.348084219
182.957,257.23270005
182.972,257.118604677
182.987,257.005878671
183.002,256.894604566
183.017,256.784867818
183.032,256.676758262
183.047,256.570372283
183.062,256.465815931
183.077,256.363209298
183.092,256.262692551
183.107,256.164434078
183.122,256.068641258
183.137,255.975574355
183.152,255.885563874
183.167,255.799031305
183.182,255.716512357
183.197,255.638680337
183.212,255.566365118
183.227,255.500560356
183.242,255.442408907
183.257,255.393155484
183.367,255.386592467
183.382,255.433487974
183.397,255.488989453
183.412,255.551874345
183.427,255.62103671
183.442,255.695525539
183.457,255.774552963
183.472,255.857483351
183.487,255.943812769
183.502,256.033145385
183.517,256.12517076
183.532,256.219643947
183.547,256.316369043
183.562,256.41518613
183.577,256.515961221
183.592,256.618578688
183.607,256.722935693
183.622,256.82893815
183.637,256.936497878
183.652,257.045530625
183.667,257.155954748
183.682,257.267690367
183.697,257.380658849
183.712,257.494782546
183.727,257.609984681
183.742,257.726189356
183.757,257.843321624
183.772,257.961307603
183.787,258.08007461
183.802,258.199551303
183.817,258.319667819
183.832,258.440355901
183.847,258.561549013
183.862,258.683182436
183.877,258.805193355
183.892,258.927520919
183.907,259.050106292
183.922,259.172892687
183.937,259.295825385
183.952,259.418851743
183.967,259.541921187
183.982,259.664985202
183.997,259.787997304
184.012,259.910913015
184.027,260.033689822
184.042,260.156287138
184.057,260.278666253
184.072,260.400790291
184.087,260.52262415
184.102,260.644134455
184.117,260.765289498
184.132,260.886059186
184.147,261.006414984
184.162,261.126329857
184.177,261.245778216
184.192,261.364735865
184.207,261.48317994
184.222,261.601088865
184.237,261.718442294
184.252,261.835221061
184.267,261.951407133
184.282,262.066983561
184.297,262.181934434
184.312,262.296244833
184.327,262.409900788
184.342,262.52288924
184.357,262.635197996
184.372,262.746815692
184.387,262.857731755
184.402,262.967936371
184.417,263.077420443
184.432,263.186175566
184.447,263.294193991
184.462,263.401468592
184.477,263.507992843
184.492,263.613760785
184.507,263.718767
184.522,263.823006585
184.537,263.926475129
184.552,264.029168686
184.56,264.083620473
184.567,264.131083754
184.582,264.232217251
184.597,264.332566496
184.612,264.432129189
184.627,264.530903388
184.642,264.628887493
184.657,264.726080227
184.672,264.822480619
184.687,264.918087988
184.702,265.012901924
184.717,265.106922278
184.732,265.200149139
184.747,265.292582829
184.762,265.384223882
184.777,265.475073034
184.792,265.565131213
184.807,265.654399519
184.822,265.742879219
184.837,265.830571736
184.852,265.917478632
184.867,266.003601603
184.882,266.08894247
184.897,266.173503162
184.912,266.257285714
184.927,266.340292258
184.942,266.422525008
184.957,266.503986258
184.972,266.584678372
184.987,266.664603776
185.002,266.743764953
185.017,266.822164431
185.032,266.899804784
185.047,266.976688618
185.062,267.052818569
185.077,267.128197299
185.092,267.202827484
185.107,267.276711816
185.122,267.349852992
185.137,267.422253715
185.152,267.493916683
185.167,267.564844589
185.182,267.635040117
185.197,267.704505935
185.212,267.773244694
185.227,267.841259024
185.242,267.908551528
185.257,267.975124784
185.272,268.040981339
185.287,268.106123703
185.302,268.170554354
185.31,268.2046272
185.317,268.234275729
185.332,268.297290226
185.347,268.359600199
185.362,268.421207956
185.377,268.482115761
185.392,268.542325829
185.407,268.601840324
185.422,268.660661361
185.437,268.718791002
185.452,268.776231254
185.467,268.832984074
185.482,268.889051361
185.497,268.944434958
185.512,268.999136654
185.527,269.053158179
185.542,269.106501209
185.557,269.15916736
185.572,269.211158191
185.587,269.262475206
185.602,269.313119849
185.617,269.363093508
185.632,269.412397513
185.647,269.461033141
185.662,269.509001608
185.677,269.556304077
185.692,269.602941656
185.707,269.648915397
185.722,269.694226302
185.737,269.738875315
185.752,269.782863331
185.767,269.826191193
185.782,269.868859695
185.797,269.91086958
185.812,269.952221545
185.827,269.992916237
185.842,270.032954261
185.857,270.072336174
185.872,270.111062492
185.887,270.149133688
185.902,270.186550195
185.917,270.223312405
185.932,270.259420675
185.947,270.294875323
185.96,270.325074197
185.962,270.329676633
185.977,270.363824856
185.992,270.39732021
186.007,270.430162882
186.022,270.462353033
186.037,270.493890794
186.052,270.524776271
186.06,270.540981842
186.067,270.555009545
186.082,270.584590676
186.097,270.613519701
186.112,270.641796639
186.127,270.669421492
186.142,270.696394244
186.157,270.722714865
186.172,270.748383312
186.187,270.773399531
186.202,270.797763459
186.217,270.821475022
186.232,270.844534142
186.247,270.866940737
186.262,270.888694718
186.277,270.909795997
186.292,270.930244484
186.307,270.950040091
186.322,270.969182733
186.337,270.987672329
186.352,271.005508803
186.367,271.022692087
186.382,271.03922212
186.397,271.055098854
186.412,271.070322248
186.427,271.084892279
186.442,271.098808932
186.457,271.112072213
186.472,271.124682141
186.487,271.136638755
186.502,271.147942111
186.517,271.158592287
186.532,271.168589383
186.547,271.177933521
186.562,271.186624845
186.577,271.194663527
186.592,271.202049763
186.607,271.208783776
186.622,271.214865819
186.637,271.220296171
186.652,271.225075143
186.667,271.229203076
186.682,271.232680343
186.697,271.235507349
186.71,271.237431771
186.712,271.237684533
186.727,271.239212368
186.742,271.240091362
186.757,271.240322056
186.772,271.239905032
186.787,271.238840905
186.802,271.23713033
186.817,271.234773997
186.832,271.231772638
186.847,271.228127022
186.862,271.223837959
186.877,271.218906297
186.892,271.213332928
186.907,271.207118783
186.922,271.200264832
186.937,271.19277209
186.952,271.184641614
186.967,271.1758745
186.982,271.16647189
186.997,271.156434967
187.012,271.145764956
187.027,271.134463127
187.042,271.122530792
187.057,271.109969306
187.072,271.096780068
187.087,271.082964521
187.102,271.06852415
187.117,271.053460484
187.132,271.037775096
187.147,271.021469602
187.162,271.00454566
187.177,270.987004974
187.192,270.968849288
187.207,270.950080391
187.222,270.930700114
187.237,270.91071033
187.252,270.890112956
187.267,270.86890995
187.282,270.847103313
187.297,270.824695085
187.312,270.801687351
187.327,270.778082233
187.342,270.753881899
187.357,270.729088551
187.372,270.703704437
187.387,270.677731841
187.402,270.651173088
187.417,270.624030541
187.432,270.596306601
187.447,270.568003709
187.46,270.543008142
187.462,270.539124342
187.477,270.509671015
187.492,270.479646279
187.507,270.449052722
187.522,270.417892966
187.537,270.386169671
187.552,270.35388553
187.567,270.321043269
187.582,270.287645651
187.597,270.253695469
187.612,270.219195551
187.627,270.184148754
187.642,270.14855797
187.657,270.112426119
187.672,270.075756153
187.687,270.038551054
187.702,270.000813831
187.717,269.962547523
187.732,269.923755198
187.747,269.884439949
187.762,269.844604898
187.777,269.804253192
187.792,269.763388003
187.807,269.722012528
187.822,269.680129991
187.837,269.637743635
187.852,269.594856729
187.867,269.551472566
187.882,269.507594456
187.897,269.463225734
187.912,269.418369754
187.927,269.373029891
187.942,269.327209539
187.957,269.280912108
187.972,269.234141031
187.987,269.186899754
188.002,269.139191741
188.017,269.091020475
188.032,269.042389449
188.047,268.993302177
188.062,268.943762182
188.077,268.893773005
188.092,268.843338197
188.107,268.792461323
188.122,268.74114596
188.137,268.689395695
188.152,268.637214127
188.167,268.584604864
188.182,268.531571526
188.197,268.478117738
188.21,268.431453834
188.212,268.424247136
188.227,268.369963363
188.242,268.31527007
188.257,268.260170914
188.272,268.204669557
188.287,268.148769668
188.302,268.092474922
188.317,268.035788995
188.332,267.97871557
188.347,267.921258332
188.362,267.863420969
188.377,267.805207171
188.392,267.746620631
188.407,267.687665042
188.422,267.628344098
188.437,267.568661494
188.452,267.508620924
188.467,267.448226082
188.482,267.38748066
188.497,267.32638835
188.512,267.264952839
188.527,267.203177814
188.542,267.141066958
188.557,267.078623951
188.572,267.015852469
188.587,266.952756183
188.602,266.88933876
188.617,266.825603862
188.632,266.761555144
188.647,266.697196256
188.66,266.641170477
188.662,266.632530843
188.677,266.56756254
188.692,266.502294979
188.707,266.43673178
188.722,266.370876558
