# 48698 WSSS Singapore Observations at 12Z 20 Aug 2019
Frequency [GHz],TB
175.31,276.864754812
175.322,276.843827244
175.337,276.817608486
175.352,276.79132366
175.367,276.764972614
175.382,276.73855511
175.397,276.712070976
175.412,276.685520011
175.427,276.658902014
175.442,276.632216808
175.457,276.605464144
175.472,276.578643877
175.487,276.551755747
175.502,276.524799584
175.517,276.497775184
175.532,276.470682341
175.547,276.44352082
175.562,276.41629045
175.577,276.388991006
175.592,276.36162226
175.607,276.334184023
175.622,276.306676065
175.637,276.279098162
175.652,276.251450136
175.667,276.223731758
175.682,276.195942778
175.697,276.168083007
175.712,276.140152216
175.727,276.112150177
175.742,276.084076688
175.757,276.055931509
175.772,276.027714385
175.787,275.999425149
175.802,275.971063541
175.817,275.942629319
175.832,275.914122271
175.847,275.885542169
175.862,275.856888765
175.877,275.828161834
175.892,275.799361148
175.907,275.770486422
175.922,275.741537496
175.937,275.71251409
175.952,275.683415947
175.967,275.654242851
175.982,275.624994542
175.997,275.595670785
176.012,275.566271347
176.027,275.536795949
176.042,275.507244391
176.057,275.477616367
176.072,275.447911666
176.087,275.418130003
176.102,275.388271172
176.117,275.358334882
176.132,275.32832088
176.147,275.298228929
176.162,275.268058759
176.177,275.237810091
176.192,275.207482687
176.207,275.177076287
176.222,275.146590618
176.237,275.116025391
176.252,275.0853804
176.267,275.054655337
176.282,275.023849926
176.297,274.992963918
176.31,274.966130642
176.312,274.961997039
176.327,274.930949006
176.342,274.899819541
176.357,274.868608408
176.372,274.837315274
176.387,274.805939897
176.402,274.774482
176.417,274.742941274
176.432,274.711317462
176.447,274.679610276
176.46,274.65206305
176.462,274.647819427
176.477,274.615944627
176.492,274.583985606
176.507,274.551942052
176.522,274.519813715
176.537,274.487600246
176.552,274.455301392
176.567,274.42291687
176.582,274.390446357
176.597,274.357889566
176.612,274.325246184
176.627,274.292515945
176.642,274.259698542
176.657,274.226793649
176.672,274.193800988
176.687,274.160720245
176.702,274.127551113
176.717,274.094293306
176.732,274.06094649
176.747,274.027510375
176.762,273.993984636
176.777,273.960368975
176.792,273.92666307
176.807,273.892866597
176.822,273.85897926
176.837,273.825000753
176.852,273.790930717
176.867,273.756768872
176.882,273.722514879
176.897,273.688168417
176.912,273.653729177
176.927,273.619196815
176.942,273.584571027
176.957,273.549851453
176.972,273.515037801
176.987,273.480129726
177.002,273.445126906
177.017,273.41002898
177.032,273.374835645
177.047,273.339546576
177.062,273.304161412
177.077,273.268679798
177.092,273.23310144
177.107,273.197425984
177.122,273.161653079
177.137,273.125782392
177.152,273.089813577
177.167,273.0537463
177.182,273.017580191
177.197,272.98131493
177.21,272.949804543
177.212,272.944950148
177.227,272.908485505
177.242,272.871920651
177.257,272.835255233
177.272,272.798488897
177.287,272.76162129
177.302,272.724652039
177.31,272.704893431
177.317,272.687580824
177.332,272.650407252
177.347,272.613130983
177.362,272.575751639
177.377,272.538268881
177.392,272.500682322
177.407,272.462991599
177.422,272.425196383
177.437,272.387296262
177.452,272.34929089
177.467,272.311179873
177.482,272.272962881
177.497,272.234639493
177.512,272.196209384
177.527,272.157672148
177.542,272.119027412
177.557,272.080274811
177.572,272.041413946
177.587,272.002444445
177.602,271.963365921
177.617,271.924178023
177.632,271.884880313
177.647,271.845472445
177.66,271.81122954
177.662,271.805954016
177.677,271.766324639
177.692,271.726583922
177.707,271.686731466
177.722,271.646766916
177.737,271.606689826
177.752,271.566499825
177.767,271.526196522
177.782,271.485779497
177.797,271.445248372
177.812,271.404602725
177.827,271.363842176
177.842,271.322966267
177.857,271.281974664
177.872,271.240866899
177.887,271.199642593
177.902,271.158301327
177.917,271.116842672
177.932,271.07526623
177.947,271.033571587
177.96,270.99734027
177.962,270.991758309
177.977,270.949825981
177.992,270.907774185
178.007,270.865602496
178.022,270.82331048
178.037,270.780897704
178.052,270.738363754
178.067,270.695708189
178.082,270.652930565
178.097,270.610030472
178.112,270.567007446
178.127,270.523861054
178.142,270.480590842
178.157,270.437196381
178.172,270.393677221
178.187,270.350032895
178.202,270.306262965
178.217,270.262366979
178.232,270.218344469
178.247,270.174194987
178.262,270.129918066
178.277,270.085513198
178.292,270.040979994
178.307,269.996317925
178.322,269.951526518
178.337,269.906605314
178.352,269.861553837
178.367,269.816371582
178.382,269.771058097
178.397,269.725612832
178.41,269.686120001
178.412,269.68003535
178.427,269.634325126
178.442,269.588481664
178.457,269.542504446
178.472,269.496393011
178.487,269.45014681
178.502,269.40376532
178.517,269.357248026
178.532,269.310594404
178.547,269.26380396
178.562,269.216876102
178.577,269.169810334
178.592,269.122606094
178.607,269.075262842
178.622,269.027780018
178.637,268.980157088
178.652,268.932393468
178.667,268.884488604
178.682,268.836441897
178.697,268.788252796
178.712,268.739920701
178.727,268.691445035
178.742,268.642825195
178.757,268.594060557
178.772,268.545150548
178.787,268.496094531
178.802,268.446891888
178.817,268.397541985
178.832,268.348044197
178.847,268.298397858
178.862,268.24860234
178.877,268.198656968
178.892,268.148561082
178.907,268.098314009
178.922,268.047915068
178.937,267.997363546
178.952,267.946658775
178.967,267.895800007
178.982,267.844786559
178.997,267.793617666
179.012,267.7422926
179.027,267.690810644
179.042,267.639170978
179.057,267.58737288
179.072,267.535415564
179.087,267.483298237
179.102,267.431020074
179.117,267.378580267
179.132,267.325978012
179.147,267.273212462
179.16,267.227349538
179.162,267.220282728
179.177,267.167187983
179.192,267.113927328
179.207,267.060499891
179.222,267.006904761
179.237,266.953140993
179.252,266.899207678
179.267,266.845103855
179.282,266.790828552
179.297,266.7363808
179.312,266.681759593
179.327,266.62696393
179.342,266.571992745
179.357,266.516845039
179.372,266.461519695
179.387,266.406015636
179.402,266.350331784
179.417,266.294467008
179.432,266.238420149
179.447,266.182190061
179.462,266.125775536
179.477,266.069175407
179.492,266.01238839
179.507,265.955413296
179.522,265.898248804
179.537,265.840893658
179.552,265.783346527
179.567,265.725606057
179.582,265.667670898
179.597,265.609539627
179.612,265.55121086
179.627,265.492683143
179.642,265.433954979
179.657,265.375024901
179.672,265.315891374
179.687,265.256552821
179.702,265.197007658
179.717,265.1372543
179.732,265.077291053
179.747,265.017116263
179.762,264.956728224
179.777,264.896125169
179.792,264.83530534
179.807,264.774266932
179.822,264.71300805
179.837,264.651526842
179.852,264.589821418
179.867,264.527889773
179.882,264.465729936
179.897,264.40333984
179.91,264.349080618
179.912,264.340717459
179.927,264.277860635
179.942,264.214767239
179.957,264.151435058
179.972,264.087861866
179.987,264.024045337
180.002,263.959983212
180.017,263.895673047
180.032,263.831112442
180.047,263.766298923
180.062,263.701229998
180.077,263.635903072
180.092,263.570315502
180.107,263.504464685
180.122,263.438347829
180.137,263.371962207
180.152,263.305304961
180.167,263.238373221
180.182,263.171164018
180.197,263.103674389
180.212,263.035901219
180.227,262.967841467
180.242,262.899491872
180.257,262.830849253
180.272,262.761910259
180.287,262.692671547
180.302,262.623129668
180.317,262.553281114
180.332,262.483122325
180.347,262.41264966
180.362,262.341859379
180.377,262.270747724
180.392,262.19931084
180.407,262.127544771
180.422,262.055445508
180.437,261.983008977
180.452,261.910231022
180.467,261.837107355
180.482,261.763633684
180.497,261.689805572
180.512,261.615618539
180.527,261.541068
180.542,261.466149261
180.557,261.390857561
180.56,261.375754045
180.572,261.315188069
180.587,261.239135815
180.602,261.162695751
180.617,261.085862768
180.632,261.008631599
180.647,260.930996909
180.66,260.863382929
180.662,260.852953274
180.677,260.774495132
180.692,260.695616841
180.707,260.61631266
180.722,260.536576714
180.737,260.456402982
180.752,260.375785447
180.767,260.294717854
180.782,260.213193884
180.797,260.131207094
180.812,260.048750936
180.827,259.965818734
180.842,259.882403621
180.857,259.798498697
180.872,259.714096874
180.887,259.629190944
180.902,259.543773585
180.917,259.457837303
180.932,259.371374477
180.947,259.284377388
180.962,259.196838087
180.977,259.108748529
180.992,259.020100522
181.007,258.930885724
181.022,258.841095621
181.037,258.750721568
181.052,258.659754717
181.067,258.568186102
181.082,258.476006587
181.097,258.383206821
181.112,258.289777374
181.127,258.19570853
181.142,258.1009905
181.157,258.005613286
181.172,257.909566662
181.187,257.812840289
181.202,257.715423589
181.217,257.61730584
181.232,257.518476112
181.247,257.418923241
181.262,257.318635955
181.277,257.217602715
181.292,257.115811805
181.307,257.013251317
181.31,256.992645801
181.322,256.909909117
181.337,256.805772874
181.352,256.700830037
181.367,256.59506788
181.382,256.488473476
181.397,256.381033569
181.412,256.272734854
181.427,256.163563676
181.442,256.053506224
181.457,255.942548451
181.472,255.830676102
181.487,255.717874711
181.502,255.604129539
181.517,255.489425699
181.532,255.373748031
181.547,255.257081181
181.562,255.139409556
181.577,255.020717363
181.592,254.900988614
181.607,254.780207044
181.622,254.658356242
181.637,254.535419524
181.652,254.411380088
181.667,254.286220858
181.682,254.1599246
181.697,254.032473848
181.712,253.903851005
181.727,253.77403831
181.742,253.643017744
181.757,253.510771229
181.772,253.377280457
181.787,253.24252704
181.802,253.106492432
181.817,252.969157986
181.832,252.830504956
181.847,252.690514479
181.862,252.549167671
181.877,252.406445582
181.892,252.262329189
181.907,252.11679954
181.922,251.96983763
181.937,251.821424522
181.952,251.671541362
181.967,251.520169356
181.982,251.367289854
181.997,251.212884366
182.012,251.056934594
182.027,250.899422493
182.042,250.740330259
182.057,250.579640451
182.06,250.547309272
182.072,250.417335953
182.087,250.253400107
182.102,250.087816689
182.117,249.920570029
182.132,249.751645008
182.147,249.581027186
182.162,249.408702861
182.177,249.234659063
182.192,249.058883771
182.207,248.881365832
182.222,248.702095138
182.237,248.521062758
182.252,248.338260895
182.267,248.153683156
182.282,247.967324489
182.297,247.77918141
182.312,247.589252062
182.327,247.397536372
182.342,247.204036113
182.357,247.00875513
182.372,246.811699347
182.387,246.61287706
182.402,246.412298967
182.417,246.209978385
182.432,246.005931319
182.447,245.800176766
182.462,245.59273674
182.477,245.383636568
182.492,245.172904924
182.507,244.960574148
182.522,244.746680324
182.537,244.531263547
182.552,244.31436802
182.567,244.096042284
182.582,243.876339445
182.597,243.655317213
182.612,243.433038275
182.627,243.209570301
182.642,242.984986199
182.657,242.759364171
182.672,242.532787999
182.687,242.305346998
182.702,242.077136211
182.717,241.848256433
182.732,241.618814284
182.747,241.38892209
182.762,241.158697922
182.777,240.928265455
182.792,240.697753667
182.807,240.467296623
182.822,240.237032979
182.837,240.007105473
182.852,239.777660102
182.867,239.548845188
182.882,239.320810156
182.897,239.093703883
182.912,238.867672703
182.927,238.642857928
182.942,238.419392518
182.957,238.197396984
182.972,237.976974251
182.987,237.758202933
183.002,237.541128716
183.017,237.325753337
183.032,237.112020099
183.047,236.899794832
183.062,236.688840822
183.077,236.478784805
183.092,236.269071404
183.107,236.058899986
183.122,235.847137472
183.137,235.632195421
183.152,235.411855639
183.167,235.183020788
183.182,234.941358623
183.197,234.680806002
183.212,234.392927232
183.227,234.066280385
183.242,233.686585251
183.257,233.240839329
183.367,233.344578862
183.382,233.768082053
183.397,234.128196391
183.412,234.439126236
183.427,234.714556453
183.442,234.965115325
183.457,235.19856342
183.472,235.420464057
183.487,235.634791504
183.502,235.844388517
183.517,236.051291349
183.532,236.256957375
183.547,236.462424326
183.562,236.668422732
183.577,236.875456211
183.592,237.083859293
183.607,237.293839825
183.622,237.505510267
183.637,237.718911051
183.652,237.934028351
183.667,238.150807571
183.682,238.369163571
183.697,238.588988917
183.712,238.810159969
183.727,239.032541873
183.742,239.255992325
183.757,239.480364712
183.772,239.705510429
183.787,239.931280778
183.802,240.157528504
183.817,240.384108895
183.832,240.610880747
183.847,240.837706982
183.862,241.064455286
183.877,241.290998422
183.892,241.517214545
183.907,241.742987335
183.922,241.968206204
183.937,242.192766266
183.952,242.416568392
183.967,242.639519139
183.982,242.861530678
183.997,243.082520747
184.012,243.302412416
184.027,243.521134096
184.042,243.738619252
184.057,243.954806348
184.072,244.169638605
184.087,244.383063866
184.102,244.595034365
184.117,244.805506633
184.132,245.01444121
184.147,245.22180256
184.162,245.427558827
184.177,245.631681696
184.192,245.834146185
184.207,246.034930489
184.222,246.234015819
184.237,246.431386232
184.252,246.627028469
184.267,246.820931817
184.282,247.013087949
184.297,247.203490736
184.312,247.39213623
184.327,247.579022385
184.342,247.764149045
184.357,247.947517784
184.372,248.129131709
184.387,248.308995512
184.402,248.487115219
184.417,248.663498175
184.432,248.838152864
184.447,249.011088928
184.462,249.182316981
184.477,249.351848595
184.492,249.519696182
184.507,249.685872895
184.522,249.850392654
184.537,250.013269975
184.552,250.174519967
184.56,250.259859942
184.567,250.334158279
184.582,250.492200978
184.597,250.648664603
184.612,250.803565974
184.627,250.956922347
184.642,251.10875114
184.657,251.259070064
184.672,251.407897024
184.687,251.555250101
184.702,251.701147426
184.717,251.845607348
184.732,251.988648188
184.747,252.130288383
184.762,252.270546334
184.777,252.40944048
184.792,252.546989227
184.807,252.683210905
184.822,252.818123842
184.837,252.95174624
184.852,253.084096218
184.867,253.21519183
184.882,253.345050948
184.897,253.473691368
184.912,253.601130692
184.927,253.727386406
184.942,253.852475831
184.957,253.976416143
184.972,254.099224307
184.987,254.220917104
185.002,254.341511173
185.017,254.4610229
185.032,254.57946854
185.047,254.69686411
185.062,254.813225456
185.077,254.928568177
185.092,255.04290767
185.107,255.156259167
185.122,255.268637653
185.137,255.380057931
185.152,255.490534547
185.167,255.600081867
185.182,255.708714029
185.197,255.816444997
185.212,255.923288457
185.227,256.029257974
185.242,256.134366822
185.257,256.238628071
185.272,256.34205464
185.287,256.444659202
185.302,256.546454232
185.31,256.600418154
185.317,256.647452005
185.332,256.747664573
185.347,256.84710385
185.362,256.945781474
185.377,257.043708947
185.392,257.140897517
185.407,257.237358345
185.422,257.333102282
185.437,257.42814006
185.452,257.522482252
185.467,257.616139172
185.482,257.709120998
185.497,257.801437758
185.512,257.893099266
185.527,257.984115163
185.542,258.074494946
185.557,258.164247944
185.572,258.253383289
185.587,258.341910015
185.602,258.429836884
185.617,258.517172651
185.632,258.603925798
185.647,258.690104695
185.662,258.775717564
185.677,258.860772523
185.692,258.945277443
185.707,259.029240158
185.722,259.112668289
185.737,259.195569371
185.752,259.277950783
185.767,259.359819749
185.782,259.441183387
185.797,259.522048694
185.812,259.602422527
185.827,259.682311624
185.842,259.761722614
185.857,259.840661962
185.872,259.919136066
185.887,259.99715119
185.902,260.074713481
185.917,260.151828945
185.932,260.228503566
185.947,260.304743153
185.96,260.370469962
185.962,260.380553392
185.977,260.455939911
185.992,260.530908229
186.007,260.605463743
186.022,260.679611775
186.037,260.753357538
186.052,260.826706153
186.06,260.865664759
186.067,260.899662635
186.082,260.972231937
186.097,261.044418895
186.112,261.116228284
186.127,261.187664762
186.142,261.258732907
186.157,261.329437262
186.172,261.3997822
186.187,261.469772073
186.202,261.53941117
186.217,261.608703646
186.232,261.677653625
186.247,261.746265132
186.262,261.814542135
186.277,261.882488518
186.292,261.950108092
186.307,262.017404605
186.322,262.084381728
186.337,262.15104311
186.352,262.217392262
186.367,262.283432672
186.382,262.34916778
186.397,262.414600899
186.412,262.479735361
186.427,262.544574377
186.442,262.609121147
186.457,262.673378763
186.472,262.737350316
186.487,262.801038778
186.502,262.864447125
186.517,262.927578244
186.532,262.990434971
186.547,263.053020115
186.562,263.115336419
186.577,263.177386555
186.592,263.239173198
186.607,263.300698903
186.622,263.361966259
186.637,263.422977735
186.652,263.483735819
186.667,263.544242883
186.682,263.60450134
186.697,263.664513492
186.71,263.716326561
186.712,263.724281628
186.727,263.783807987
186.742,263.843094785
186.757,263.902144174
186.772,263.960958277
186.787,264.019539185
186.802,264.077888956
186.817,264.1360096
186.832,264.193903076
186.847,264.25157133
186.862,264.309016288
186.877,264.36623982
186.892,264.423243735
186.907,264.480029872
186.922,264.536599991
186.937,264.592955859
186.952,264.64909916
186.967,264.705031595
186.982,264.760754817
186.997,264.816270447
187.012,264.871580089
187.027,264.926685297
187.042,264.981587646
187.057,265.036288608
187.072,265.090789717
187.087,265.145092405
187.102,265.199198134
187.117,265.253108287
187.132,265.306824302
187.147,265.360347499
187.162,265.413679271
187.177,265.466820905
187.192,265.519773711
187.207,265.572538966
187.222,265.625117945
187.237,265.677511861
187.252,265.729721938
187.267,265.781749372
187.282,265.833595357
187.297,265.885261029
187.312,265.936747528
187.327,265.988056021
187.342,266.039187557
187.357,266.090143246
187.372,266.140924158
187.387,266.191531354
187.402,266.241965852
187.417,266.292228703
187.432,266.342320871
187.447,266.392243375
187.46,266.435373055
187.462,266.441997179
187.477,266.491583258
187.492,266.541002539
187.507,266.590255986
187.522,266.639344495
187.537,266.688268962
187.552,266.737030302
187.567,266.785629371
187.582,266.834067073
187.597,266.882344231
187.612,266.930461709
187.627,266.978420332
187.642,267.026220911
187.657,267.073864257
187.672,267.121351191
187.687,267.168682481
187.702,267.215858905
187.717,267.262881235
187.732,267.309750224
187.747,267.356466645
187.762,267.403031191
187.777,267.449444642
187.792,267.495707667
187.807,267.541821007
187.822,267.587785382
187.837,267.633601445
187.852,267.679269898
187.867,267.724791435
187.882,267.770166715
187.897,267.815396395
187.912,267.860481138
187.927,267.905421588
187.942,267.950218382
187.957,267.994872156
187.972,268.039383556
187.987,268.083753189
188.002,268.12798164
188.017,268.172069548
188.032,268.216017522
188.047,268.259826125
188.062,268.303495965
188.077,268.347027632
188.092,268.39042168
188.107,268.433678706
188.122,268.476799253
188.137,268.519783901
188.152,268.5626332
188.167,268.605347699
188.182,268.647927933
188.197,268.690374458
188.21,268.727053721
188.212,268.732687826
188.227,268.774868519
188.242,268.816917119
188.257,268.858834121
188.272,268.90062004
188.287,268.942275391
188.302,268.983800704
188.317,269.025196457
188.332,269.066463171
188.347,269.107601339
188.362,269.148611475
188.377,269.189494008
188.392,269.230249501
188.407,269.270878397
188.422,269.311381163
188.437,269.351758322
188.452,269.3920103
188.467,269.432137575
188.482,269.472140638
188.497,269.512019941
188.512,269.551775964
188.527,269.591409109
188.542,269.630919894
188.557,269.670308721
188.572,269.709576081
188.587,269.748722375
188.602,269.787748092
188.617,269.82665364
188.632,269.865439472
188.647,269.904106011
188.66,269.937520869
188.662,269.942653717
188.677,269.981082991
188.692,270.019394271
188.707,270.057587974
188.722,270.095664553
188.737,270.133624392
