# 01004 ENAS Ny-Alesund Ii Observations at 12Z 20 Aug 2019
Frequency [GHz],TB
175.31,263.965962701
175.322,263.985158486
175.337,264.008971453
175.352,264.032581245
175.367,264.055986573
175.382,264.079186142
175.397,264.102178657
175.412,264.124962818
175.427,264.147537327
175.442,264.169900896
175.457,264.192052227
175.472,264.213990025
175.487,264.235712998
175.502,264.25721985
175.517,264.278509294
175.532,264.299580033
175.547,264.320430785
175.562,264.341060255
175.577,264.361467154
175.592,264.381650208
175.607,264.401608122
175.622,264.42133961
175.637,264.440843402
175.652,264.460118203
175.667,264.479162753
175.682,264.49797576
175.697,264.516555968
175.712,264.534902093
175.727,264.553012867
175.742,264.570887034
175.757,264.588523329
175.772,264.605920485
175.787,264.623077245
175.802,264.639992359
175.817,264.656664579
175.832,264.673092652
175.847,264.689275327
175.862,264.705211379
175.877,264.720899564
175.892,264.736338649
175.907,264.751527402
175.922,264.766464601
175.937,264.781149025
175.952,264.795579456
175.967,264.809754692
175.982,264.823673512
175.997,264.837334719
176.012,264.85073712
176.027,264.863879512
176.042,264.876760725
176.057,264.889379561
176.072,264.901734853
176.087,264.913825427
176.102,264.925650121
176.117,264.937207773
176.132,264.948497234
176.147,264.959517353
176.162,264.970266995
176.177,264.98074502
176.192,264.990950303
176.207,265.000881727
176.222,265.010538176
176.237,265.019918546
176.252,265.029021734
176.267,265.037846653
176.282,265.046392213
176.297,265.054657343
176.31,265.061592792
176.312,265.062640971
176.327,265.070342039
176.342,265.077759493
176.357,265.084892286
176.372,265.091739384
176.387,265.098299755
176.402,265.104572394
176.417,265.110556276
176.432,265.116250408
176.447,265.121653791
176.46,265.126100786
176.462,265.126765448
176.477,265.131584403
176.492,265.136109696
176.507,265.14034037
176.522,265.144275476
176.537,265.147914089
176.552,265.151255271
176.567,265.15429812
176.582,265.157041735
176.597,265.159485206
176.612,265.161627667
176.627,265.163468241
176.642,265.165006063
176.657,265.166240282
176.672,265.16717007
176.687,265.167794587
176.702,265.168113027
176.717,265.168124574
176.732,265.167828449
176.747,265.167223862
176.762,265.166310042
176.777,265.165086239
176.792,265.163551706
176.807,265.161705705
176.822,265.159547524
176.837,265.157076453
176.852,265.154291788
176.867,265.151192863
176.882,265.147778997
176.897,265.144049535
176.912,265.140003833
176.927,265.135641268
176.942,265.130961219
176.957,265.125963071
176.972,265.120646253
176.987,265.115010172
177.002,265.109054274
177.017,265.102778006
177.032,265.096180838
177.047,265.08926224
177.062,265.082021715
177.077,265.074458754
177.092,265.066572894
177.107,265.058363654
177.122,265.049830596
177.137,265.04097327
177.152,265.031791267
177.167,265.022284167
177.182,265.012451584
177.197,265.002293133
177.21,264.993225275
177.212,264.991808459
177.227,264.980997194
177.242,264.969859015
177.257,264.958393603
177.272,264.946600639
177.287,264.934479844
177.302,264.922030931
177.31,264.915257258
177.317,264.909253645
177.332,264.896147735
177.347,264.882712965
177.362,264.868949124
177.377,264.854856
177.392,264.840433412
177.407,264.825681176
177.422,264.810599136
177.437,264.795187152
177.452,264.779445089
177.467,264.763372828
177.482,264.746970271
177.497,264.730237336
177.512,264.71317394
177.527,264.69578003
177.542,264.678055564
177.557,264.660000502
177.572,264.641614839
177.587,264.622898578
177.602,264.603851717
177.617,264.584474285
177.632,264.564766329
177.647,264.544727898
177.66,264.527093997
177.662,264.524359066
177.677,264.503659901
177.692,264.4826305
177.707,264.461270986
177.722,264.439581462
177.737,264.417562067
177.752,264.395212947
177.767,264.372534265
177.782,264.349526178
177.797,264.326188889
177.812,264.302522583
177.827,264.278527467
177.842,264.254203761
177.857,264.229551701
177.872,264.204571525
177.887,264.179263488
177.902,264.153627854
177.917,264.127664899
177.932,264.101374911
177.947,264.074758189
177.96,264.051426301
177.962,264.047815032
177.977,264.020545762
177.992,263.992950706
178.007,263.965030196
178.022,263.93678458
178.037,263.90821421
178.052,263.879319453
178.067,263.850100676
178.082,263.820558249
178.097,263.790692575
178.112,263.760504042
178.127,263.729993045
178.142,263.699159994
178.157,263.668005312
178.172,263.636529412
178.187,263.604732725
178.202,263.572615687
178.217,263.54017873
178.232,263.507422293
178.247,263.474346833
178.262,263.440952797
178.277,263.407240648
178.292,263.373210834
178.307,263.338863821
178.322,263.304200083
178.337,263.269220074
178.352,263.23392428
178.367,263.198313162
178.382,263.162387193
178.397,263.126146853
178.41,263.094484626
178.412,263.08959261
178.427,263.052724949
178.442,263.015544331
178.457,262.978051242
178.472,262.940246151
178.487,262.902129533
178.502,262.863701855
178.517,262.824963585
178.532,262.785915187
178.547,262.746557122
178.562,262.706889855
178.577,262.666913843
178.592,262.626629525
178.607,262.586037357
178.622,262.545137773
178.637,262.503931209
178.652,262.4624181
178.667,262.420598866
178.682,262.378473929
178.697,262.33604368
178.712,262.293308539
178.727,262.250268887
178.742,262.206925116
178.757,262.163277603
178.772,262.11932671
178.787,262.075072792
178.802,262.0305162
178.817,261.985657264
178.832,261.940496318
178.847,261.895033668
178.862,261.849269616
178.877,261.803204454
178.892,261.756838454
178.907,261.710171892
178.922,261.663205002
178.937,261.615938024
178.952,261.568371192
178.967,261.520504705
178.982,261.472338754
178.997,261.423873516
179.012,261.37510916
179.027,261.326045821
179.042,261.276683634
179.057,261.227022713
179.072,261.177063147
179.087,261.126805023
179.102,261.076248387
179.117,261.025393291
179.132,260.974239752
179.147,260.92278778
179.16,260.877954659
179.162,260.871037357
179.177,260.818988452
179.192,260.766641001
179.207,260.713994939
179.222,260.661050172
179.237,260.607806583
179.252,260.554264031
179.267,260.500422366
179.282,260.446281409
179.297,260.391840962
179.312,260.337100797
179.327,260.282060679
179.342,260.226720336
179.357,260.171079488
179.372,260.115137811
179.387,260.058894985
179.402,260.002350653
179.417,259.945504421
179.432,259.888355907
179.447,259.830904669
179.462,259.773150268
179.477,259.715092231
179.492,259.656730049
179.507,259.598063217
179.522,259.539091181
179.537,259.479813376
179.552,259.420229202
179.567,259.360338052
179.582,259.30013928
179.597,259.239632227
179.612,259.178816196
179.627,259.117690477
179.642,259.056254329
179.657,258.994506991
179.672,258.932447678
179.687,258.870075577
179.702,258.807389857
179.717,258.74438966
179.732,258.68107409
179.747,258.617442254
179.762,258.553493216
179.777,258.489226018
179.792,258.424639688
179.807,258.359733216
179.822,258.294505575
179.837,258.228955724
179.852,258.163082587
179.867,258.09688507
179.882,258.030362047
179.897,257.963512384
179.91,257.905310891
179.912,257.896334914
179.927,257.828828452
179.942,257.760991785
179.957,257.692823685
179.972,257.624322905
179.987,257.555488168
180.002,257.48631817
180.017,257.416811608
180.032,257.346967138
180.047,257.276783406
180.062,257.206259035
180.077,257.135392619
180.092,257.064182746
180.107,256.99262798
180.122,256.920726871
180.137,256.84847794
180.152,256.77587969
180.167,256.702930619
180.182,256.629629196
180.197,256.55597388
180.212,256.481963101
180.227,256.407595287
180.242,256.332868844
180.257,256.257782166
180.272,256.182333619
180.287,256.106521567
180.302,256.030344363
180.317,255.953800331
180.332,255.876887806
180.347,255.799605082
180.362,255.721950457
180.377,255.643922213
180.392,255.565518631
180.407,255.486737959
180.422,255.407578466
180.437,255.328038387
180.452,255.248115954
180.467,255.167809399
180.482,255.087116932
180.497,255.006036778
180.512,254.924567137
180.527,254.842706207
180.542,254.760452196
180.557,254.677803287
180.56,254.661225962
180.572,254.594757677
180.587,254.51131355
180.602,254.427469095
180.617,254.343222502
180.632,254.258571955
180.647,254.173515646
180.66,254.099470556
180.662,254.088051765
180.677,254.002178506
180.692,253.915894072
180.707,253.82919667
180.722,253.74208451
180.737,253.654555815
180.752,253.566608809
180.767,253.478241733
180.782,253.389452849
180.797,253.300240406
180.812,253.210602696
180.827,253.120538006
180.842,253.030044648
180.857,252.939120953
180.872,252.847765271
180.887,252.755975974
180.902,252.663751459
180.917,252.571090152
180.932,252.477990491
180.947,252.384450961
180.962,252.290470068
180.977,252.196046349
180.992,252.101178385
181.007,252.005864786
181.022,251.910104201
181.037,251.813895321
181.052,251.717236896
181.067,251.620127693
181.082,251.522566552
181.097,251.424552356
181.112,251.32608404
181.127,251.227160594
181.142,251.127781074
181.157,251.027944598
181.172,250.927650343
181.187,250.826897564
181.202,250.725685577
181.217,250.624013779
181.232,250.521881648
181.247,250.419288735
181.262,250.31623469
181.277,250.212719246
181.292,250.108742222
181.307,250.004303548
181.31,249.983360411
181.322,249.899403245
181.337,249.794041446
181.352,249.688218389
181.367,249.581934431
181.382,249.475190044
181.397,249.367985823
181.412,249.260322505
181.427,249.152200943
181.442,249.043622128
181.457,248.93458722
181.472,248.825097488
181.487,248.715154396
181.502,248.604759546
181.517,248.49391471
181.532,248.382621825
181.547,248.270883027
181.562,248.158700616
181.577,248.046077083
181.592,247.933015139
181.607,247.819517667
181.622,247.70558778
181.637,247.591228811
181.652,247.476444305
181.667,247.361238047
181.682,247.24561405
181.697,247.129576598
181.712,247.013130205
181.727,246.896279657
181.742,246.779030015
181.757,246.6613866
181.772,246.54335505
181.787,246.424941262
181.802,246.306151476
181.817,246.186992205
181.832,246.067470314
181.847,245.947592981
181.862,245.827367737
181.877,245.706802446
181.892,245.585905339
181.907,245.46468502
181.922,245.343150463
181.937,245.221311035
181.952,245.099176493
181.967,244.976757008
181.982,244.854063176
181.997,244.731105992
182.012,244.607896928
182.027,244.484447879
182.042,244.360771212
182.057,244.236879754
182.06,244.212076849
182.072,244.112786815
182.087,243.988506208
182.102,243.864052229
182.117,243.739439698
182.132,243.614683949
182.147,243.489800864
182.162,243.364806838
182.177,243.239718858
182.192,243.114554437
182.207,242.989331664
182.222,242.864069223
182.237,242.738786374
182.252,242.613502976
182.267,242.488239475
182.282,242.363016948
182.297,242.237857046
182.312,242.112782083
182.327,241.987814934
182.342,241.862979127
182.357,241.738298799
182.372,241.61379869
182.387,241.489504134
182.402,241.365441094
182.417,241.241636075
182.432,241.118116174
182.447,240.994909025
182.462,240.87204278
182.477,240.749546084
182.492,240.627448035
182.507,240.505778148
182.522,240.384566283
182.537,240.263842596
182.552,240.143637486
182.567,240.023981487
182.582,239.904905179
182.597,239.786439087
182.612,239.668613545
182.627,239.551458558
182.642,239.435003652
182.657,239.319277626
182.672,239.204308416
182.687,239.090122763
182.702,238.976745997
182.717,238.864201674
182.732,238.752511211
182.747,238.641693465
182.762,238.531764246
182.777,238.422735752
182.792,238.314615948
182.807,238.207407813
182.822,238.10110853
182.837,237.995708478
182.852,237.891190138
182.867,237.787526811
182.882,237.684681086
182.897,237.582603132
182.912,237.481228667
182.927,237.380476556
182.942,237.280246067
182.957,237.180413581
182.972,237.08082874
182.987,236.981309902
183.002,236.88163874
183.017,236.781553834
183.032,236.680743093
183.047,236.578834802
183.062,236.47538705
183.077,236.369875493
183.092,236.26167934
183.107,236.150066042
183.122,236.034175626
183.137,235.913007317
183.152,235.785413813
183.167,235.650114427
183.182,235.505749209
183.197,235.351017327
183.212,235.184981356
183.227,235.007684139
183.242,234.821311773
183.257,234.632168946
183.367,234.668339885
183.382,234.854658758
183.397,235.036061733
183.412,235.207525019
183.427,235.367557231
183.442,235.516448051
183.457,235.655270068
183.472,235.785359672
183.487,235.908065669
183.502,236.024638061
183.517,236.136187359
183.532,236.243677793
183.547,236.347935745
183.562,236.449664042
183.577,236.549457752
183.592,236.647819176
183.607,236.745171475
183.622,236.841870433
183.637,236.93821463
183.652,237.034454009
183.667,237.130797182
183.682,237.227417494
183.697,237.324458253
183.712,237.422037066
183.727,237.520249539
183.742,237.619172412
183.757,237.718866226
183.772,237.819377624
183.787,237.920741282
183.802,238.022981594
183.817,238.12611409
183.832,238.230146717
183.847,238.3350809
183.862,238.440912493
183.877,238.547632553
183.892,238.65522808
183.907,238.763682628
183.922,238.872976842
183.937,238.98308891
183.952,239.093995008
183.967,239.205669642
183.982,239.318085937
183.997,239.431215957
184.012,239.545030932
184.027,239.659501436
184.042,239.774597622
184.057,239.890289359
184.072,240.006546349
184.087,240.123338284
184.102,240.240634932
184.117,240.358406241
184.132,240.47662241
184.147,240.595253946
184.162,240.71427174
184.177,240.833647107
184.192,240.953351827
184.207,241.073358199
184.222,241.193639011
184.237,241.314167646
184.252,241.434918046
184.267,241.555864735
184.282,241.676982834
184.297,241.798248069
184.312,241.919636796
184.327,242.041125959
184.342,242.162693136
184.357,242.284316504
184.372,242.405974868
184.387,242.527647621
184.402,242.649314776
184.417,242.770956932
184.432,242.892555257
184.447,243.014091548
184.462,243.135548126
184.477,243.256907897
184.492,243.378154329
184.507,243.499271409
184.522,243.620243682
184.537,243.741056197
184.552,243.861694528
184.56,243.925958926
184.567,243.982144761
184.582,244.10239345
184.597,244.222427647
184.612,244.342234872
184.627,244.461803098
184.642,244.581120761
184.657,244.700176736
184.672,244.818960308
184.687,244.937461194
184.702,245.055669517
184.717,245.17357581
184.732,245.291170965
184.747,245.408446271
184.762,245.525393396
184.777,245.642004346
184.792,245.758271481
184.807,245.874187507
184.822,245.989745461
184.837,246.104938695
184.852,246.219760868
184.867,246.334205965
184.882,246.44826824
184.897,246.561942257
184.912,246.675222841
184.927,246.788105099
184.942,246.900584393
184.957,247.012656344
184.972,247.12431682
184.987,247.235561933
185.002,247.346388017
185.017,247.45679163
185.032,247.566769567
185.047,247.676318818
185.062,247.785436585
185.077,247.894120265
185.092,248.002367438
185.107,248.110175884
185.122,248.217543563
185.137,248.324468592
185.152,248.430949258
185.167,248.536984041
185.182,248.642571536
185.197,248.747710505
185.212,248.852399866
185.227,248.956638657
185.242,249.060426066
185.257,249.163761408
185.272,249.266644119
185.287,249.369073763
185.302,249.471050017
185.31,249.525251886
185.317,249.572572659
185.332,249.673641599
185.347,249.774256829
185.362,249.874418447
185.377,249.97412665
185.392,250.073381728
185.407,250.17218405
185.422,250.270534075
185.437,250.368432337
185.452,250.465879465
185.467,250.562876134
185.482,250.659423119
185.497,250.755521238
185.512,250.851171393
185.527,250.946374537
185.542,251.04113168
185.557,251.135443899
185.572,251.229312316
185.587,251.322738109
185.602,251.415722503
185.617,251.50826676
185.632,251.600372205
185.647,251.692040178
185.662,251.783272089
185.677,251.874069372
185.692,251.964433478
185.707,252.054365926
185.722,252.143868234
185.737,252.23294197
185.752,252.321588724
185.767,252.409810106
185.782,252.497607763
185.797,252.584983355
185.812,252.671938561
185.827,252.758475093
185.842,252.844594673
185.857,252.930299034
185.872,253.015589928
185.887,253.100469135
185.902,253.184938423
185.917,253.268999602
185.932,253.352654459
185.947,253.435904831
185.96,253.507729354
185.962,253.518752518
185.977,253.601199368
185.992,253.683247204
186.007,253.764897877
186.022,253.846153235
186.037,253.927015127
186.052,254.007485407
186.06,254.050243401
186.067,254.08756593
186.082,254.167258558
186.097,254.246565146
186.112,254.32548755
186.127,254.404027627
186.142,254.482187234
186.157,254.559968225
186.172,254.637372452
186.187,254.714401756
186.202,254.791057979
186.217,254.867342962
186.232,254.943258545
186.247,255.018806535
186.262,255.093988778
186.277,255.168807059
186.292,255.243263209
186.307,255.317359014
186.322,255.39109627
186.337,255.464476758
186.352,255.537502244
186.367,255.610174499
186.382,255.682495273
186.397,255.754466316
186.412,255.826089349
186.427,255.897366107
186.442,255.968298297
186.457,256.038887611
186.472,256.109135741
186.487,256.179044368
186.502,256.248615153
186.517,256.31784974
186.532,256.386749771
186.547,256.455316872
186.562,256.523552655
186.577,256.591458706
186.592,256.659036621
186.607,256.72628796
186.622,256.79321428
186.637,256.859817126
186.652,256.926098027
186.667,256.992058472
186.682,257.057699979
186.697,257.123024018
186.71,257.179382521
186.712,257.188032051
186.727,257.252725535
186.742,257.317105894
186.757,257.381174551
186.772,257.444932899
186.787,257.508382334
186.802,257.571524222
186.817,257.634359907
186.832,257.696890732
186.847,257.75911801
186.862,257.821043048
186.877,257.882667133
186.892,257.943991525
186.907,258.005017481
186.922,258.065746236
186.937,258.126179003
186.952,258.186316988
186.967,258.246161362
186.982,258.305713302
186.997,258.364973952
187.012,258.423944451
187.027,258.482625892
187.042,258.541019387
187.057,258.599126012
187.072,258.656946832
187.087,258.714482881
187.102,258.771735188
187.117,258.828704772
187.132,258.885392604
187.147,258.941799674
187.162,258.99792694
187.177,259.053775336
187.192,259.109345776
187.207,259.164639181
187.222,259.219656428
187.237,259.274398393
187.252,259.328865926
187.267,259.383059867
187.282,259.43698103
187.297,259.490630222
187.312,259.544008235
187.327,259.597115824
187.342,259.64995375
187.357,259.702522757
187.372,259.754823549
187.387,259.806856842
187.402,259.858623319
187.417,259.910123648
187.432,259.961358495
187.447,260.012328494
187.46,260.056288745
187.462,260.063034269
187.477,260.113476433
187.492,260.163655569
187.507,260.213572267
187.522,260.263227084
187.537,260.312620574
187.552,260.361753271
187.567,260.410625687
187.582,260.459238331
187.597,260.507591695
187.612,260.555686257
187.627,260.603522478
187.642,260.651100803
187.657,260.698421682
187.672,260.745485525
187.687,260.792292745
187.702,260.838843736
187.717,260.885138891
187.732,260.931178573
187.747,260.976963145
187.762,261.02249296
187.777,261.067768349
187.792,261.112789637
187.807,261.15755714
187.822,261.202071153
187.837,261.246331973
187.852,261.290339876
187.867,261.334095137
187.882,261.377598013
187.897,261.420848764
187.912,261.463847611
187.927,261.506594795
187.942,261.549090548
187.957,261.591335059
187.972,261.633328558
187.987,261.675071223
188.002,261.716563242
188.017,261.757804806
188.032,261.798796079
188.047,261.839537222
188.062,261.880028397
188.077,261.920269747
188.092,261.960261422
188.107,262.000003558
188.122,262.039496271
188.137,262.07873971
188.152,262.117733969
188.167,262.156479172
188.182,262.194975441
188.197,262.233222849
188.21,262.266169397
188.212,262.27122152
188.227,262.308971524
188.242,262.346472964
188.257,262.383725922
188.272,262.42073048
188.287,262.457486711
188.302,262.493994701
188.317,262.5302545
188.332,262.566266199
188.347,262.602029844
188.362,262.637545514
188.377,262.672813259
188.392,262.707833138
188.407,262.742605212
188.422,262.777129537
188.437,262.811406171
188.452,262.845435159
188.467,262.879216564
188.482,262.912750422
188.497,262.946036799
188.512,262.979075749
188.527,263.011867304
188.542,263.044411536
188.557,263.076708487
188.572,263.108758217
188.587,263.140560773
188.602,263.172116208
188.617,263.203424589
188.632,263.234485954
188.647,263.265300385
188.66,263.291806523
188.662,263.29586793
188.677,263.326188659
188.692,263.356262631
188.707,263.386089912
188.722,263.415670574
