# 48698 WSSS Singapore Observations at 12Z 07 Feb 2020
Frequency [GHz],TB
175.31,275.346354932
175.322,275.327029837
175.337,275.302824243
175.352,275.278563812
175.367,275.254248385
175.382,275.229877811
175.397,275.205451929
175.412,275.180970583
175.427,275.156433611
175.442,275.131840855
175.457,275.10719215
175.472,275.082487335
175.487,275.057726244
175.502,275.032908713
175.517,275.008034574
175.532,274.983103659
175.547,274.958115799
175.562,274.933070822
175.577,274.907968557
175.592,274.882808831
175.607,274.857591469
175.622,274.832316295
175.637,274.806983131
175.652,274.7815918
175.667,274.756142122
175.682,274.730633915
175.697,274.705066995
175.712,274.679441181
175.727,274.653756285
175.742,274.628012122
175.757,274.602208504
175.772,274.576345239
175.787,274.550422138
175.802,274.524439008
175.817,274.498395656
175.832,274.472291886
175.847,274.446127499
175.862,274.4199023
175.877,274.393616088
175.892,274.36726866
175.907,274.340859816
175.922,274.314389349
175.937,274.287857054
175.952,274.261262724
175.967,274.23460615
175.982,274.207887121
175.997,274.181105424
176.012,274.154260847
176.027,274.127353173
176.042,274.100382185
176.057,274.073347664
176.072,274.046249392
176.087,274.019087144
176.102,273.991860698
176.117,273.964569828
176.132,273.937214307
176.147,273.909793906
176.162,273.882308395
176.177,273.854757541
176.192,273.82714111
176.207,273.799458867
176.222,273.771710574
176.237,273.74389599
176.252,273.716014876
176.267,273.688066989
176.282,273.660052082
176.297,273.63196991
176.31,273.607577426
176.312,273.603820224
176.327,273.575602773
176.342,273.547317305
176.357,273.518963566
176.372,273.490541299
176.387,273.462050247
176.402,273.433490149
176.417,273.404860743
176.432,273.376161765
176.447,273.347392949
176.46,273.322403276
176.462,273.318554026
176.477,273.289644728
176.492,273.26066478
176.507,273.23161391
176.522,273.202491841
176.537,273.173298295
176.552,273.14403299
176.567,273.114695646
176.582,273.085285975
176.597,273.055803692
176.612,273.026248508
176.627,272.99662013
176.642,272.966918266
176.657,272.93714262
176.672,272.907292894
176.687,272.877368787
176.702,272.847369997
176.717,272.81729622
176.732,272.787147147
176.747,272.75692247
176.762,272.726621876
176.777,272.696245052
176.792,272.66579168
176.807,272.635261443
176.822,272.604654017
176.837,272.573969079
176.852,272.543206304
176.867,272.512365363
176.882,272.481445922
176.897,272.450447651
176.912,272.41937021
176.927,272.388213263
176.942,272.356976467
176.957,272.325659477
176.972,272.294261949
176.987,272.262783531
177.002,272.231223873
177.017,272.199582618
177.032,272.167859411
177.047,272.13605389
177.062,272.104165693
177.077,272.072194454
177.092,272.040139806
177.107,272.008001376
177.122,271.97577879
177.137,271.943471671
177.152,271.911079641
177.167,271.878602316
177.182,271.846039311
177.197,271.813390237
177.21,271.78502445
177.212,271.780654703
177.227,271.747832314
177.242,271.714922672
177.257,271.681925378
177.272,271.648840029
177.287,271.615666215
177.302,271.58240353
177.31,271.56462695
177.317,271.54905156
177.332,271.515609889
177.347,271.482078097
177.362,271.448455763
177.377,271.41474246
177.392,271.380937761
177.407,271.347041233
177.422,271.31305244
177.437,271.278970944
177.452,271.244796304
177.467,271.210528073
177.482,271.176165804
177.497,271.141709044
177.512,271.107157337
177.527,271.072510224
177.542,271.037767243
177.557,271.002927928
177.572,270.96799181
177.587,270.932958414
177.602,270.897827264
177.617,270.862597881
177.632,270.827269779
177.647,270.791842471
177.66,270.761058179
177.662,270.756315467
177.677,270.720688269
177.692,270.684960382
177.707,270.649131299
177.722,270.613200516
177.737,270.577167522
177.752,270.541031804
177.767,270.504792842
177.782,270.468450115
177.797,270.432003097
177.812,270.395451257
177.827,270.358794063
177.842,270.322030975
177.857,270.285161452
177.872,270.248184948
177.887,270.211100912
177.902,270.173908789
177.917,270.136608022
177.932,270.099198046
177.947,270.061678296
177.96,270.029071941
177.962,270.024048199
177.977,269.986307179
177.992,269.948454658
178.007,269.910490049
178.022,269.872412766
178.037,269.834222213
178.052,269.795917793
178.067,269.757498904
178.082,269.71896494
178.097,269.680315288
178.112,269.641549334
178.127,269.602666456
178.142,269.563666029
178.157,269.524547423
178.172,269.485310004
178.187,269.445953132
178.202,269.406476163
178.217,269.366878448
178.232,269.327159333
178.247,269.287318159
178.262,269.247354264
178.277,269.207266977
178.292,269.167055626
178.307,269.126719531
178.322,269.086258009
178.337,269.045670372
178.352,269.004955925
178.367,268.964113969
178.382,268.9231438
178.397,268.882044707
178.41,268.846320657
178.412,268.840815977
178.427,268.79945689
178.442,268.757966719
178.457,268.716344733
178.472,268.674590197
178.487,268.63270237
178.502,268.590680501
178.517,268.548523841
178.532,268.506231629
178.547,268.463803103
178.562,268.421237491
178.577,268.37853402
178.592,268.335691907
178.607,268.292710366
178.622,268.249588604
178.637,268.206325822
178.652,268.162921217
178.667,268.119373976
178.682,268.075683284
178.697,268.031848319
178.712,267.987868251
178.727,267.943742247
178.742,267.899469465
178.757,267.855049057
178.772,267.810480172
178.787,267.765761948
178.802,267.72089352
178.817,267.675874016
178.832,267.630702556
178.847,267.585378255
178.862,267.539900222
178.877,267.494267556
178.892,267.448479355
178.907,267.402534704
178.922,267.356432686
178.937,267.310172374
178.952,267.263752838
178.967,267.217173136
178.982,267.170432323
178.997,267.123529445
179.012,267.076463541
179.027,267.029233645
179.042,266.98183878
179.057,266.934277965
179.072,266.88655021
179.087,266.838654517
179.102,266.790589883
179.117,266.742355294
179.132,266.693949731
179.147,266.645372167
179.16,266.603131681
179.162,266.596621565
179.177,266.547696884
179.192,266.498597071
179.207,266.449321068
179.222,266.399867806
179.237,266.350236211
179.252,266.3004252
179.267,266.250433678
179.282,266.200260547
179.297,266.149904696
179.312,266.099365009
179.327,266.048640358
179.342,265.997729608
179.357,265.946631615
179.372,265.895345226
179.387,265.843869278
179.402,265.792202599
179.417,265.740344009
179.432,265.688292316
179.447,265.636046321
179.462,265.583604814
179.477,265.530966576
179.492,265.478130375
179.507,265.425094974
179.522,265.371859122
179.537,265.318421558
179.552,265.264781012
179.567,265.210936201
179.582,265.156885835
179.597,265.102628609
179.612,265.04816321
179.627,264.993488312
179.642,264.938602577
179.657,264.883504657
179.672,264.828193193
179.687,264.77266681
179.702,264.716924124
179.717,264.660963739
179.732,264.604784246
179.747,264.548384221
179.762,264.491762231
179.777,264.434916826
179.792,264.377846545
179.807,264.320549913
179.822,264.263025439
179.837,264.205271623
179.852,264.147286945
179.867,264.089069873
179.882,264.030618861
179.897,263.971932346
179.91,263.920878986
179.912,263.913008752
179.927,263.853846484
179.942,263.794443935
179.957,263.734799477
179.972,263.674911471
179.987,263.614778256
180.002,263.554398156
180.017,263.493769479
180.032,263.432890513
180.047,263.371759528
180.062,263.310374775
180.077,263.248734487
180.092,263.186836879
180.107,263.124680142
180.122,263.062262451
180.137,262.999581958
180.152,262.936636795
180.167,262.873425072
180.182,262.809944878
180.197,262.746194278
180.212,262.682171315
180.227,262.617874009
180.242,262.553300356
180.257,262.488448326
180.272,262.423315866
180.287,262.357900897
180.302,262.292201313
180.317,262.226214982
180.332,262.159939746
180.347,262.093373416
180.362,262.026513776
180.377,261.959358583
180.392,261.891905561
180.407,261.824152404
180.422,261.756096776
180.437,261.687736309
180.452,261.619068601
180.467,261.550091217
180.482,261.480801687
180.497,261.411197509
180.512,261.341276142
180.527,261.271035008
180.542,261.200471494
180.557,261.129582946
180.56,261.115365996
180.572,261.058366672
180.587,260.98681994
180.602,260.914939975
180.617,260.842723962
180.632,260.770169041
180.647,260.697272307
180.66,260.633816373
180.662,260.624030814
180.677,260.550441563
180.692,260.476501514
180.707,260.402207574
180.722,260.327556603
180.737,260.252545407
180.752,260.177170745
180.767,260.101429317
180.782,260.025317773
180.797,259.948832705
180.812,259.871970648
180.827,259.79472808
180.842,259.71710142
180.857,259.639087023
180.872,259.560681184
180.887,259.481880136
180.902,259.402680042
180.917,259.323077004
180.932,259.243067052
180.947,259.162646151
180.962,259.081810191
180.977,259.000554992
180.992,258.918876301
181.007,258.836769787
181.022,258.754231047
181.037,258.671255596
181.052,258.587838871
181.067,258.503976228
181.082,258.419662939
181.097,258.334894194
181.112,258.249665097
181.127,258.163970665
181.142,258.077805824
181.157,257.991165415
181.172,257.904044183
181.187,257.816436784
181.202,257.728337778
181.217,257.63974163
181.232,257.550642708
181.247,257.461035284
181.262,257.370913529
181.277,257.280271515
181.292,257.189103213
181.307,257.097402491
181.31,257.078997909
181.322,257.005163114
181.337,256.912378745
181.352,256.819042939
181.367,256.72514915
181.382,256.630690723
181.397,256.535660899
181.412,256.440052811
181.427,256.343859488
181.442,256.247073849
181.457,256.149688712
181.472,256.051696783
181.487,255.953090668
181.502,255.853862867
181.517,255.754005774
181.532,255.653511684
181.547,255.55237279
181.562,255.450581185
181.577,255.348128866
181.592,255.245007735
181.607,255.1412096
181.622,255.036726182
181.637,254.931549113
181.652,254.825669944
181.667,254.719080147
181.682,254.611771119
181.697,254.503734188
181.712,254.394960616
181.727,254.285441608
181.742,254.175168314
181.757,254.06413184
181.772,253.952323252
181.787,253.839733584
181.802,253.726353847
181.817,253.612175039
181.832,253.497188152
181.847,253.381384184
181.862,253.264754149
181.877,253.147289088
181.892,253.028980082
181.907,252.909818266
181.922,252.78979484
181.937,252.668901086
181.952,252.547128381
181.967,252.424468217
181.982,252.300912214
181.997,252.176452141
182.012,252.051079932
182.027,251.924787712
182.042,251.797567808
182.057,251.669412782
182.06,251.643668925
182.072,251.540315446
182.087,251.410268891
182.102,251.279266508
182.117,251.147302018
182.132,251.014369499
182.147,250.880463413
182.162,250.745578637
182.177,250.609710494
182.192,250.472854786
182.207,250.335007827
182.222,250.196166478
182.237,250.056328183
182.252,249.915491009
182.267,249.773653679
182.282,249.630815619
182.297,249.486976996
182.312,249.34213876
182.327,249.196302689
182.342,249.049471435
182.357,248.901648569
182.372,248.752838629
182.387,248.603047168
182.402,248.452280806
182.417,248.300547275
182.432,248.147855476
182.447,247.994215524
182.462,247.839638807
182.477,247.68413803
182.492,247.527727269
182.507,247.370422024
182.522,247.212239261
182.537,247.053197466
182.552,246.89331668
182.567,246.732618545
182.582,246.571126337
182.597,246.40886499
182.612,246.24586112
182.627,246.082143031
182.642,245.917740708
182.657,245.752685802
182.672,245.587011584
182.687,245.420752882
182.702,245.253945979
182.717,245.086628484
182.732,244.918839146
182.747,244.750617619
182.762,244.58200415
182.777,244.413039184
182.792,244.243762862
182.807,244.074214388
182.822,243.904431228
182.837,243.734448112
182.852,243.564295778
182.867,243.393999407
182.882,243.22357665
182.897,243.053035164
182.912,242.882369506
182.927,242.711557221
182.942,242.540553876
182.957,242.369286754
182.972,242.19764678
182.987,242.025478116
183.002,241.85256467
183.017,241.678612438
183.032,241.50322616
183.047,241.325878154
183.062,241.145866154
183.077,240.962255535
183.092,240.773798932
183.107,240.578822594
183.122,240.375062854
183.137,240.159426394
183.152,239.927631896
183.167,239.673663787
183.182,239.388923967
183.197,239.060894899
183.212,238.671021853
183.227,238.191425744
183.242,237.58027467
183.257,236.777743827
183.367,236.98855878
183.382,237.73228795
183.397,238.301572545
183.412,238.75157689
183.427,239.120097805
183.442,239.432253325
183.457,239.704804324
183.472,239.949107494
183.487,240.173000306
183.502,240.381990716
183.517,240.580014425
183.532,240.769924726
183.547,240.953815432
183.562,241.133237999
183.577,241.309350347
183.592,241.483020759
183.607,241.654901682
183.622,241.825482979
183.637,241.995130927
183.652,242.164117149
183.667,242.332640333
183.682,242.500842713
183.697,242.668822689
183.712,242.836644574
183.727,243.004346173
183.742,243.171944721
183.757,243.339441545
183.772,243.50682576
183.787,243.674077191
183.802,243.841168704
183.817,244.00806806
183.832,244.174739401
183.847,244.341144425
183.862,244.507243335
183.877,244.672995588
183.892,244.838360492
183.907,245.003297678
183.922,245.167767469
183.937,245.331731166
183.952,245.495151275
183.967,245.657991668
183.982,245.820217711
183.997,245.981796346
184.012,246.142696153
184.027,246.302887382
184.042,246.462341969
184.057,246.621033537
184.072,246.778937379
184.087,246.936030442
184.102,247.092291292
184.117,247.247700078
184.132,247.402238494
184.147,247.555889731
184.162,247.708638429
184.177,247.860470632
184.192,248.011373734
184.207,248.161336428
184.222,248.310348658
184.237,248.458401561
184.252,248.605487422
184.267,248.751599622
184.282,248.896732586
184.297,249.040881735
184.312,249.184043441
184.327,249.326214976
184.342,249.467394469
184.357,249.60758086
184.372,249.746773859
184.387,249.884973904
184.402,250.022182116
184.417,250.158400265
184.432,250.293630731
184.447,250.427876466
184.462,250.561140959
184.477,250.693428202
184.492,250.824742658
184.507,250.955089228
184.522,251.084473222
184.537,251.212900331
184.552,251.340376596
184.56,251.407977333
184.567,251.466908382
184.582,251.592502356
184.597,251.717165457
184.612,251.840904878
184.627,251.963728037
184.642,252.085642565
184.657,252.206656275
184.672,252.326777151
184.687,252.446013325
184.702,252.564373064
184.717,252.681864745
184.732,252.798496849
184.747,252.91427794
184.762,253.029216653
184.777,253.143321678
184.792,253.256601752
184.807,253.369065643
184.822,253.480722142
184.837,253.591580049
184.852,253.701648166
184.867,253.810935287
184.882,253.919450188
184.897,254.027201619
184.912,254.134198301
184.927,254.240448912
184.942,254.345962084
184.957,254.450746398
184.972,254.554810377
184.987,254.65816248
185.002,254.760811099
185.017,254.862764554
185.032,254.964031089
185.047,255.064618867
185.062,255.164535969
185.077,255.263790391
185.092,255.362390038
185.107,255.460342728
185.122,255.557656182
185.137,255.654338028
185.152,255.750395799
185.167,255.845836929
185.182,255.940668752
185.197,256.034898506
185.212,256.128533325
185.227,256.221580244
185.242,256.314046197
185.257,256.405938016
185.272,256.497262431
185.287,256.588026071
185.302,256.678235465
185.31,256.72612274
185.317,256.767897041
185.332,256.857017123
185.347,256.945601941
185.362,257.033657622
185.377,257.121190195
185.392,257.208205593
185.407,257.29470965
185.422,257.380708106
185.437,257.466206605
185.452,257.551210698
185.467,257.635725844
185.482,257.719757409
185.497,257.80331067
185.512,257.886390815
185.527,257.969002943
185.542,258.051152068
185.557,258.132843118
185.572,258.214080937
185.587,258.294870288
185.602,258.375215851
185.617,258.455122227
185.632,258.53459394
185.647,258.613635434
185.662,258.69225108
185.677,258.770445175
185.692,258.84822194
185.707,258.925585527
185.722,259.002540018
185.737,259.079089425
185.752,259.155237694
185.767,259.230988703
185.782,259.306346266
185.797,259.381314135
185.812,259.455895997
185.827,259.53009548
185.842,259.603916153
185.857,259.677361525
185.872,259.750435047
185.887,259.823140117
185.902,259.895480076
185.917,259.967458212
185.932,260.03907776
185.947,260.110341905
185.96,260.171819105
185.962,260.181253779
185.977,260.251816469
185.992,260.32203301
186.007,260.391906393
186.022,260.461439561
186.037,260.530635412
186.052,260.599496801
186.06,260.636087091
186.067,260.668026541
186.082,260.7362274
186.097,260.804102107
186.112,260.87165335
186.127,260.938883778
186.142,261.005796
186.157,261.072392592
186.172,261.138676087
186.187,261.204648985
186.202,261.270313752
186.217,261.335672817
186.232,261.400728579
186.247,261.465483398
186.262,261.529939608
186.277,261.594099508
186.292,261.657965367
186.307,261.721539424
186.322,261.784823888
186.337,261.84782094
186.352,261.910532732
186.367,261.972961388
186.382,262.035109006
186.397,262.096977657
186.412,262.158569386
186.427,262.219886212
186.442,262.28093013
186.457,262.34170311
186.472,262.402207099
186.487,262.46244402
186.502,262.522415774
186.517,262.582124237
186.532,262.641571267
186.547,262.700758697
186.562,262.759688341
186.577,262.81836199
186.592,262.876781419
186.607,262.934948378
186.622,262.992864601
186.637,263.050531802
186.652,263.107951676
186.667,263.1651259
186.682,263.222056133
186.697,263.278744014
186.71,263.327678733
186.712,263.335191169
186.727,263.391399203
186.742,263.447369707
186.757,263.503104255
186.772,263.558604402
186.787,263.613871691
186.802,263.668907648
186.817,263.723713783
186.832,263.778291592
186.847,263.832642556
186.862,263.886768141
186.877,263.940669799
186.892,263.994348968
186.907,264.047807073
186.922,264.101045524
186.937,264.154065718
186.952,264.20686904
186.967,264.259456861
186.982,264.311830539
186.997,264.363991421
187.012,264.415940841
187.027,264.46768012
187.042,264.519210567
187.057,264.570533482
187.072,264.621650149
187.087,264.672561845
187.102,264.723269833
187.117,264.773775365
187.132,264.824079684
187.147,264.87418402
187.162,264.924089593
187.177,264.973797615
187.192,265.023309283
187.207,265.072625788
187.222,265.121748309
187.237,265.170678015
187.252,265.219416066
187.267,265.267963612
187.282,265.316321794
187.297,265.364491742
187.312,265.412474578
187.327,265.460271415
187.342,265.507883357
187.357,265.555311498
187.372,265.602556924
187.387,265.649620712
187.402,265.696503931
187.417,265.743207639
187.432,265.78973289
187.447,265.836080725
187.46,265.87610614
187.462,265.88225218
187.477,265.928248282
187.492,265.974070049
187.507,266.019718492
187.522,266.065194614
187.537,266.11049941
187.552,266.155633868
187.567,266.200598966
187.582,266.245395678
187.597,266.290024967
187.612,266.334487792
187.627,266.378785103
187.642,266.422917841
187.657,266.466886943
187.672,266.510693337
187.687,266.554337945
187.702,266.597821681
187.717,266.641145452
187.732,266.684310161
187.747,266.727316699
187.762,266.770165956
187.777,266.812858811
187.792,266.855396139
187.807,266.897778807
187.822,266.940007676
187.837,266.982083601
187.852,267.024007431
187.867,267.065780007
187.882,267.107402166
187.897,267.148874737
187.912,267.190198543
187.927,267.231374403
187.942,267.272403127
187.957,267.313285521
187.972,267.354022385
187.987,267.394614513
188.002,267.435062692
188.017,267.475367705
188.032,267.515530327
188.047,267.555551331
188.062,267.595431481
188.077,267.635171536
188.092,267.674772251
188.107,267.714234374
188.122,267.753558649
188.137,267.792745811
188.152,267.831796596
188.167,267.870711729
188.182,267.909491933
188.197,267.948137922
188.21,267.981523099
188.212,267.98665041
188.227,268.025030102
188.242,268.0632777
188.257,268.101393899
188.272,268.13937939
188.287,268.177234859
188.302,268.214960988
188.317,268.252558453
188.332,268.290027924
188.347,268.327370069
188.362,268.364585549
188.377,268.401675021
188.392,268.438639136
188.407,268.475478543
188.422,268.512193884
188.437,268.548785798
188.452,268.585254918
188.467,268.621601873
188.482,268.657827287
188.497,268.693931782
188.512,268.729915971
188.527,268.765780468
188.542,268.801525878
188.557,268.837152803
188.572,268.872661843
188.587,268.90805359
188.602,268.943328636
188.617,268.978487564
188.632,269.013530957
188.647,269.048459391
188.66,269.078638156
188.662,269.08327344
188.677,269.117973673
188.692,269.152560652
188.707,269.187034942
188.722,269.221397097
188.737,269.255647672
