# 01004 ENAS Ny-Alesund Ii Observations at 12Z 24 Apr 2019
Frequency [GHz],TB
175.31,249.217983648
175.322,249.271178366
175.337,249.337622848
175.352,249.404011493
175.367,249.470342698
175.382,249.536614879
175.397,249.602826402
175.412,249.668975646
175.427,249.735060962
175.442,249.801080701
175.457,249.867033202
175.472,249.932916779
175.487,249.998729752
175.502,250.064470413
175.517,250.130137056
175.532,250.195727951
175.547,250.261241359
175.562,250.326675546
175.577,250.392028738
175.592,250.457299171
175.607,250.522485054
175.622,250.587584603
175.637,250.652595994
175.652,250.717517422
175.667,250.782347049
175.682,250.847083035
175.697,250.911723519
175.712,250.976266642
175.727,251.040710518
175.742,251.10505326
175.757,251.169292966
175.772,251.233427722
175.787,251.297455604
175.802,251.361374669
175.817,251.425182969
175.832,251.488878557
175.847,251.552459436
175.862,251.615923636
175.877,251.679269163
175.892,251.742494007
175.907,251.805596141
175.922,251.868573556
175.937,251.931424182
175.952,251.994145995
175.967,252.0567369
175.982,252.119194848
175.997,252.181517742
176.012,252.243703479
176.027,252.305749956
176.042,252.367655048
176.057,252.429416628
176.072,252.491032548
176.087,252.552500665
176.102,252.61381881
176.117,252.674984799
176.132,252.735996462
176.147,252.79685159
176.162,252.857547991
176.177,252.918083434
176.192,252.978455699
176.207,253.038662546
176.222,253.09870173
176.237,253.158570989
176.252,253.218268059
176.267,253.277790661
176.282,253.337136511
176.297,253.396303304
176.31,253.447434577
176.312,253.455288736
176.327,253.514090497
176.342,253.572706269
176.357,253.63113369
176.372,253.689370444
176.387,253.747414159
176.402,253.805262483
176.417,253.862913047
176.432,253.920363471
176.447,253.977611364
176.46,254.027060532
176.462,254.034654333
176.477,254.091489978
176.492,254.148115879
176.507,254.204529625
176.522,254.260728783
176.537,254.316710928
176.552,254.372473599
176.567,254.428014368
176.582,254.483330764
176.597,254.538420333
176.612,254.593280595
176.627,254.647909082
176.642,254.702303313
176.657,254.756460787
176.672,254.810379021
176.687,254.864055508
176.702,254.917487752
176.717,254.970673228
176.732,255.02360943
176.747,255.076293829
176.762,255.128723903
176.777,255.180897127
176.792,255.23281095
176.807,255.284462852
176.822,255.335850279
176.837,255.386970687
176.852,255.437821525
176.867,255.488400244
176.882,255.538704288
176.897,255.588731099
176.912,255.638478114
176.927,255.687942768
176.942,255.737122514
176.957,255.78601476
176.972,255.834616966
176.987,255.882926546
177.002,255.930940933
177.017,255.978657566
177.032,256.02607387
177.047,256.073187284
177.062,256.119995233
177.077,256.166495151
177.092,256.212684472
177.107,256.258560632
177.122,256.304121059
177.137,256.349363208
177.152,256.39428451
177.167,256.438882413
177.182,256.483154368
177.197,256.527097809
177.21,256.564914439
177.212,256.570710204
177.227,256.613989013
177.242,256.656931695
177.257,256.699535717
177.272,256.741798545
177.287,256.78371767
177.302,256.825290572
177.31,256.84732035
177.317,256.866514739
177.332,256.907387664
177.347,256.947906859
177.362,256.988069829
177.377,257.027874091
177.392,257.067317185
177.407,257.106396632
177.422,257.145109976
177.437,257.18345479
177.452,257.221428625
177.467,257.259029038
177.482,257.296253646
177.497,257.333100017
177.512,257.369565776
177.527,257.405648532
177.542,257.441345914
177.557,257.476655569
177.572,257.51157515
177.587,257.54610233
177.602,257.580234786
177.617,257.613970232
177.632,257.647306351
177.647,257.680240903
177.66,257.708457597
177.662,257.712771612
177.677,257.74489624
177.692,257.776612571
177.707,257.80791838
177.722,257.838811497
177.737,257.869289746
177.752,257.899350964
177.767,257.928993024
177.782,257.958213804
177.797,257.987011213
177.812,258.015383173
177.827,258.043327631
177.842,258.070842556
177.857,258.097925923
177.872,258.124575748
177.887,258.150790063
177.902,258.176566924
177.917,258.201904407
177.932,258.226800612
177.947,258.251253661
177.96,258.272086419
177.962,258.275261715
177.977,258.298822941
177.992,258.321935535
178.007,258.344597729
178.022,258.366807781
178.037,258.388563968
178.052,258.40986459
178.067,258.430707984
178.082,258.451092524
178.097,258.471016585
178.112,258.4904786
178.127,258.509477015
178.142,258.528010311
178.157,258.546076997
178.172,258.563675619
178.187,258.580804733
178.202,258.597462964
178.217,258.613648936
178.232,258.629361307
178.247,258.644598799
178.262,258.659360123
178.277,258.673644067
178.292,258.687449421
178.307,258.700775015
178.322,258.713619722
178.337,258.725982449
178.352,258.737862145
178.367,258.749257762
178.382,258.760168327
178.397,258.770592877
178.41,258.779233649
178.412,258.780530501
178.427,258.78998032
178.442,258.798941489
178.457,258.807413202
178.472,258.815394698
178.487,258.822885236
178.502,258.82988413
178.517,258.83639072
178.532,258.842404402
178.547,258.847924591
178.562,258.852950746
178.577,258.857482379
178.592,258.861519028
178.607,258.865060267
178.622,258.868105718
178.637,258.870655053
178.652,258.872707959
178.667,258.874264181
178.682,258.875323498
178.697,258.87588573
178.712,258.875950739
178.727,258.875518414
178.742,258.874588719
178.757,258.87316161
178.772,258.871237124
178.787,258.868815317
178.802,258.865896304
178.817,258.862480209
178.832,258.85856722
178.847,258.854157571
178.862,258.849251515
178.877,258.843849348
178.892,258.837951425
178.907,258.831558123
178.922,258.824669865
178.937,258.817287108
178.952,258.809410353
178.967,258.801040136
178.982,258.79217704
178.997,258.782821674
179.012,258.772974685
179.027,258.76263678
179.042,258.751808669
179.057,258.74049113
179.072,258.728684954
179.087,258.716390984
179.102,258.703610095
179.117,258.690343188
179.132,258.676591207
179.147,258.66235513
179.16,258.649626403
179.162,258.647635975
179.177,258.632434777
179.192,258.616752614
179.207,258.600590597
179.222,258.583949869
179.237,258.566831597
179.252,258.549236985
179.267,258.531167265
179.282,258.512623693
179.297,258.493607573
179.312,258.474120202
179.327,258.454162927
179.342,258.433737127
179.357,258.412844188
179.372,258.391485533
179.387,258.369662599
179.402,258.347376857
179.417,258.324629793
179.432,258.301422913
179.447,258.277757745
179.462,258.253635832
179.477,258.229058761
179.492,258.204028091
179.507,258.178545427
179.522,258.152612385
179.537,258.126230595
179.552,258.099401699
179.567,258.072127347
179.582,258.044409206
179.597,258.016248957
179.612,257.987648274
179.627,257.958608859
179.642,257.929132399
179.657,257.899220604
179.672,257.868875178
179.687,257.838097837
179.702,257.806890294
179.717,257.775254252
179.732,257.743191437
179.747,257.710703552
179.762,257.677792312
179.777,257.644459417
179.792,257.610706563
179.807,257.576535445
179.822,257.541947738
179.837,257.506945136
179.852,257.471529281
179.867,257.435701837
179.882,257.399464435
179.897,257.362818705
179.91,257.330730028
179.912,257.325766253
179.927,257.288308679
179.942,257.250447529
179.957,257.212184381
179.972,257.173520753
179.987,257.134458162
180.002,257.09499809
180.017,257.055141993
180.032,257.014891306
180.047,256.974247448
180.062,256.933211774
180.077,256.891785649
180.092,256.849970382
180.107,256.807767255
180.122,256.765177515
180.137,256.722202387
180.152,256.678843032
180.167,256.635100597
180.182,256.590976183
180.197,256.546470842
180.212,256.501585605
180.227,256.456321438
180.242,256.410679276
180.257,256.364660012
180.272,256.318264489
180.287,256.271493487
180.302,256.224347764
180.317,256.176828019
180.332,256.12893489
180.347,256.080668989
180.362,256.032030844
180.377,255.98302095
180.392,255.933639758
180.407,255.883887629
180.422,255.833764908
180.437,255.78327185
180.452,255.732408685
180.467,255.681175553
180.482,255.629572554
180.497,255.577599728
180.512,255.525257046
180.527,255.472544431
180.542,255.419461732
180.557,255.366008741
180.56,255.355273693
180.572,255.312185192
180.587,255.257990755
180.602,255.203425021
180.617,255.148487552
180.632,255.093177802
180.647,255.037495205
180.66,254.988934859
180.662,254.981439106
180.677,254.925008771
180.692,254.868203439
180.707,254.811022253
180.722,254.75346432
180.737,254.695528649
180.752,254.637214214
180.767,254.578519905
180.782,254.519444559
180.797,254.459986943
180.812,254.400145772
180.827,254.339919675
180.842,254.279307248
180.857,254.218307003
180.872,254.156917402
180.887,254.095136837
180.902,254.032963661
180.917,253.970396134
180.932,253.907432492
180.947,253.844070894
180.962,253.780309451
180.977,253.716146216
180.992,253.651579195
181.007,253.586606339
181.022,253.521225539
181.037,253.455434645
181.052,253.389231466
181.067,253.32261377
181.082,253.255579254
181.097,253.1881256
181.112,253.120250433
181.127,253.051951364
181.142,252.983225946
181.157,252.914071705
181.172,252.844486148
181.187,252.774466733
181.202,252.704010924
181.217,252.633116137
181.232,252.561779782
181.247,252.489999252
181.262,252.417771921
181.277,252.345095172
181.292,252.271966363
181.307,252.198382863
181.31,252.183611374
181.322,252.124342048
181.337,252.049841293
181.352,251.974877988
181.367,251.899449537
181.382,251.823553371
181.397,251.747186936
181.412,251.670347727
181.427,251.593033265
181.442,251.515241103
181.457,251.436968862
181.472,251.358214203
181.487,251.278974857
181.502,251.199248615
181.517,251.11903334
181.532,251.038326974
181.547,250.957127565
181.562,250.875433222
181.577,250.793242187
181.592,250.710552807
181.607,250.627363536
181.622,250.543672963
181.637,250.459479821
181.652,250.374782969
181.667,250.289581444
181.682,250.203874431
181.697,250.117661301
181.712,250.030941605
181.727,249.943715104
181.742,249.855981743
181.757,249.767741707
181.772,249.678995409
181.787,249.589743494
181.802,249.49998689
181.817,249.409726764
181.832,249.31896459
181.847,249.227702126
181.862,249.135941445
181.877,249.04368496
181.892,248.950935404
181.907,248.857695878
181.922,248.763969859
181.937,248.669761209
181.952,248.575074205
181.967,248.479913536
181.982,248.384284337
181.997,248.28819222
182.012,248.191643243
182.027,248.094643991
182.042,247.997201542
182.057,247.899323539
182.06,247.879696383
182.072,247.801018159
182.087,247.702294156
182.102,247.603160905
182.117,247.503628379
182.132,247.403707186
182.147,247.303408633
182.162,247.20274468
182.177,247.101728003
182.192,247.000372019
182.207,246.898690875
182.222,246.796699522
182.237,246.694413686
182.252,246.59184994
182.267,246.489025674
182.282,246.385959182
182.297,246.282669611
182.312,246.179177031
182.327,246.075502478
182.342,245.971667912
182.357,245.867696277
182.372,245.763611528
182.387,245.659438638
182.402,245.555203604
182.417,245.450933494
182.432,245.34665644
182.447,245.242401674
182.462,245.138199513
182.477,245.03408141
182.492,244.930079938
182.507,244.826228791
182.522,244.722562824
182.537,244.619118032
182.552,244.515931551
182.567,244.413041682
182.582,244.310487837
182.597,244.208310596
182.612,244.106551646
182.627,244.005253797
182.642,243.904460946
182.657,243.804218047
182.672,243.704571137
182.687,243.605567252
182.702,243.507254395
182.717,243.409681577
182.732,243.312898658
182.747,243.216956422
182.762,243.121906451
182.777,243.027801137
182.792,242.934693607
182.807,242.842637716
182.822,242.751687979
182.837,242.661899571
182.852,242.573328314
182.867,242.486030699
182.882,242.400063876
182.897,242.315485759
182.912,242.232355098
182.927,242.150731682
182.942,242.070676485
182.957,241.992252052
182.972,241.915522832
182.987,241.840555727
183.002,241.767420744
183.017,241.696191807
183.032,241.626947765
183.047,241.559773615
183.062,241.494761899
183.077,241.432014348
183.092,241.371643723
183.107,241.313775791
183.122,241.258551342
183.137,241.206128044
183.152,241.156682038
183.167,241.110408786
183.182,241.067522884
183.197,241.02825633
183.212,240.992854795
183.227,240.961571527
183.242,240.934658701
183.257,240.912356439
183.367,240.902902143
183.382,240.922541822
183.397,240.946740598
183.412,240.975255326
183.427,241.007833634
183.442,241.044224372
183.457,241.084185626
183.472,241.127490199
183.487,241.173928793
183.502,241.22331139
183.517,241.275467083
183.532,241.33024305
183.547,241.387502875
183.562,241.447124636
183.577,241.508998906
183.592,241.573026775
183.607,241.639118107
183.622,241.707189924
183.637,241.777165056
183.652,241.848970994
183.667,241.922538907
183.682,241.997802903
183.697,242.074699378
183.712,242.153166528
183.727,242.233144017
183.742,242.314572646
183.757,242.397394178
183.772,242.481551191
183.787,242.566986975
183.802,242.653645495
183.817,242.741471331
183.832,242.830409734
183.847,242.920406567
183.862,243.011408388
183.877,243.103362464
183.892,243.196216786
183.907,243.289920149
183.922,243.384422181
183.937,243.479673359
183.952,243.575625089
183.967,243.672229721
183.982,243.769440559
183.997,243.867211966
184.012,243.965499307
184.027,244.064259022
184.042,244.16344865
184.057,244.263026805
184.072,244.362953235
184.087,244.4631888
184.102,244.563695498
184.117,244.664436458
184.132,244.765375938
184.147,244.866479331
184.162,244.967713175
184.177,245.06904509
184.192,245.170443843
184.207,245.271879288
184.222,245.373322364
184.237,245.474745076
184.252,245.576120517
184.267,245.677422791
184.282,245.778627033
184.297,245.879709387
184.312,245.980646987
184.327,246.081417916
184.342,246.182001205
184.357,246.282376819
184.372,246.382525599
184.387,246.482429303
184.402,246.582070493
184.417,246.681432604
184.432,246.780499862
184.447,246.87925728
184.462,246.977690659
184.477,247.075786521
184.492,247.173532103
184.507,247.270915357
184.522,247.367924895
184.537,247.464550005
184.552,247.5607806
184.56,247.611938971
184.567,247.656607183
184.582,247.752020888
184.597,247.847013381
184.612,247.941576906
184.627,248.035704224
184.642,248.12938862
184.657,248.222623859
184.672,248.315404186
184.687,248.407724305
184.702,248.499579353
184.717,248.5909649
184.732,248.681876909
184.747,248.772311734
184.762,248.862266113
184.777,248.951737121
184.792,249.040722188
184.807,249.129219074
184.822,249.217225828
184.837,249.304740841
184.852,249.391762747
184.867,249.478290478
184.882,249.564323223
184.897,249.649860397
184.912,249.734901679
184.927,249.819446953
184.942,249.903496322
184.957,249.987050095
184.972,250.070108758
184.987,250.152673002
185.002,250.234743668
185.017,250.316321758
185.032,250.397408444
185.047,250.478005023
185.062,250.55811295
185.077,250.637733775
185.092,250.716869188
185.107,250.79552099
185.122,250.873691083
185.137,250.951381456
185.152,251.0285942
185.167,251.105331486
185.182,251.181595552
185.197,251.257388724
185.212,251.332713371
185.227,251.40757194
185.242,251.481966921
185.257,251.555900844
185.272,251.629376296
185.287,251.702395898
185.302,251.774962293
185.31,251.813479994
185.317,251.847078179
185.332,251.918746235
185.347,251.989969215
185.362,252.060749829
185.377,252.131090845
185.392,252.200995023
185.407,252.27046513
185.422,252.33950392
185.437,252.408114166
185.452,252.476298636
185.467,252.544060065
185.482,252.61140121
185.497,252.678324786
185.512,252.744833521
185.527,252.810930094
185.542,252.876617182
185.557,252.94189745
185.572,253.0067735
185.587,253.071247943
185.602,253.135323349
185.617,253.199002261
185.632,253.262287166
185.647,253.325180561
185.662,253.387684864
185.677,253.449802489
185.692,253.511535786
185.707,253.572887088
185.722,253.633858669
185.737,253.694452763
185.752,253.75467158
185.767,253.814517258
185.782,253.873991912
185.797,253.933097596
185.812,253.991836339
185.827,254.0502101
185.842,254.108220801
185.857,254.16587031
185.872,254.22316045
185.887,254.280093006
185.902,254.336669681
185.917,254.392892156
185.932,254.448762067
185.947,254.504280977
185.96,254.552114624
185.962,254.559450404
185.977,254.614271821
185.992,254.668746644
186.007,254.722876251
186.022,254.776661941
186.037,254.830104997
186.052,254.883206616
186.06,254.911388276
186.067,254.935967972
186.082,254.988390166
186.097,255.040474264
186.112,255.09222129
186.127,255.143632178
186.142,255.194707851
186.157,255.245449167
186.172,255.295856936
186.187,255.345931919
186.202,255.395674817
186.217,255.445086307
186.232,255.494166998
186.247,255.542917464
186.262,255.59133822
186.277,255.63942974
186.292,255.687192454
186.307,255.734626742
186.322,255.781732951
186.337,255.82851137
186.352,255.874962256
186.367,255.92108581
186.382,255.966882201
186.397,256.012351564
186.412,256.057493964
186.427,256.102309457
186.442,256.146798048
186.457,256.190959703
186.472,256.234794356
186.487,256.27830189
186.502,256.321482165
186.517,256.364335004
186.532,256.406860195
186.547,256.449057486
186.562,256.490926603
186.577,256.53246723
186.592,256.573679025
186.607,256.614561626
186.622,256.655114604
186.637,256.695337555
186.652,256.735230018
186.667,256.774791506
186.682,256.814021501
186.697,256.852919476
186.71,256.886362052
186.712,256.891484876
186.727,256.929717104
186.742,256.967615579
186.757,257.005179664
186.772,257.042408714
186.787,257.079302071
186.802,257.115859038
186.817,257.15207894
186.832,257.187961047
186.847,257.223504626
186.862,257.258708931
186.877,257.293573209
186.892,257.328096678
186.907,257.36227857
186.922,257.396118077
186.937,257.429614396
186.952,257.462766703
186.967,257.495574193
186.982,257.528036022
186.997,257.560151361
187.012,257.591919358
187.027,257.623339182
187.042,257.654409958
187.057,257.685130848
187.072,257.715500996
187.087,257.745519533
187.102,257.7751856
187.117,257.804498349
187.132,257.833456915
187.147,257.862060437
187.162,257.890308075
187.177,257.918198972
187.192,257.945732268
187.207,257.972907136
187.222,257.999722741
187.237,258.026178246
187.252,258.052272824
187.267,258.078005677
187.282,258.103375985
187.297,258.128382944
187.312,258.153025784
187.327,258.177303708
187.342,258.201215957
187.357,258.22476178
187.372,258.247940428
187.387,258.270751164
187.402,258.293193287
187.417,258.31526608
187.432,258.336968863
187.447,258.358300955
187.46,258.376488407
187.462,258.379261695
187.477,258.399850456
187.492,258.420066596
187.507,258.439909514
187.522,258.459378614
187.537,258.478473332
187.552,258.497193109
187.567,258.515537394
187.582,258.533505695
187.597,258.551097497
187.612,258.568312331
187.627,258.585149741
187.642,258.601609283
187.657,258.617690558
187.672,258.633393153
187.687,258.648716697
187.702,258.663660861
187.717,258.6782253
187.732,258.692409713
187.747,258.706213822
187.762,258.719637367
187.777,258.732680103
187.792,258.745341835
187.807,258.757622358
187.822,258.76952152
187.837,258.781039175
187.852,258.792175215
187.867,258.802929536
187.882,258.813302079
187.897,258.82329281
187.912,258.832901698
187.927,258.842128752
187.942,258.850974014
187.957,258.859437534
187.972,258.867519417
187.987,258.87521974
188.002,258.882538649
188.017,258.889476318
188.032,258.89603292
188.047,258.90220866
188.062,258.908003782
188.077,258.91341856
188.092,258.918453254
188.107,258.923108188
188.122,258.927383703
188.137,258.931280168
188.152,258.934797959
188.167,258.937937493
188.182,258.940699209
188.197,258.943083578
188.21,258.944845174
188.212,258.945091084
188.227,258.946722234
188.242,258.94797758
188.257,258.948857674
188.272,258.949363108
188.287,258.949494497
188.302,258.949252477
188.317,258.948637703
188.332,258.947650874
188.347,258.946292687
188.362,258.944563871
188.377,258.942465192
188.392,258.939997437
188.407,258.937161385
188.422,258.933957875
188.437,258.930387765
188.452,258.926451918
188.467,258.922151225
188.482,258.917486604
188.497,258.912458996
188.512,258.907069361
188.527,258.901318675
188.542,258.895207947
188.557,258.888738207
188.572,258.881910487
188.587,258.874725857
188.602,258.867185404
188.617,258.859290239
188.632,258.851041482
188.647,258.842440289
188.66,258.834701723
188.662,258.83348781
188.677,258.824185233
188.692,258.814533786
188.707,258.804534665
188.722,258.794189113
188.737,258.783498399
