# 01004 ENAS Ny-Alesund Ii Observations at 12Z 26 Mar 2019
Frequency [GHz],TB
175.31,229.152603781
175.322,229.220907243
175.337,229.306374832
175.352,229.391939543
175.367,229.477600399
175.382,229.563356357
175.397,229.649206403
175.412,229.735149512
175.427,229.821184588
175.442,229.907310584
175.457,229.993526375
175.472,230.07983089
175.487,230.166223017
175.502,230.252701565
175.517,230.339265409
175.532,230.42591338
175.547,230.512644304
175.562,230.599456946
175.577,230.686350104
175.592,230.77332254
175.607,230.860373009
175.622,230.947500223
175.637,231.034702916
175.652,231.121979741
175.667,231.209329446
175.682,231.296750607
175.697,231.384241954
175.712,231.471802023
175.727,231.55942948
175.742,231.647122921
175.757,231.734880855
175.772,231.822701884
175.787,231.910584541
175.802,231.998527307
175.817,232.086528725
175.832,232.174587248
175.847,232.262701315
175.862,232.350869374
175.877,232.43908988
175.892,232.527361204
175.907,232.61568172
175.922,232.704049803
175.937,232.792463795
175.952,232.880921979
175.967,232.969422717
175.982,233.057964255
175.997,233.146544819
176.012,233.235162724
176.027,233.323816151
176.042,233.412503302
176.057,233.501222335
176.072,233.58997142
176.087,233.678748687
176.102,233.767552268
176.117,233.856380234
176.132,233.945230655
176.147,234.034101588
176.162,234.122991085
176.177,234.211897095
176.192,234.300817628
176.207,234.389750643
176.222,234.478694094
176.237,234.567645867
176.252,234.656603853
176.267,234.745565978
176.282,234.83453001
176.297,234.92349385
176.31,235.000593921
176.312,235.012455205
176.327,235.101411963
176.342,235.19036178
176.357,235.279302469
176.372,235.36823167
176.387,235.457147107
176.402,235.546046416
176.417,235.634927238
176.432,235.723787195
176.447,235.812623878
176.46,235.889594949
176.462,235.901434831
176.477,235.990217602
176.492,236.078969721
176.507,236.167688657
176.522,236.256371877
176.537,236.34501683
176.552,236.433620944
176.567,236.522181596
176.582,236.61069614
176.597,236.699161945
176.612,236.787576282
176.627,236.875936487
176.642,236.964239822
176.657,237.052483502
176.672,237.140664761
176.687,237.228780807
176.702,237.316828742
176.717,237.404805751
176.732,237.492708953
176.747,237.580535407
176.762,237.668282197
176.777,237.755946327
176.792,237.843524852
176.807,237.931014728
176.822,238.018412892
176.837,238.105716338
176.852,238.192921897
176.867,238.280026519
176.882,238.367026983
176.897,238.453920175
176.912,238.540702891
176.927,238.627371883
176.942,238.71392391
176.957,238.800355708
176.972,238.886663955
176.987,238.972845328
177.002,239.05889647
177.017,239.144814038
177.032,239.230594565
177.047,239.316234646
177.062,239.401730825
177.077,239.487079611
177.092,239.572277529
177.107,239.657320986
177.122,239.742206447
177.137,239.826930321
177.152,239.911489001
177.167,239.995878864
177.182,240.080096197
177.197,240.164137376
177.21,240.236827663
177.212,240.247998654
177.227,240.331676274
177.242,240.415166496
177.257,240.498465538
177.272,240.581569558
177.287,240.664474739
177.302,240.747177222
177.31,240.791200982
177.317,240.829673115
177.332,240.911958477
177.347,240.994029412
177.362,241.075881963
177.377,241.15751212
177.392,241.238915917
177.407,241.320089274
177.422,241.401028151
177.437,241.481728512
177.452,241.562186218
177.467,241.642397179
177.482,241.722357213
177.497,241.802062208
177.512,241.881507953
177.527,241.960690226
177.542,242.039604821
177.557,242.118247492
177.572,242.196613948
177.587,242.274699925
177.602,242.352501087
177.617,242.430013122
177.632,242.507231681
177.647,242.584152409
177.66,242.650572716
177.662,242.660770896
177.677,242.737082748
177.692,242.813083565
177.707,242.888768864
177.722,242.964134245
177.737,243.039175207
177.752,243.113887248
177.767,243.18826587
177.782,243.262306604
177.797,243.33600486
177.812,243.409356095
177.827,243.482355761
177.842,243.554999295
177.857,243.627282066
177.872,243.699199531
177.887,243.770747038
177.902,243.841919976
177.917,243.912713725
177.932,243.983123614
177.947,244.053145001
177.96,244.113512348
177.962,244.12277324
177.977,244.192003647
177.992,244.260831529
178.007,244.329252213
178.022,244.39726102
178.037,244.464853243
178.052,244.532024146
178.067,244.59876908
178.082,244.665083294
178.097,244.730962083
178.112,244.796400747
178.127,244.861394525
178.142,244.925938756
178.157,244.990028687
178.172,245.053659594
178.187,245.116826772
178.202,245.179525504
178.217,245.241751089
178.232,245.303498799
178.247,245.364763944
178.262,245.425541833
178.277,245.485827757
178.292,245.545617041
178.307,245.604905027
178.322,245.663687021
178.337,245.721958389
178.352,245.779714479
178.367,245.836950645
178.382,245.893662276
178.397,245.949844767
178.41,245.998104711
178.412,246.00549353
178.427,246.060604
178.442,246.115171606
178.457,246.16919178
178.472,246.222660058
178.487,246.27557189
178.502,246.327922814
178.517,246.379708385
178.532,246.430924142
178.547,246.481565692
178.562,246.531628634
178.577,246.581108611
178.592,246.630001302
178.607,246.678302417
178.622,246.726007641
178.637,246.773112752
178.652,246.819613544
178.667,246.865505835
178.682,246.910785496
178.697,246.955448409
178.712,246.999490492
178.727,247.042907734
178.742,247.085696105
178.757,247.127851707
178.772,247.16937058
178.787,247.210248883
178.802,247.250482808
178.817,247.290068527
178.832,247.329002332
178.847,247.367280529
178.862,247.404899517
178.877,247.441855698
178.892,247.478145501
178.907,247.513765454
178.922,247.548712173
178.937,247.582982244
178.952,247.616572367
178.967,247.649479288
178.982,247.681699805
178.997,247.713230759
179.012,247.744069089
179.027,247.77421179
179.042,247.803655886
179.057,247.832398501
179.072,247.860436831
179.087,247.887768093
179.102,247.914389621
179.117,247.940298807
179.132,247.965493087
179.147,247.98997
179.16,248.010601213
179.162,248.013727162
179.177,248.036762222
179.192,248.059072947
179.207,248.080657175
179.222,248.101512786
179.237,248.121637798
179.252,248.141030247
179.267,248.159688289
179.282,248.177610167
179.297,248.194794169
179.312,248.211238711
179.327,248.22694225
179.342,248.241903354
179.357,248.256120725
179.372,248.269593031
179.387,248.28231916
179.402,248.294297997
179.417,248.305528577
179.432,248.316009986
179.447,248.325741402
179.462,248.334722129
179.477,248.342951538
179.492,248.350429119
179.507,248.357154411
179.522,248.363127105
179.537,248.368346932
179.552,248.372813757
179.567,248.37652755
179.582,248.379488327
179.597,248.381696265
179.612,248.383151581
179.627,248.383854632
179.642,248.383805856
179.657,248.38300581
179.672,248.381455107
179.687,248.37915451
179.702,248.376104834
179.717,248.37230703
179.732,248.367762132
179.747,248.362471294
179.762,248.356435723
179.777,248.34965677
179.792,248.342135879
179.807,248.333874578
179.822,248.324874476
179.837,248.315137323
179.852,248.304664959
179.867,248.29345928
179.882,248.281522339
179.897,248.268856212
179.91,248.257290828
179.912,248.255463167
179.927,248.241345475
179.942,248.226505564
179.957,248.210945917
179.972,248.194669114
179.987,248.177677848
180.002,248.159974888
180.017,248.141563113
180.032,248.122445449
180.047,248.102624945
180.062,248.082104724
180.077,248.06088801
180.092,248.038978085
180.107,248.016378299
180.122,247.993092159
180.137,247.969123165
180.152,247.944474954
180.167,247.919151196
180.182,247.893155668
180.197,247.866492218
180.212,247.839164747
180.227,247.811177234
180.242,247.782533711
180.257,247.753238306
180.272,247.723295207
180.287,247.692708612
180.302,247.661482886
180.317,247.629622306
180.332,247.59713133
180.347,247.564014437
180.362,247.530276078
180.377,247.495920863
180.392,247.460953403
180.407,247.425378337
180.422,247.389200342
180.437,247.352424183
180.452,247.315054594
180.467,247.277096408
180.482,247.238554418
180.497,247.199433537
180.512,247.159738614
180.527,247.119474572
180.542,247.078646355
180.557,247.037258886
180.56,247.02891472
180.572,246.995317141
180.587,246.952826123
180.602,246.909790752
180.617,246.866216087
180.632,246.822107082
180.647,246.777468764
180.66,246.738357904
180.662,246.732306099
180.677,246.686624095
180.692,246.640427733
180.707,246.593722001
180.722,246.546511846
180.737,246.498802199
180.752,246.450598016
180.767,246.401904159
180.782,246.352725564
180.797,246.303067044
180.812,246.252933438
180.827,246.202329563
180.842,246.151260129
180.857,246.099729877
180.872,246.047743488
180.887,245.995305614
180.902,245.942420832
180.917,245.88909366
180.932,245.835328645
180.947,245.781130203
180.962,245.726502705
180.977,245.671450495
180.992,245.615977843
181.007,245.56008897
181.022,245.503788006
181.037,245.447079021
181.052,245.389966022
181.067,245.332452994
181.082,245.274543777
181.097,245.216242159
181.112,245.157551888
181.127,245.098476585
181.142,245.039019819
181.157,244.97918512
181.172,244.91897587
181.187,244.858395387
181.202,244.797446929
181.217,244.736133672
181.232,244.674458683
181.247,244.612424954
181.262,244.550035372
181.277,244.487292807
181.292,244.42419996
181.307,244.360759495
181.31,244.348029914
181.322,244.296973985
181.337,244.232845875
181.352,244.168377604
181.367,244.103571455
181.382,244.03842965
181.397,243.972954312
181.412,243.907147508
181.427,243.84101121
181.442,243.774547306
181.457,243.707757624
181.472,243.640643866
181.487,243.573207717
181.502,243.505450732
181.517,243.437374431
181.532,243.36898028
181.547,243.300269591
181.562,243.231243718
181.577,243.161903923
181.592,243.092251328
181.607,243.022287131
181.622,242.952012402
181.637,242.881428113
181.652,242.810535356
181.667,242.739335009
181.682,242.667828008
181.697,242.596015292
181.712,242.523897669
181.727,242.451476012
181.742,242.378751176
181.757,242.305723967
181.772,242.232395232
181.787,242.158765826
181.802,242.084836594
181.817,242.010608402
181.832,241.936082172
181.847,241.861258851
181.862,241.786139435
181.877,241.710724997
181.892,241.635016591
181.907,241.559015469
181.922,241.482722879
181.937,241.406140179
181.952,241.329268867
181.967,241.252110498
181.982,241.174666841
181.997,241.096939732
182.012,241.018931157
182.027,240.940643345
182.042,240.862078613
182.057,240.783239548
182.06,240.767439034
182.072,240.704128842
182.087,240.624749529
182.102,240.545104782
182.117,240.465198082
182.132,240.385033127
182.147,240.304613933
182.162,240.223944811
182.177,240.143030347
182.192,240.061875492
182.207,239.980485532
182.222,239.898866135
182.237,239.817023274
182.252,239.734963393
182.267,239.652693329
182.282,239.570220312
182.297,239.487552039
182.312,239.404696698
182.327,239.321662879
182.342,239.238459716
182.357,239.155096809
182.372,239.071584264
182.387,238.987932736
182.402,238.904153394
182.417,238.820257969
182.432,238.736258658
182.447,238.652168272
182.462,238.56800014
182.477,238.483768133
182.492,238.399486625
182.507,238.315170496
182.522,238.230835152
182.537,238.146496402
182.552,238.062170563
182.567,237.977874264
182.582,237.893624473
182.597,237.809438464
182.612,237.725333645
182.627,237.641327546
182.642,237.55743773
182.657,237.473681505
182.672,237.390075984
182.687,237.306637734
182.702,237.223382726
182.717,237.140325931
182.732,237.057481165
182.747,236.974860734
182.762,236.892474955
182.777,236.810331933
182.792,236.728436782
182.807,236.646791236
182.822,236.565392892
182.837,236.484234303
182.852,236.403302128
182.867,236.322575962
182.882,236.242026903
182.897,236.161616082
182.912,236.081292726
182.927,236.000991655
182.942,235.920630732
182.957,235.840107269
182.972,235.759293836
182.987,235.678032918
183.002,235.596130324
183.017,235.51334665
183.032,235.429386336
183.047,235.343883291
183.062,235.256381778
183.077,235.166310871
183.092,235.072948795
183.107,234.97537358
183.122,234.872392125
183.137,234.762436703
183.152,234.643409775
183.167,234.512445111
183.182,234.365528006
183.197,234.196870228
183.212,233.997838195
183.227,233.755028546
183.242,233.446642658
183.257,233.035427031
183.367,233.139872962
183.382,233.517451947
183.397,233.803724912
183.412,234.031067924
183.427,234.218658665
183.442,234.378435173
183.457,234.518170149
183.472,234.643122514
183.487,234.756968192
183.502,234.862349013
183.517,234.961209251
183.532,235.055009162
183.547,235.144864609
183.562,235.231640949
183.577,235.316017548
183.592,235.398533132
183.607,235.479618524
183.622,235.559620192
183.637,235.638818225
183.652,235.717439615
183.667,235.795668448
183.682,235.873653949
183.697,235.951516756
183.712,236.029353951
183.727,236.107242926
183.742,236.185244844
183.757,236.263407149
183.772,236.341765925
183.787,236.420347579
183.802,236.499170451
183.817,236.578246149
183.832,236.657580491
183.847,236.737174643
183.862,236.817025699
183.877,236.897127492
183.892,236.977471125
183.907,237.058045427
183.922,237.138837463
183.937,237.219832807
183.952,237.301015935
183.967,237.382370447
183.982,237.463879317
183.997,237.545525098
184.012,237.627290063
184.027,237.709156383
184.042,237.791106216
184.057,237.87312191
184.072,237.955185949
184.087,238.037281111
184.102,238.119390553
184.117,238.201497794
184.132,238.283586789
184.147,238.36564199
184.162,238.447648333
184.177,238.529591273
184.192,238.611456806
184.207,238.693231437
184.222,238.774902273
184.237,238.856456864
184.252,238.937883473
184.267,239.019170727
184.282,239.100307954
184.297,239.181284831
184.312,239.262091708
184.327,239.342719368
184.342,239.423159113
184.357,239.503402688
184.372,239.583442349
184.387,239.663270758
184.402,239.742881047
184.417,239.822266766
184.432,239.901421847
184.447,239.980340597
184.462,240.059017767
184.477,240.137448389
184.492,240.215627864
184.507,240.293551889
184.522,240.371216531
184.537,240.448618125
184.552,240.525753216
184.56,240.566781888
184.567,240.602618715
184.582,240.679211762
184.597,240.755529623
184.612,240.831569941
184.627,240.907330446
184.642,240.98280917
184.657,241.05800421
184.672,241.132913914
184.687,241.207536787
184.702,241.281871402
184.717,241.35591659
184.732,241.429671184
184.747,241.503134208
184.762,241.57630477
184.777,241.649182081
184.792,241.721765393
184.807,241.794054114
184.822,241.86604764
184.837,241.937745483
184.852,242.00914716
184.867,242.08025228
184.882,242.151060452
184.897,242.221571316
184.912,242.291784558
184.927,242.36169987
184.942,242.431316965
184.957,242.50063554
184.972,242.569655279
184.987,242.638375942
185.002,242.706797162
185.017,242.77491864
185.032,242.842740033
185.047,242.910260998
185.062,242.977481082
185.077,243.044399919
185.092,243.111017015
185.107,243.177331884
185.122,243.24334401
185.137,243.309052754
185.152,243.374457543
185.167,243.439557679
185.182,243.504352417
185.197,243.568840991
185.212,243.63302256
185.227,243.696896241
185.242,243.76046107
185.257,243.823716021
185.272,243.88666003
185.287,243.949291972
185.302,244.011610634
185.31,244.044718717
185.317,244.073614738
185.332,244.135302966
185.347,244.196673932
185.362,244.25772615
185.377,244.318458103
185.392,244.378868218
185.407,244.438954785
185.422,244.498716086
185.437,244.558150359
185.452,244.617255729
185.467,244.676030221
185.482,244.734471906
185.497,244.792578658
185.512,244.850348393
185.527,244.907778936
185.542,244.964867975
185.557,245.021613263
185.572,245.078012367
185.587,245.134062869
185.602,245.189762275
185.617,245.245108025
185.632,245.30009752
185.647,245.35472807
185.662,245.408996969
185.677,245.462901421
185.692,245.51643862
185.707,245.569605661
185.722,245.622399632
185.737,245.674817566
185.752,245.726856432
185.767,245.778513144
185.782,245.829784639
185.797,245.88066775
185.812,245.931159276
185.827,245.98125602
185.842,246.03095469
185.857,246.080252041
185.872,246.129144719
185.887,246.177629402
185.902,246.225702674
185.917,246.273361158
185.932,246.320601399
185.947,246.367419993
185.96,246.407652322
185.962,246.41381345
185.977,246.45977826
185.992,246.505310971
186.007,246.550408037
186.022,246.595065967
186.037,246.639281181
186.052,246.683050176
186.06,246.706209939
186.067,246.726369381
186.082,246.769235261
186.097,246.811644278
186.112,246.853592861
186.127,246.895077491
186.142,246.936094602
186.157,246.976640675
186.172,247.016712199
186.187,247.056305638
186.202,247.095417527
186.217,247.134044329
186.232,247.172182621
186.247,247.209828958
186.262,247.246979874
186.277,247.283632027
186.292,247.319781968
186.307,247.355426412
186.322,247.390561989
186.337,247.425185404
186.352,247.459293409
186.367,247.492882781
186.382,247.525950305
186.397,247.558492845
186.412,247.590507259
186.427,247.621990481
186.442,247.652939467
186.457,247.683351241
186.472,247.713222836
186.487,247.742551335
186.502,247.771333907
186.517,247.799567717
186.532,247.827250021
186.547,247.854378131
186.562,247.880949347
186.577,247.906961079
186.592,247.932410818
186.607,247.957296034
186.622,247.981614318
186.637,248.005363297
186.652,248.02854062
186.667,248.051144042
186.682,248.073171401
186.697,248.094620523
186.71,248.112740478
186.712,248.11548939
186.727,248.135775944
186.742,248.155478274
186.757,248.174594481
186.772,248.19312278
186.787,248.211061411
186.802,248.228408675
186.817,248.245163012
186.832,248.261322853
186.847,248.276886717
186.862,248.291853212
186.877,248.306221003
186.892,248.319988836
186.907,248.333155497
186.922,248.345719894
186.937,248.357680923
186.952,248.369037644
186.967,248.379789171
186.982,248.389934594
186.997,248.399473186
187.012,248.408404248
187.027,248.416727156
187.042,248.424441369
187.057,248.431546382
187.072,248.438041812
187.087,248.443927297
187.102,248.449202594
187.117,248.453867484
187.132,248.457921866
187.147,248.461365664
187.162,248.464198918
187.177,248.466421687
187.192,248.468034164
187.207,248.469036574
187.222,248.469429164
187.237,248.469212359
187.252,248.46838656
187.267,248.466952286
187.282,248.464910106
187.297,248.462260631
187.312,248.45900461
187.327,248.45514278
187.342,248.450676003
187.357,248.445605152
187.372,248.439931226
187.387,248.433655226
187.402,248.426778258
187.417,248.419301506
187.432,248.41122613
187.447,248.402553477
187.46,248.394555027
187.462,248.393284834
187.477,248.383421625
187.492,248.372965324
187.507,248.361917428
187.522,248.350279527
187.537,248.338053266
187.552,248.325240324
187.567,248.311842444
187.582,248.297861436
187.597,248.283299167
187.612,248.268157519
187.627,248.252438505
187.642,248.236144089
187.657,248.219276357
187.672,248.201837437
187.687,248.18382948
187.702,248.165254697
187.717,248.146115368
187.732,248.126413779
187.747,248.106152309
187.762,248.085333333
187.777,248.063959309
187.792,248.042032723
187.807,248.019556119
187.822,247.996532052
187.837,247.972963132
187.852,247.948852018
187.867,247.924201411
187.882,247.899014037
187.897,247.873292647
187.912,247.84704006
187.927,247.820259126
187.942,247.792952707
187.957,247.765123692
187.972,247.736775075
187.987,247.707909778
188.002,247.678530834
188.017,247.648641256
188.032,247.618244143
188.047,247.587342576
188.062,247.555939667
188.077,247.524038555
188.092,247.491642454
188.107,247.458754533
188.122,247.425378029
188.137,247.391516201
188.152,247.357172317
188.167,247.322349653
188.182,247.287051556
188.197,247.251281349
188.21,247.219901202
188.212,247.215042367
188.227,247.178338039
188.242,247.141171712
188.257,247.10354681
188.272,247.065466781
188.287,247.026935057
188.302,246.987955082
188.317,246.948530352
188.332,246.908664361
188.347,246.868360602
188.362,246.827622574
188.377,246.786453808
188.392,246.74485787
188.407,246.70283828
188.422,246.660398612
188.437,246.617542431
188.452,246.574273285
188.467,246.53059477
188.482,246.486510481
188.497,246.44202401
188.512,246.39713898
188.527,246.351858943
188.542,246.306187563
188.557,246.260128435
188.572,246.213685176
188.587,246.166861386
188.602,246.119660728
188.617,246.072086804
188.632,246.024143234
188.647,245.975833656
188.66,245.933672087
188.662,245.927161685
188.677,245.878130948
188.692,245.828745083
188.707,245.77900769
188.722,245.728922425
