# 78954 TBPB Grantley Adams Observations at 12Z 13 May 2019
Frequency [GHz],TB
175.31,276.55915643
175.322,276.535053706
175.337,276.504841213
175.352,276.474535018
175.367,276.444134825
175.382,276.413640339
175.397,276.383051264
175.412,276.352367298
175.427,276.321588141
175.442,276.29071349
175.457,276.259743039
175.472,276.228676482
175.487,276.197513509
175.502,276.166253809
175.517,276.134897069
175.532,276.103442975
175.547,276.071891209
175.562,276.040241453
175.577,276.008493386
175.592,275.976646684
175.607,275.944701024
175.622,275.912656077
175.637,275.880511516
175.652,275.848267008
175.667,275.815922222
175.682,275.783476822
175.697,275.75093047
175.712,275.718282828
175.727,275.685533555
175.742,275.652682305
175.757,275.619728735
175.772,275.586672497
175.787,275.55351324
175.802,275.520250613
175.817,275.486884262
175.832,275.453413831
175.847,275.41983896
175.862,275.386159291
175.877,275.352374459
175.892,275.3184841
175.907,275.284487848
175.922,275.250385333
175.937,275.216176183
175.952,275.181860024
175.967,275.147436482
175.982,275.112905178
175.997,275.078265732
176.012,275.04351776
176.027,275.008660879
176.042,274.973694701
176.057,274.938618838
176.072,274.903432897
176.087,274.868136485
176.102,274.832729205
176.117,274.79721066
176.132,274.761580449
176.147,274.725838169
176.162,274.689983415
176.177,274.654015779
176.192,274.617934852
176.207,274.581740222
176.222,274.545431474
176.237,274.509008191
176.252,274.472469955
176.267,274.435816344
176.282,274.399046935
176.297,274.362161302
176.31,274.330099409
176.312,274.325159016
176.327,274.288039646
176.342,274.250802761
176.357,274.213447924
176.372,274.175974698
176.387,274.138382643
176.402,274.100671316
176.417,274.062840273
176.432,274.024889067
176.447,273.986817248
176.46,273.953723761
176.462,273.948624365
176.477,273.910309964
176.492,273.871873587
176.507,273.833314776
176.522,273.794633071
176.537,273.755828007
176.552,273.716899118
176.567,273.677845937
176.582,273.638667992
176.597,273.59936481
176.612,273.559935917
176.627,273.520380833
176.642,273.48069908
176.657,273.440890174
176.672,273.400953631
176.687,273.360888963
176.702,273.320695681
176.717,273.280373292
176.732,273.239921303
176.747,273.199339216
176.762,273.158626533
176.777,273.117782751
176.792,273.076807368
176.807,273.035699876
176.822,272.994459768
176.837,272.953086533
176.852,272.911579656
176.867,272.869938623
176.882,272.828162915
176.897,272.786252012
176.912,272.744205392
176.927,272.702022529
176.942,272.659702895
176.957,272.617245962
176.972,272.574651198
176.987,272.531918066
177.002,272.489046032
177.017,272.446034555
177.032,272.402883095
177.047,272.359591108
177.062,272.316158047
177.077,272.272583364
177.092,272.228866509
177.107,272.185006928
177.122,272.141004067
177.137,272.096857367
177.152,272.052566269
177.167,272.00813021
177.182,271.963548626
177.197,271.91882095
177.21,271.879938352
177.212,271.873946613
177.227,271.828925044
177.242,271.783755669
177.257,271.738437912
177.272,271.692971195
177.287,271.647354937
177.302,271.601588556
177.31,271.577118234
177.317,271.555671467
177.332,271.509603083
177.347,271.463382814
177.362,271.417010068
177.377,271.370484252
177.392,271.323804769
177.407,271.276971021
177.422,271.229982407
177.437,271.182838325
177.452,271.135538169
177.467,271.088081332
177.482,271.040467205
177.497,270.992695175
177.512,270.94476463
177.527,270.896674953
177.542,270.848425525
177.557,270.800015727
177.572,270.751444935
177.587,270.702712524
177.602,270.653817868
177.617,270.604760338
177.632,270.555539302
177.647,270.506154126
177.66,270.463220379
177.662,270.456604175
177.677,270.406888811
177.692,270.357007394
177.707,270.306959282
177.722,270.256743829
177.737,270.206360391
177.752,270.155808318
177.767,270.105086959
177.782,270.054195662
177.797,270.00313377
177.812,269.951900628
177.827,269.900495575
177.842,269.84891795
177.857,269.79716709
177.872,269.745242328
177.887,269.693142996
177.902,269.640868424
177.917,269.58841794
177.932,269.53579087
177.947,269.482986536
177.96,269.437078869
177.962,269.43000426
177.977,269.376843361
177.992,269.323503156
178.007,269.26998296
178.022,269.216282085
178.037,269.162399841
178.052,269.108335537
178.067,269.054088479
178.082,268.99965797
178.097,268.945043313
178.112,268.890243805
178.127,268.835258746
178.142,268.780087429
178.157,268.724729148
178.172,268.669183193
178.187,268.613448852
178.202,268.557525411
178.217,268.501412154
178.232,268.445108362
178.247,268.388613316
178.262,268.33192629
178.277,268.275046561
178.292,268.2179734
178.307,268.160706078
178.322,268.103243861
178.337,268.045586015
178.352,267.987731803
178.367,267.929680485
178.382,267.87143132
178.397,267.812983562
178.41,267.762167622
178.412,267.754336464
178.427,267.695489279
178.442,267.636441252
178.457,267.577191631
178.472,267.517739658
178.487,267.458084573
178.502,267.398225615
178.517,267.338162019
178.532,267.277893017
178.547,267.217417839
178.562,267.156735714
178.577,267.095845865
178.592,267.034747514
178.607,266.973439881
178.622,266.911922181
178.637,266.850193629
178.652,266.788253434
178.667,266.726100805
178.682,266.663734947
178.697,266.601155061
178.712,266.538360345
178.727,266.475349997
178.742,266.412123209
178.757,266.348679171
178.772,266.285017068
178.787,266.221136085
178.802,266.157035402
178.817,266.092714195
178.832,266.028171639
178.847,265.963406903
178.862,265.898419155
178.877,265.833207558
178.892,265.767771272
178.907,265.702109455
178.922,265.636221258
178.937,265.570105832
178.952,265.503762322
178.967,265.43718987
178.982,265.370387616
178.997,265.303354693
179.012,265.236090233
179.027,265.168593362
179.042,265.100863204
179.057,265.032898878
179.072,264.964699499
179.087,264.896264178
179.102,264.827592022
179.117,264.758682134
179.132,264.689533612
179.147,264.620145552
179.16,264.559814769
179.162,264.550517042
179.177,264.480647169
179.192,264.410535014
179.207,264.340179654
179.222,264.269580161
179.237,264.198735604
179.252,264.127645044
179.267,264.056307542
179.282,263.98472215
179.297,263.912887917
179.312,263.840803889
179.327,263.768469104
179.342,263.695882598
179.357,263.623043398
179.372,263.549950531
179.387,263.476603016
179.402,263.402999866
179.417,263.329140093
179.432,263.255022698
179.447,263.180646683
179.462,263.106011039
179.477,263.031114757
179.492,262.955956818
179.507,262.8805362
179.522,262.804851875
179.537,262.72890281
179.552,262.652687967
179.567,262.576206301
179.582,262.499456762
179.597,262.422438295
179.612,262.345149837
179.627,262.267590324
179.642,262.189758681
179.657,262.111653831
179.672,262.03327469
179.687,261.954620167
179.702,261.875689168
179.717,261.79648059
179.732,261.716993326
179.747,261.637226263
179.762,261.557178282
179.777,261.476848257
179.792,261.396235058
179.807,261.315337547
179.822,261.234154581
179.837,261.152685012
179.852,261.070927683
179.867,260.988881435
179.882,260.906545099
179.897,260.823917502
179.91,260.75207041
179.912,260.740997466
179.927,260.657783804
179.942,260.574275325
179.957,260.490470832
179.972,260.406369119
179.987,260.321968977
180.002,260.23726919
180.017,260.152268536
180.032,260.066965784
180.047,259.981359701
180.062,259.895449044
180.077,259.809232566
180.092,259.722709013
180.107,259.635877124
180.122,259.548735632
180.137,259.461283264
180.152,259.373518738
180.167,259.285440769
180.182,259.197048062
180.197,259.108339317
180.212,259.019313227
180.227,258.929968477
180.242,258.840303746
180.257,258.750317705
180.272,258.660009018
180.287,258.569376341
180.302,258.478418323
180.317,258.387133604
180.332,258.295520817
180.347,258.203578587
180.362,258.111305529
180.377,258.018700251
180.392,257.92576135
180.407,257.832487416
180.422,257.738877027
180.437,257.644928752
180.452,257.55064115
180.467,257.456012769
180.482,257.361042144
180.497,257.265727802
180.512,257.170068254
180.527,257.074062
180.542,256.977707527
180.557,256.881003306
180.56,256.861620357
180.572,256.783947796
180.587,256.686539438
180.602,256.588776659
180.617,256.490657867
180.632,256.392181453
180.647,256.29334579
180.66,256.207396349
180.662,256.194149229
180.677,256.094590103
180.692,255.994666721
180.707,255.894377368
180.722,255.793720305
180.737,255.69269377
180.752,255.59129597
180.767,255.489525084
180.782,255.387379263
180.797,255.284856622
180.812,255.181955245
180.827,255.078673179
180.842,254.975008434
180.857,254.870958981
180.872,254.766522746
180.887,254.661697614
180.902,254.556481421
180.917,254.450871954
180.932,254.344866951
180.947,254.23846409
180.962,254.131660997
180.977,254.024455232
180.992,253.916844296
181.007,253.808825619
181.022,253.700396561
181.037,253.59155441
181.052,253.482296373
181.067,253.372619575
181.082,253.262521057
181.097,253.151997767
181.112,253.041046558
181.127,252.929664185
181.142,252.817847296
181.157,252.705592432
181.172,252.592896016
181.187,252.479754353
181.202,252.366163621
181.217,252.252119868
181.232,252.137619003
181.247,252.02265679
181.262,251.907228844
181.277,251.791330624
181.292,251.674957423
181.307,251.558104366
181.31,251.53467573
181.322,251.440766397
181.337,251.322938277
181.352,251.204614572
181.367,251.085789648
181.382,250.966457661
181.397,250.846612551
181.412,250.72624803
181.427,250.605357577
181.442,250.483934426
181.457,250.361971558
181.472,250.239461692
181.487,250.116397276
181.502,249.992770475
181.517,249.868573162
181.532,249.743796909
181.547,249.618432975
181.562,249.492472297
181.577,249.365905476
181.592,249.23872277
181.607,249.110914081
181.622,248.982468943
181.637,248.853376511
181.652,248.72362555
181.667,248.593204422
181.682,248.462101075
181.697,248.33030303
181.712,248.197797368
181.727,248.06457072
181.742,247.930609252
181.757,247.795898652
181.772,247.660424118
181.787,247.524170345
181.802,247.38712151
181.817,247.249261261
181.832,247.110572701
181.847,246.971038374
181.862,246.830640253
181.877,246.689359723
181.892,246.54717757
181.907,246.40407396
181.922,246.260028432
181.937,246.115019874
181.952,245.969026513
181.967,245.822025898
181.982,245.673994881
181.997,245.524909601
182.012,245.374745467
182.027,245.223477137
182.042,245.071078505
182.057,244.917522672
182.06,244.886670218
182.072,244.762781934
182.087,244.606827755
182.102,244.449630744
182.117,244.291160636
182.132,244.131386259
182.147,243.970275513
182.162,243.807795338
182.177,243.643911682
182.192,243.478589469
182.207,243.311792566
182.222,243.143483738
182.237,242.973624609
182.252,242.802175617
182.267,242.629095962
182.282,242.454343553
182.297,242.277874946
182.312,242.099645281
182.327,241.919608204
182.342,241.737715794
182.357,241.553918467
182.372,241.368164883
182.387,241.180401834
182.402,240.990574121
182.417,240.798624424
182.432,240.604493143
182.447,240.408118234
182.462,240.209435018
182.477,240.008375967
182.492,239.804870468
182.507,239.598844549
182.522,239.390220585
182.537,239.178916948
182.552,238.964847629
182.567,238.747921801
182.582,238.528043328
182.597,238.305110208
182.612,238.079013947
182.627,237.849638841
182.642,237.616861172
182.657,237.380548284
182.672,237.140557549
182.687,236.89673518
182.702,236.64891489
182.717,236.396916373
182.732,236.140543575
182.747,235.879582739
182.762,235.613800191
182.777,235.342939838
182.792,235.066720348
182.807,234.784831979
182.822,234.496933025
182.837,234.202645861
182.852,233.901552562
182.867,233.593190092
182.882,233.277045095
182.897,232.952548328
182.912,232.619068872
182.927,232.275908293
182.942,231.9222951
182.957,231.557379993
182.972,231.180232675
182.987,230.789841389
183.002,230.385116893
183.017,229.964903382
183.032,229.528000024
183.047,229.07319835
183.062,228.599343087
183.077,228.105427134
183.092,227.590735829
183.107,227.0550615
183.122,226.499017009
183.137,225.924486334
183.152,225.335260318
183.167,224.737913044
183.182,224.142969438
183.197,223.56637386
183.212,223.031133133
183.227,222.568632031
183.242,222.218170799
183.257,222.021097802
183.367,222.046038515
183.382,222.281084802
183.397,222.65907147
183.412,223.138301932
183.427,223.681400967
183.442,224.259286112
183.457,224.850963842
183.472,225.442057794
183.487,226.023193059
183.502,226.58860688
183.517,227.135063365
183.532,227.661046846
183.547,228.166180387
183.562,228.650815555
183.577,229.115748099
183.592,229.562024133
183.607,229.990810402
183.622,230.40330935
183.637,230.80070516
183.652,231.184130987
183.667,231.554650512
183.682,231.913249018
183.697,232.260830684
183.712,232.598219814
183.727,232.926164455
183.742,233.245341359
183.757,233.556361587
183.772,233.859776319
183.787,234.156082559
183.802,234.445728587
183.817,234.729119045
183.832,235.006619606
183.847,235.278561229
183.862,235.54524399
183.877,235.806940522
183.892,236.063899072
183.907,236.316346234
183.922,236.564489358
183.937,236.808518689
183.952,237.048609254
183.967,237.284922528
183.982,237.5176079
183.997,237.746803967
184.012,237.972639678
184.027,238.195235333
184.042,238.414703472
184.057,238.631149654
184.072,238.844673148
184.087,239.055367537
184.102,239.263321259
184.117,239.468618078
184.132,239.671337505
184.147,239.871555172
184.162,240.069343159
184.177,240.264770286
184.192,240.457902377
184.207,240.648802487
184.222,240.837531114
184.237,241.024146374
184.252,241.208704174
184.267,241.391258356
184.282,241.571860827
184.297,241.750561681
184.312,241.927409303
184.327,242.102450464
184.342,242.275730411
184.357,242.447292946
184.372,242.61718049
184.387,242.785434157
184.402,242.952093807
184.417,243.117198099
184.432,243.280784545
184.447,243.442889551
184.462,243.603548461
184.477,243.762795592
184.492,243.920664274
184.507,244.07718688
184.522,244.232394855
184.537,244.386318749
184.552,244.538988241
184.56,244.619909048
184.567,244.690432165
184.582,244.840678533
184.597,244.989754557
184.612,245.137686674
184.627,245.284500563
184.642,245.430221162
184.657,245.574872695
184.672,245.718478681
184.687,245.861061956
184.702,246.002644689
184.717,246.143248398
184.732,246.282893966
184.747,246.421601653
184.762,246.559391118
184.777,246.696281426
184.792,246.832291068
184.807,246.96743797
184.822,247.101739511
184.837,247.235212535
184.852,247.367873363
184.867,247.499737806
184.882,247.630821181
184.897,247.761138319
184.912,247.890703583
184.927,248.019530873
184.942,248.147633646
184.957,248.275024922
184.972,248.401717298
184.987,248.52772296
185.002,248.653053694
185.017,248.777720897
185.032,248.901735588
185.047,249.025108419
185.062,249.147849688
185.077,249.269969345
185.092,249.391477007
185.107,249.512381964
185.122,249.632693195
185.137,249.75241937
185.152,249.871568868
185.167,249.990149779
185.182,250.108169921
185.197,250.22563684
185.212,250.34255783
185.227,250.45893993
185.242,250.574789944
185.257,250.690114439
185.272,250.804919761
185.287,250.919212041
185.302,251.032997198
185.31,251.093477243
185.317,251.146280956
185.332,251.259068841
185.347,251.371366197
185.362,251.483178188
185.377,251.594509807
185.392,251.705365879
185.407,251.815751076
185.422,251.925669912
185.437,252.035126759
185.452,252.144125847
185.467,252.252671271
185.482,252.360766998
185.497,252.468416873
185.512,252.575624619
185.527,252.682393849
185.542,252.788728066
185.557,252.89463067
185.572,253.00010496
185.587,253.105154143
185.602,253.209781333
185.617,253.31398956
185.632,253.417781767
185.647,253.521160823
185.662,253.624129518
185.677,253.726690572
185.692,253.828846637
185.707,253.930600297
185.722,254.031954077
185.737,254.132910439
185.752,254.233471792
185.767,254.33364049
185.782,254.433418833
185.797,254.532809077
185.812,254.631813428
185.827,254.730434049
185.842,254.828673061
185.857,254.926532543
185.872,255.02401454
185.887,255.121121056
185.902,255.217854064
185.917,255.314215503
185.932,255.41020728
185.947,255.505831274
185.96,255.588409336
185.962,255.601089334
185.977,255.695983283
185.992,255.790514919
186.007,255.884686014
186.022,255.978498318
186.037,256.071953558
186.052,256.165053442
186.06,256.214561994
186.067,256.257799654
186.082,256.350193863
186.097,256.442237718
186.112,256.533932849
186.127,256.625280871
186.142,256.716283383
186.157,256.806941969
186.172,256.897258197
186.187,256.987233621
186.202,257.076869784
186.217,257.166168213
186.232,257.255130425
186.247,257.343757923
186.262,257.432052199
186.277,257.520014735
186.292,257.607647001
186.307,257.694950458
186.322,257.781926555
186.337,257.868576733
186.352,257.954902423
186.367,258.040905045
186.382,258.126586014
186.397,258.211946733
186.412,258.296988596
186.427,258.381712993
186.442,258.466121301
186.457,258.550214891
186.472,258.633995127
186.487,258.717463365
186.502,258.800620952
186.517,258.883469229
186.532,258.966009529
186.547,259.048243179
186.562,259.130171497
186.577,259.211795795
186.592,259.293117379
186.607,259.374137547
186.622,259.454857589
186.637,259.535278791
186.652,259.615402431
186.667,259.695229779
186.682,259.774762101
186.697,259.854000654
186.71,259.922437408
186.712,259.93294669
186.727,260.011601454
186.742,260.089966185
186.757,260.168042116
186.772,260.245830471
186.787,260.323332472
186.802,260.40054933
186.817,260.477482253
186.832,260.554132441
186.847,260.630501089
186.862,260.706589385
186.877,260.782398511
186.892,260.857929643
186.907,260.93318395
186.922,261.008162595
186.937,261.082866737
186.952,261.157297526
186.967,261.231456106
186.982,261.305343619
186.997,261.378961195
187.012,261.452309963
187.027,261.525391043
187.042,261.59820555
187.057,261.670754593
187.072,261.743039275
187.087,261.815060694
187.102,261.886819941
187.117,261.958318101
187.132,262.029556254
187.147,262.100535474
187.162,262.171256828
187.177,262.24172138
187.192,262.311930185
187.207,262.381884295
187.222,262.451584754
187.237,262.521032603
187.252,262.590228876
187.267,262.6591746
187.282,262.727870799
187.297,262.796318491
187.312,262.864518687
187.327,262.932472395
187.342,263.000180614
187.357,263.067644342
187.372,263.134864569
187.387,263.20184228
187.402,263.268578454
187.417,263.335074068
187.432,263.401330091
187.447,263.467347487
187.46,263.524370283
187.462,263.533127216
187.477,263.598670233
187.492,263.663977487
187.507,263.729049922
187.522,263.793888478
187.537,263.858494091
187.552,263.92286769
187.567,263.9870102
187.582,264.050922541
187.597,264.11460563
187.612,264.178060378
187.627,264.24128769
187.642,264.30428847
187.657,264.367063613
187.672,264.429614014
187.687,264.491940559
187.702,264.554044135
187.717,264.615925619
187.732,264.677585888
187.747,264.739025811
187.762,264.800246257
187.777,264.861248088
187.792,264.922032161
187.807,264.982599332
187.822,265.04295045
187.837,265.103086361
187.852,265.163007908
187.867,265.222715929
187.882,265.282211257
187.897,265.341494724
187.912,265.400567156
187.927,265.459429375
187.942,265.5180822
187.957,265.576526447
187.972,265.634762926
187.987,265.692792446
188.002,265.75061581
188.017,265.808233819
188.032,265.865647271
188.047,265.922856958
188.062,265.979863671
188.077,266.036668195
188.092,266.093271314
188.107,266.149673808
188.122,266.205876453
188.137,266.261880021
188.152,266.317685283
188.167,266.373293004
188.182,266.428703948
188.197,266.483918874
188.21,266.531613839
188.212,266.53893854
188.227,266.593763698
188.242,266.6483951
188.257,266.702833492
188.272,266.757079619
188.287,266.811134221
188.302,266.864998038
188.317,266.918671804
188.332,266.97215625
188.347,267.025452108
188.362,267.078560102
188.377,267.131480955
188.392,267.18421539
188.407,267.236764122
188.422,267.289127868
188.437,267.341307339
188.452,267.393303243
188.467,267.445116288
188.482,267.496747177
188.497,267.548196611
188.512,267.599465288
188.527,267.650553904
188.542,267.701463152
188.557,267.752193721
188.572,267.802746299
188.587,267.853121572
188.602,267.90332022
188.617,267.953342925
188.632,268.003190363
188.647,268.052863208
188.66,268.095772301
188.662,268.102362133
188.677,268.151687807
188.692,268.200840897
188.707,268.249822068
188.722,268.29863198
188.737,268.347271295
