# 78954 TBPB Grantley Adams Observations at 12Z 12 Aug 2020
Frequency [GHz],TB
175.31,279.634404844
175.322,279.616975592
175.337,279.595133757
175.352,279.573230286
175.367,279.551264943
175.382,279.529237485
175.397,279.507147671
175.412,279.484995258
175.427,279.462779999
175.442,279.440501648
175.457,279.418159958
175.472,279.395754677
175.487,279.373285555
175.502,279.350752337
175.517,279.32815477
175.532,279.305492597
175.547,279.282765558
175.562,279.259973396
175.577,279.237115848
175.592,279.214192652
175.607,279.191203541
175.622,279.168148251
175.637,279.145026512
175.652,279.121838056
175.667,279.098582609
175.682,279.0752599
175.697,279.051869653
175.712,279.028411591
175.727,279.004885435
175.742,278.981290906
175.757,278.957627721
175.772,278.933895597
175.787,278.910094247
175.802,278.886223385
175.817,278.862282721
175.832,278.838271965
175.847,278.814190822
175.862,278.790039
175.877,278.7658162
175.892,278.741522125
175.907,278.717156475
175.922,278.692718948
175.937,278.668209239
175.952,278.643627042
175.967,278.618972051
175.982,278.594243955
175.997,278.569442444
176.012,278.544567202
176.027,278.519617916
176.042,278.494594267
176.057,278.469495938
176.072,278.444322605
176.087,278.419073947
176.102,278.393749638
176.117,278.368349351
176.132,278.342872757
176.147,278.317319525
176.162,278.291689322
176.177,278.265981813
176.192,278.24019666
176.207,278.214333525
176.222,278.188392066
176.237,278.162371941
176.252,278.136272803
176.267,278.110094307
176.282,278.083836101
176.297,278.057497835
176.31,278.034606305
176.312,278.031079156
176.327,278.004579707
176.342,277.977999131
176.357,277.951337068
176.372,277.924593156
176.387,277.897767032
176.402,277.870858328
176.417,277.843866676
176.432,277.816791706
176.447,277.789633045
176.46,277.766027553
176.462,277.762390319
176.477,277.73506315
176.492,277.707651159
176.507,277.680153965
176.522,277.652571184
176.537,277.624902431
176.552,277.597147316
176.567,277.569305451
176.582,277.541376443
176.597,277.513359896
176.612,277.485255415
176.627,277.457062599
176.642,277.428781048
176.657,277.400410357
176.672,277.371950121
176.687,277.343399932
176.702,277.314759379
176.717,277.286028049
176.732,277.257205526
176.747,277.228291395
176.762,277.199285233
176.777,277.170186621
176.792,277.140995133
176.807,277.111710343
176.822,277.082331821
176.837,277.052859136
176.852,277.023291854
176.867,276.993629539
176.882,276.963871753
176.897,276.934018055
176.912,276.904068001
176.927,276.874021145
176.942,276.843877041
176.957,276.813635237
176.972,276.78329528
176.987,276.752856715
177.002,276.722319085
177.017,276.691681929
177.032,276.660944786
177.047,276.630107189
177.062,276.599168672
177.077,276.568128764
177.092,276.536986994
177.107,276.505742887
177.122,276.474395965
177.137,276.442945749
177.152,276.411391756
177.167,276.379733503
177.182,276.347970502
177.197,276.316102263
177.21,276.288397617
177.212,276.284128295
177.227,276.252048102
177.242,276.219861188
177.257,276.187567054
177.272,276.155165197
177.287,276.122655112
177.302,276.090036293
177.31,276.072594953
177.317,276.057308229
177.332,276.02447041
177.347,275.991522319
177.362,275.958463441
177.377,275.925293254
177.392,275.892011238
177.407,275.858616867
177.422,275.825109613
177.437,275.791488947
177.452,275.757754337
177.467,275.723905247
177.482,275.68994114
177.497,275.655861475
177.512,275.62166571
177.527,275.587353299
177.542,275.552923696
177.557,275.518376348
177.572,275.483710704
177.587,275.448926207
177.602,275.4140223
177.617,275.378998421
177.632,275.343854007
177.647,275.308588493
177.66,275.27792665
177.662,275.273201309
177.677,275.237691884
177.692,275.202059645
177.707,275.166304015
177.722,275.130424415
177.737,275.094420263
177.752,275.058290976
177.767,275.022035966
177.782,274.985654644
177.797,274.949146417
177.812,274.912510692
177.827,274.875746869
177.842,274.83885435
177.857,274.801832532
177.872,274.764680809
177.887,274.727398574
177.902,274.689985215
177.917,274.65244012
177.932,274.614762673
177.947,274.576952254
177.96,274.544075186
177.962,274.539008243
177.977,274.500930016
177.992,274.462716945
178.007,274.424368403
178.022,274.385883757
178.037,274.347262371
178.052,274.30850361
178.067,274.269606832
178.082,274.230571396
178.097,274.191396655
178.112,274.152081961
178.127,274.112626664
178.142,274.07303011
178.157,274.033291643
178.172,273.993410603
178.187,273.953386329
178.202,273.913218156
178.217,273.872905417
178.232,273.832447442
178.247,273.791843558
178.262,273.75109309
178.277,273.710195358
178.292,273.669149682
178.307,273.627955378
178.322,273.586611759
178.337,273.545118135
178.352,273.503473814
178.367,273.461678101
178.382,273.419730297
178.397,273.377629701
178.41,273.341018383
178.412,273.33537561
178.427,273.292967316
178.442,273.25040411
178.457,273.207685279
178.472,273.164810108
178.487,273.121777877
178.502,273.078587866
178.517,273.035239351
178.532,272.991731602
178.547,272.948063891
178.562,272.904235483
178.577,272.860245641
178.592,272.816093627
178.607,272.771778697
178.622,272.727300105
178.637,272.682657103
178.652,272.637848937
178.667,272.592874853
178.682,272.547734092
178.697,272.502425892
178.712,272.456949488
178.727,272.411304111
178.742,272.365488989
178.757,272.319503348
178.772,272.273346408
178.787,272.227017388
178.802,272.180515502
178.817,272.133839961
178.832,272.086989973
178.847,272.039964741
178.862,271.992763466
178.877,271.945385345
178.892,271.897829569
178.907,271.850095329
178.922,271.80218181
178.937,271.754088193
178.952,271.705813657
178.967,271.657357373
178.982,271.608718514
178.997,271.559896243
179.012,271.510889723
179.027,271.461698111
179.042,271.41232056
179.057,271.362756219
179.072,271.313004233
179.087,271.263063742
179.102,271.212933882
179.117,271.162613783
179.132,271.112102572
179.147,271.061399372
179.16,271.017300617
179.162,271.010503299
179.177,270.959413465
179.192,270.908128978
179.207,270.85664894
179.222,270.804972449
179.237,270.753098596
179.252,270.701026468
179.267,270.648755147
179.282,270.596283709
179.297,270.543611224
179.312,270.490736757
179.327,270.437659366
179.342,270.384378106
179.357,270.330892023
179.372,270.277200159
179.387,270.223301548
179.402,270.169195219
179.417,270.114880195
179.432,270.06035549
179.447,270.005620114
179.462,269.950673069
179.477,269.895513351
179.492,269.840139946
179.507,269.784551836
179.522,269.728747995
179.537,269.672727388
179.552,269.616488974
179.567,269.560031703
179.582,269.503354517
179.597,269.446456352
179.612,269.389336132
179.627,269.331992775
179.642,269.27442519
179.657,269.216632276
179.672,269.158612925
179.687,269.100366019
179.702,269.041890428
179.717,268.983185017
179.732,268.924248637
179.747,268.865080131
179.762,268.805678331
179.777,268.74604206
179.792,268.686170128
179.807,268.626061336
179.822,268.565714472
179.837,268.505128315
179.852,268.444301629
179.867,268.38323317
179.882,268.321921678
179.897,268.260365884
179.91,268.206818923
179.912,268.198564503
179.927,268.13651624
179.942,268.074219784
179.957,268.011673813
179.972,267.948876988
179.987,267.885827959
180.002,267.822525359
180.017,267.758967808
180.032,267.69515391
180.047,267.631082253
180.062,267.566751409
180.077,267.502159935
180.092,267.437306371
180.107,267.37218924
180.122,267.306807045
180.137,267.241158277
180.152,267.175241402
180.167,267.109054874
180.182,267.042597122
180.197,266.97586656
180.212,266.908861579
180.227,266.841580552
180.242,266.77402183
180.257,266.706183742
180.272,266.638064597
180.287,266.569662679
180.302,266.500976252
180.317,266.432003554
180.332,266.3627428
180.347,266.29319218
180.362,266.223349861
180.377,266.153213981
180.392,266.082782653
180.407,266.012053963
180.422,265.941025969
180.437,265.869696701
180.452,265.798064158
180.467,265.726126312
180.482,265.653881102
180.497,265.581326437
180.512,265.508460193
180.527,265.435280212
180.542,265.361784304
180.557,265.287970243
180.56,265.273169055
180.572,265.213835769
180.587,265.139378583
180.602,265.064596349
180.617,264.989486694
180.632,264.914047203
180.647,264.838275424
180.66,264.772335834
180.662,264.762168858
180.677,264.685724968
180.692,264.60894117
180.707,264.531814837
180.722,264.454343293
180.737,264.376523816
180.752,264.298353635
180.767,264.219829927
180.782,264.140949819
180.797,264.061710384
180.812,263.982108639
180.827,263.902141547
180.842,263.821806012
180.857,263.741098876
180.872,263.660016924
180.887,263.578556874
180.902,263.496715382
180.917,263.414489036
180.932,263.331874354
180.947,263.248867785
180.962,263.165465705
180.977,263.081664413
180.992,262.997460134
181.007,262.912849009
181.022,262.827827102
181.037,262.742390389
181.052,262.65653476
181.067,262.570256017
181.082,262.483549867
181.097,262.396411924
181.112,262.308837702
181.127,262.220822617
181.142,262.132361979
181.157,262.043450991
181.172,261.954084744
181.187,261.864258218
181.202,261.773966273
181.217,261.68320365
181.232,261.591964963
181.247,261.500244699
181.262,261.408037211
181.277,261.315336715
181.292,261.222137287
181.307,261.128432857
181.31,261.109630826
181.322,261.034217204
181.337,260.939483953
181.352,260.844226568
181.367,260.74843835
181.382,260.652112427
181.397,260.555241756
181.412,260.457819109
181.427,260.359837072
181.442,260.26128804
181.457,260.162164207
181.472,260.062457564
181.487,259.962159888
181.502,259.861262738
181.517,259.759757448
181.532,259.657635119
181.547,259.554886609
181.562,259.451502532
181.577,259.347473241
181.592,259.242788826
181.607,259.137439105
181.622,259.031413611
181.637,258.924701585
181.652,258.817291967
181.667,258.709173387
181.682,258.600334149
181.697,258.490762227
181.712,258.380445248
181.727,258.269370484
181.742,258.15752484
181.757,258.044894837
181.772,257.931466602
181.787,257.817225856
181.802,257.702157894
181.817,257.586247576
181.832,257.469479305
181.847,257.351837018
181.862,257.233304162
181.877,257.113863678
181.892,256.993497986
181.907,256.872188958
181.922,256.749917904
181.937,256.626665546
181.952,256.502411996
181.967,256.377136733
181.982,256.250818576
181.997,256.123435656
182.012,255.99496539
182.027,255.86538445
182.042,255.734668729
182.057,255.60279331
182.06,255.576276811
182.072,255.469732428
182.087,255.335459431
182.102,255.199946742
182.117,255.06316581
182.132,254.925087068
182.147,254.785679883
182.162,254.644912498
182.177,254.502751976
182.192,254.359164141
182.207,254.214113504
182.222,254.067563198
182.237,253.919474894
182.252,253.769808717
182.267,253.618523154
182.282,253.465574954
182.297,253.310919012
182.312,253.154508259
182.327,252.996293518
182.342,252.836223369
182.357,252.674243983
182.372,252.510298952
182.387,252.344329088
182.402,252.176272217
182.417,252.006062936
182.432,251.833632348
182.447,251.658907776
182.462,251.481812427
182.477,251.302265034
182.492,251.120179444
182.507,250.935464165
182.522,250.748021848
182.537,250.557748716
182.552,250.36453391
182.567,250.168258764
182.582,249.968795973
182.597,249.766008665
182.612,249.559749339
182.627,249.349858672
182.642,249.136164151
182.657,248.918478531
182.672,248.696598068
182.687,248.470300518
182.702,248.23934284
182.717,248.00345858
182.732,247.76235488
182.747,247.515709056
182.762,247.263164671
182.777,247.004327047
182.792,246.738758108
182.807,246.465970476
182.822,246.185420689
182.837,245.896501441
182.852,245.598532671
182.867,245.29075139
182.882,244.97230005
182.897,244.642213302
182.912,244.299402991
182.927,243.942641237
182.942,243.570541531
182.957,243.181537865
182.972,242.7738621
182.987,242.345520072
183.002,241.894267456
183.017,241.417587162
183.032,240.912671371
183.047,240.376413241
183.062,239.805416536
183.077,239.196036247
183.092,238.544470901
183.107,237.846938833
183.122,237.099988289
183.137,236.301017119
183.152,235.449114336
183.167,234.546382794
183.182,233.599950245
183.197,232.624887577
183.212,231.648116029
183.227,230.712808008
183.242,229.881118332
183.257,229.229291126
183.367,229.36058066
183.382,230.059376869
183.397,230.917881212
183.412,231.862475871
183.427,232.836007503
183.442,233.799910311
183.457,234.730720137
183.472,235.615714011
183.487,236.449258532
183.502,237.230149283
183.517,237.959801575
183.532,238.641070689
183.547,239.277506479
183.562,239.872896398
183.577,240.430995409
183.592,240.955374766
183.607,241.449345073
183.622,241.915924834
183.637,242.357836099
183.652,242.777515569
183.667,243.177133897
183.682,243.558618701
183.697,243.92367861
183.712,244.273826754
183.727,244.610402867
183.742,244.934593567
183.757,245.247450665
183.772,245.549907527
183.787,245.842793551
183.802,246.126846944
183.817,246.402725923
183.832,246.671018524
183.847,246.932251178
183.862,247.186896188
183.877,247.435378261
183.892,247.678080193
183.907,247.915347836
183.922,248.147494429
183.937,248.374804376
183.952,248.597536546
183.967,248.815927162
183.982,249.030192322
183.997,249.240530211
184.012,249.44712304
184.027,249.650138749
184.042,249.849732497
184.057,250.046047981
184.072,250.239218593
184.087,250.429368445
184.102,250.616613268
184.117,250.801061213
184.132,250.98281356
184.147,251.161965344
184.162,251.338605913
184.177,251.512819425
184.192,251.684685294
184.207,251.854278579
184.222,252.021670345
184.237,252.186927974
184.252,252.350115455
184.267,252.511293634
184.282,252.670520451
184.297,252.827851143
184.312,252.983338434
184.327,253.137032708
184.342,253.288982157
184.357,253.439232932
184.372,253.587829262
184.387,253.734813575
184.402,253.880226606
184.417,254.024107494
184.432,254.166493872
184.447,254.30742195
184.462,254.446926593
184.477,254.58504139
184.492,254.721798721
184.507,254.857229815
184.522,254.991364809
184.537,255.124232799
184.552,255.255861891
184.56,255.325566914
184.567,255.386279241
184.582,255.515511104
184.597,255.643582872
184.612,255.77051911
184.627,255.896343591
184.642,256.02107933
184.657,256.144748617
184.672,256.267373044
184.687,256.388973532
184.702,256.509570362
184.717,256.629183192
184.732,256.747831089
184.747,256.865532547
184.762,256.982305508
184.777,257.098167383
184.792,257.213135074
184.807,257.327224987
184.822,257.440453054
184.837,257.552834747
184.852,257.664385097
184.867,257.775118706
184.882,257.885049764
184.897,257.994192061
184.912,258.102559004
184.927,258.210163625
184.942,258.317018597
184.957,258.423136244
184.972,258.528528555
184.987,258.633207193
185.002,258.737183502
185.017,258.840468526
185.032,258.943073012
185.047,259.045007418
185.062,259.14628193
185.077,259.246906463
185.092,259.346890673
185.107,259.446243965
185.122,259.5449755
185.137,259.643094203
185.152,259.740608771
185.167,259.837527678
185.182,259.933859184
185.197,260.029611341
185.212,260.124791999
185.227,260.219408812
185.242,260.313469246
185.257,260.40698058
185.272,260.499949918
185.287,260.592384188
185.302,260.684290154
185.31,260.733092936
185.317,260.775674414
185.332,260.86654341
185.347,260.95690343
185.362,261.046760615
185.377,261.13612096
185.392,261.224990323
185.407,261.313374424
185.422,261.401278852
185.437,261.48870907
185.452,261.575670416
185.467,261.662168107
185.482,261.748207245
185.497,261.833792817
185.512,261.918929703
185.527,262.003622673
185.542,262.087876396
185.557,262.171695439
185.572,262.255084272
185.587,262.338047269
185.602,262.420588715
185.617,262.502712803
185.632,262.584423639
185.647,262.665725246
185.662,262.746621565
185.677,262.827116457
185.692,262.907213705
185.707,262.986917018
185.722,263.066230031
185.737,263.14515631
185.752,263.223699349
185.767,263.301862577
185.782,263.379649358
185.797,263.457062992
185.812,263.534106716
185.827,263.610783709
185.842,263.687097092
185.857,263.763049927
185.872,263.838645222
185.887,263.913885933
185.902,263.988774962
185.917,264.063315159
185.932,264.137509326
185.947,264.211360218
185.96,264.275088746
185.962,264.284870541
185.977,264.358042956
185.992,264.430880079
186.007,264.503384483
186.022,264.5755587
186.037,264.64740522
186.052,264.718926491
186.06,264.756939013
186.067,264.790124925
186.082,264.861002895
186.097,264.931562734
186.112,265.001806743
186.127,265.071737186
186.142,265.141356291
186.157,265.210666255
186.172,265.27966924
186.187,265.348367378
186.202,265.416762769
186.217,265.484857481
186.232,265.552653554
186.247,265.620152999
186.262,265.687357798
186.277,265.754269906
186.292,265.82089125
186.307,265.887223731
186.322,265.953269224
186.337,266.01902958
186.352,266.084506624
186.367,266.149702156
186.382,266.214617956
186.397,266.279255777
186.412,266.343617353
186.427,266.407704393
186.442,266.471518585
186.457,266.535061599
186.472,266.59833508
186.487,266.661340656
186.502,266.724079934
186.517,266.786554502
186.532,266.84876593
186.547,266.910715767
186.562,266.972405547
186.577,267.033836784
186.592,267.095010977
186.607,267.155929605
186.622,267.216594132
186.637,267.277006007
186.652,267.337166661
186.667,267.397077511
186.682,267.456739957
186.697,267.516155385
186.71,267.567450006
186.712,267.575325167
186.727,267.634250659
186.742,267.692933204
186.757,267.751374132
186.772,267.809574758
186.787,267.867536383
186.802,267.925260298
186.817,267.982747779
186.832,268.040000089
186.847,268.097018481
186.862,268.153804194
186.877,268.210358456
186.892,268.266682484
186.907,268.322777482
186.922,268.378644645
186.937,268.434285155
186.952,268.489700185
186.967,268.544890897
186.982,268.599858442
186.997,268.654603961
187.012,268.709128587
187.027,268.763433441
187.042,268.817519635
187.057,268.871388271
187.072,268.925040445
187.087,268.97847724
187.102,269.031699731
187.117,269.084708987
187.132,269.137506065
187.147,269.190092015
187.162,269.242467879
187.177,269.294634692
187.192,269.346593477
187.207,269.398345255
187.222,269.449891033
187.237,269.501231816
187.252,269.552368598
187.267,269.603302367
187.282,269.654034104
187.297,269.704564782
187.312,269.754895369
187.327,269.805026823
187.342,269.854960099
187.357,269.904696142
187.372,269.954235893
187.387,270.003580285
187.402,270.052730246
187.417,270.101686697
187.432,270.150450552
187.447,270.199022722
187.46,270.240964247
187.462,270.247404108
187.477,270.295595609
187.492,270.343598117
187.507,270.391412516
187.522,270.439039688
187.537,270.486480508
187.552,270.533735845
187.567,270.580806563
187.582,270.627693522
187.597,270.674397575
187.612,270.720919572
187.627,270.767260355
187.642,270.813420764
187.657,270.859401633
187.672,270.905203791
187.687,270.950828063
187.702,270.996275267
187.717,271.04154622
187.732,271.086641731
187.747,271.131562607
187.762,271.176309649
187.777,271.220883655
187.792,271.265285417
187.807,271.309515724
187.822,271.35357536
187.837,271.397465105
187.852,271.441185736
187.867,271.484738023
187.882,271.528122736
187.897,271.571340638
187.912,271.614392488
187.927,271.657279043
187.942,271.700001054
187.957,271.742559271
187.972,271.784954437
187.987,271.827187294
188.002,271.869258577
188.017,271.911169021
188.032,271.952919355
188.047,271.994510306
188.062,272.035942595
188.077,272.077216941
188.092,272.118334061
188.107,272.159294666
188.122,272.200099463
188.137,272.24074916
188.152,272.281244456
188.167,272.321586051
188.182,272.361774639
188.197,272.401810912
188.21,272.436386341
188.212,272.441695558
188.227,272.481429263
188.242,272.521012707
188.257,272.560446571
188.272,272.599731528
188.287,272.638868252
188.302,272.677857412
188.317,272.716699673
188.332,272.755395698
188.347,272.793946148
188.362,272.832351678
188.377,272.870612943
188.392,272.908730594
188.407,272.946705277
188.422,272.984537637
188.437,273.022228317
188.452,273.059777954
188.467,273.097187186
188.482,273.134456644
188.497,273.171586958
188.512,273.208578756
188.527,273.245432661
188.542,273.282149296
188.557,273.318729278
188.572,273.355173223
188.587,273.391481744
188.602,273.427655451
188.617,273.463694952
188.632,273.49960085
188.647,273.535373747
188.66,273.566269805
188.662,273.571014242
188.677,273.606522932
188.692,273.64190041
188.707,273.677147267
188.722,273.71226409
