# 78954 TBPB Grantley Adams Observations at 12Z 24 Jan 2019
Frequency [GHz],TB
175.31,286.88112733
175.322,286.876670646
175.337,286.870983427
175.352,286.865166796
175.367,286.859220625
175.382,286.853144794
175.397,286.846939182
175.412,286.840603674
175.427,286.834138159
175.442,286.827542528
175.457,286.820816674
175.472,286.813960497
175.487,286.806973898
175.502,286.799856781
175.517,286.792609057
175.532,286.785230635
175.547,286.777721432
175.562,286.770081365
175.577,286.76231036
175.592,286.754408338
175.607,286.746375231
175.622,286.738210971
175.637,286.729915493
175.652,286.721488737
175.667,286.712930646
175.682,286.704241165
175.697,286.695420245
175.712,286.686467838
175.727,286.677383901
175.742,286.668168393
175.757,286.658821277
175.772,286.64934252
175.787,286.639732091
175.802,286.629989964
175.817,286.620116113
175.832,286.610110521
175.847,286.599973168
175.862,286.589704042
175.877,286.579303132
175.892,286.568770429
175.907,286.558105931
175.922,286.547309636
175.937,286.536381545
175.952,286.525321666
175.967,286.514130005
175.982,286.502806573
175.997,286.491351386
176.012,286.479764461
176.027,286.468045818
176.042,286.456195481
176.057,286.444213476
176.072,286.432099831
176.087,286.41985458
176.102,286.407477758
176.117,286.3949694
176.132,286.382329549
176.147,286.369558248
176.162,286.356655541
176.177,286.343621478
176.192,286.33045611
176.207,286.31715949
176.222,286.303731674
176.237,286.290172721
176.252,286.276482692
176.267,286.262661649
176.282,286.248709659
176.297,286.23462679
176.31,286.222315825
176.312,286.220413112
176.327,286.206068696
176.342,286.191593618
176.357,286.176987954
176.372,286.162251782
176.387,286.147385182
176.402,286.132388237
176.417,286.117261031
176.432,286.102003651
176.447,286.086616181
176.46,286.073175217
176.462,286.071098714
176.477,286.055451338
176.492,286.039674146
176.507,286.023767233
176.522,286.007730693
176.537,285.991564623
176.552,285.975269119
176.567,285.958844281
176.582,285.942290208
176.597,285.925607002
176.612,285.908794763
176.627,285.891853595
176.642,285.874783601
176.657,285.857584885
176.672,285.840257552
176.687,285.822801707
176.702,285.805217455
176.717,285.787504903
176.732,285.769664157
176.747,285.751695323
176.762,285.733598509
176.777,285.71537382
176.792,285.697021364
176.807,285.678541246
176.822,285.659933573
176.837,285.641198451
176.852,285.622335985
176.867,285.60334628
176.882,285.58422944
176.897,285.564985569
176.912,285.545614769
176.927,285.526117142
176.942,285.506492788
176.957,285.486741807
176.972,285.466864298
176.987,285.446860357
177.002,285.426730081
177.017,285.406473561
177.032,285.386090893
177.047,285.365582165
177.062,285.344947466
177.077,285.324186883
177.092,285.303300502
177.107,285.282288402
177.122,285.261150666
177.137,285.239887371
177.152,285.218498591
177.167,285.1969844
177.182,285.175344866
177.197,285.153580057
177.21,285.134615938
177.212,285.131690036
177.227,285.109674863
177.242,285.087534597
177.257,285.065269291
177.272,285.042878995
177.287,285.020363757
177.302,284.997723619
177.31,284.985597823
177.317,284.974958621
177.332,284.952068798
177.347,284.929054181
177.362,284.905914797
177.377,284.88265067
177.392,284.859261815
177.407,284.835748248
177.422,284.812109978
177.437,284.788347007
177.452,284.764459336
177.467,284.740446956
177.482,284.716309859
177.497,284.692048025
177.512,284.667661435
177.527,284.643150058
177.542,284.618513862
177.557,284.593752807
177.572,284.568866848
177.587,284.543855932
177.602,284.518720001
177.617,284.493458992
177.632,284.468072833
177.647,284.442561447
177.66,284.420350217
177.662,284.416924747
177.677,284.391162645
177.692,284.365275041
177.707,284.339261828
177.722,284.313122895
177.737,284.28685812
177.752,284.260467376
177.767,284.233950525
177.782,284.207307425
177.797,284.180537925
177.812,284.153641862
177.827,284.12661907
177.842,284.099469372
177.857,284.072192583
177.872,284.044788507
177.887,284.017256944
177.902,283.989597681
177.917,283.961810498
177.932,283.933895163
177.947,283.905851439
177.96,283.881442833
177.962,283.877679076
177.977,283.849377815
177.992,283.820947389
178.007,283.792387519
178.022,283.763697917
178.037,283.734878284
178.052,283.705928313
178.067,283.676847683
178.082,283.647636066
178.097,283.61829312
178.112,283.588818495
178.127,283.559211828
178.142,283.529472746
178.157,283.499600864
178.172,283.469595788
178.187,283.439457107
178.202,283.409184404
178.217,283.378777249
178.232,283.348235197
178.247,283.317557794
178.262,283.286744573
178.277,283.255795054
178.292,283.224708745
178.307,283.193485142
178.322,283.162123727
178.337,283.13062397
178.352,283.098985328
178.367,283.067207244
178.382,283.035289149
178.397,283.003230459
178.41,282.975332074
178.412,282.971030577
178.427,282.938688892
178.442,282.906204782
178.457,282.873577606
178.472,282.840806713
178.487,282.807891435
178.502,282.774831091
178.517,282.741624985
178.532,282.708272406
178.547,282.674772629
178.562,282.641124913
178.577,282.607328503
178.592,282.573382627
178.607,282.539286498
178.622,282.505039314
178.637,282.470640257
178.652,282.436088494
178.667,282.401383174
178.682,282.36652343
178.697,282.33150838
178.712,282.296337125
178.727,282.261008748
178.742,282.225522316
178.757,282.18987688
178.772,282.154071472
178.787,282.118105108
178.802,282.081976784
178.817,282.045685481
178.832,282.009230162
178.847,281.97260977
178.862,281.93582323
178.877,281.898869451
178.892,281.86174732
178.907,281.824455708
178.922,281.786993465
178.937,281.749359424
178.952,281.711552395
178.967,281.673571172
178.982,281.635414529
178.997,281.597081217
179.012,281.558569969
179.027,281.519879498
179.042,281.481008496
179.057,281.441955633
179.072,281.40271956
179.087,281.363298905
179.102,281.323692276
179.117,281.283898258
179.132,281.243915415
179.147,281.203742288
179.16,281.168770516
179.162,281.163377397
179.177,281.122819238
179.192,281.082066285
179.207,281.041116989
179.222,280.999969777
179.237,280.958623053
179.252,280.917075197
179.267,280.875324565
179.282,280.833369489
179.297,280.791208274
179.312,280.748839205
179.327,280.706260536
179.342,280.6634705
179.357,280.620467303
179.372,280.577249124
179.387,280.533814117
179.402,280.490160408
179.417,280.446286098
179.432,280.402189259
179.447,280.357867937
179.462,280.31332015
179.477,280.268543887
179.492,280.223537108
179.507,280.178297747
179.522,280.132823707
179.537,280.087112861
179.552,280.041163054
179.567,279.9949721
179.582,279.948537782
179.597,279.901857854
179.612,279.854930037
179.627,279.807752023
179.642,279.760321469
179.657,279.712636003
179.672,279.664693217
179.687,279.616490675
179.702,279.568025902
179.717,279.519296395
179.732,279.470299612
179.747,279.42103298
179.762,279.371493891
179.777,279.3216797
179.792,279.271587727
179.807,279.221215259
179.822,279.170559542
179.837,279.119617788
179.852,279.068387173
179.867,279.016864833
179.882,278.965047867
179.897,278.912933336
179.91,278.867524413
179.912,278.860518263
179.927,278.807799631
179.942,278.754774383
179.957,278.701439423
179.972,278.647791615
179.987,278.593827782
180.002,278.539544704
180.017,278.484939122
180.032,278.430007735
180.047,278.374747199
180.062,278.319154126
180.077,278.263225087
180.092,278.206956608
180.107,278.150345173
180.122,278.093387219
180.137,278.036079141
180.152,277.978417287
180.167,277.920397961
180.182,277.86201742
180.197,277.803271876
180.212,277.744157494
180.227,277.684670392
180.242,277.62480664
180.257,277.564562263
180.272,277.503933236
180.287,277.442915487
180.302,277.381504893
180.317,277.319697287
180.332,277.257488448
180.347,277.194874109
180.362,277.131849951
180.377,277.068411608
180.392,277.004554662
180.407,276.940274645
180.422,276.87556704
180.437,276.810427276
180.452,276.744850734
180.467,276.678832745
180.482,276.612368586
180.497,276.545453486
180.512,276.478082619
180.527,276.41025111
180.542,276.341954035
180.557,276.273186414
180.56,276.259375983
180.572,276.20394322
180.587,276.134219371
180.602,276.064009738
180.617,275.993309137
180.632,275.922112336
180.647,275.850414053
180.66,275.787865774
180.662,275.778208951
180.677,275.705491649
180.692,275.632256711
180.707,275.558498655
180.722,275.484211948
180.737,275.40939101
180.752,275.334030211
180.767,275.258123874
180.782,275.181666276
180.797,275.104651646
180.812,275.027074168
180.827,274.94892798
180.842,274.870207178
180.857,274.790905812
180.872,274.711017891
180.887,274.630537383
180.902,274.549458213
180.917,274.467774269
180.932,274.385479401
180.947,274.30256742
180.962,274.219032102
180.977,274.134867191
180.992,274.050066394
181.007,273.964623391
181.022,273.878531831
181.037,273.791785333
181.052,273.704377493
181.067,273.616301882
181.082,273.527552047
181.097,273.438121518
181.112,273.348003804
181.127,273.257192401
181.142,273.165680791
181.157,273.073462444
181.172,272.980530824
181.187,272.886879388
181.202,272.792501592
181.217,272.697390889
181.232,272.601540741
181.247,272.50494461
181.262,272.407595974
181.277,272.30948832
181.292,272.210615153
181.307,272.110969999
181.31,272.090947762
181.322,272.010546409
181.337,271.909337959
181.352,271.807338261
181.367,271.704540961
181.382,271.600939746
181.397,271.496528348
181.412,271.391300549
181.427,271.285250186
181.442,271.178371153
181.457,271.070657411
181.472,270.962102988
181.487,270.852701987
181.502,270.742448591
181.517,270.631337068
181.532,270.519361778
181.547,270.406517176
181.562,270.29279782
181.577,270.178198377
181.592,270.062713627
181.607,269.946338473
181.622,269.829067943
181.637,269.710897198
181.652,269.59182154
181.667,269.471836417
181.682,269.35093743
181.697,269.229120338
181.712,269.106381067
181.727,268.982715717
181.742,268.858120566
181.757,268.73259208
181.772,268.606126915
181.787,268.478721929
181.802,268.350374187
181.817,268.221080965
181.832,268.090839759
181.847,267.95964829
181.862,267.82750451
181.877,267.694406611
181.892,267.560353026
181.907,267.425342436
181.922,267.289373778
181.937,267.152446244
181.952,267.014559291
181.967,266.875712642
181.982,266.735906288
181.997,266.595140494
182.012,266.453415797
182.027,266.310733011
182.042,266.167093223
182.057,266.022497797
182.06,265.993464175
182.072,265.876948369
182.087,265.730446846
182.102,265.582995397
182.117,265.434596455
182.132,265.285252703
182.147,265.134967067
182.162,264.983742706
182.177,264.831582995
182.192,264.678491513
182.207,264.52447202
182.222,264.369528438
182.237,264.213664824
182.252,264.056885339
182.267,263.899194219
182.282,263.740595731
182.297,263.581094131
182.312,263.420693614
182.327,263.259398258
182.342,263.097211955
182.357,262.934138344
182.372,262.77018072
182.387,262.605341948
182.402,262.439624349
182.417,262.273029583
182.432,262.105558509
182.447,261.937211033
182.462,261.767985928
182.477,261.597880637
182.492,261.42689104
182.507,261.255011202
182.522,261.08223307
182.537,260.908546142
182.552,260.733937079
182.567,260.558389266
182.582,260.381882307
182.597,260.204391448
182.612,260.025886909
182.627,259.84633312
182.642,259.665687834
182.657,259.48390111
182.672,259.300914123
182.687,259.116657798
182.702,258.931051203
182.717,258.743999693
182.732,258.555392733
182.747,258.365101348
182.762,258.172975133
182.777,257.978838731
182.792,257.782487686
182.807,257.58368352
182.822,257.382147916
182.837,257.177555776
182.852,256.969526952
182.867,256.757616343
182.882,256.54130201
182.897,256.319970859
182.912,256.09290134
182.927,255.859242478
182.942,255.617988361
182.957,255.367947014
182.972,255.107702284
182.987,254.83556705
183.002,254.549525593
183.017,254.247162486
183.032,253.925574664
183.047,253.581262646
183.062,253.209996017
183.077,252.806647517
183.092,252.36498952
183.107,251.877446872
183.122,251.334801828
183.137,250.725852116
183.152,250.037035463
183.167,249.252060571
183.182,248.351641089
183.197,247.313550986
183.212,246.113493688
183.227,244.727926117
183.242,243.141566874
183.257,241.366081511
183.367,241.807127064
183.382,243.532531814
183.397,245.061866584
183.412,246.393088959
183.427,247.544683809
183.442,248.54078612
183.457,249.40528062
183.472,250.15964656
183.487,250.82236715
183.502,251.408986355
183.517,251.932413878
183.532,252.403300721
183.547,252.830407492
183.562,253.220934216
183.577,253.580802407
183.592,253.914890164
183.607,254.227225186
183.622,254.521141876
183.637,254.799408621
183.652,255.064330704
183.667,255.317833507
183.682,255.561529831
183.697,255.796774488
183.712,256.024708665
183.727,256.246296085
183.742,256.46235257
183.757,256.673570289
183.772,256.880537712
183.787,257.083756087
183.802,257.283653079
183.817,257.480594116
183.832,257.674891843
183.847,257.866814022
183.862,258.056590171
183.877,258.244417134
183.892,258.430463792
183.907,258.614875043
183.922,258.797775172
183.937,258.97927073
183.952,259.159452973
183.967,259.338399956
183.982,259.516178325
183.997,259.692844847
184.012,259.868447738
184.027,260.043027799
184.042,260.216619398
184.057,260.389251326
184.072,260.56094753
184.087,260.731727756
184.102,260.901608107
184.117,261.070601527
184.132,261.238718228
184.147,261.405966057
184.162,261.572350824
184.177,261.737876585
184.192,261.902545891
184.207,262.066360009
184.222,262.229319113
184.237,262.391422456
184.252,262.55266852
184.267,262.713055144
184.282,262.872579646
184.297,263.031238923
184.312,263.189029539
184.327,263.345947812
184.342,263.501989878
184.357,263.657151755
184.372,263.811429402
184.387,263.964818761
184.402,264.117315802
184.417,264.268916562
184.432,264.419617174
184.447,264.569413899
184.462,264.718303148
184.477,264.866281501
184.492,265.013345733
184.507,265.15949282
184.522,265.304719959
184.537,265.449024575
184.552,265.592404332
184.56,265.668494639
184.567,265.734857139
184.582,265.876381159
184.597,266.016974805
184.612,266.156636753
184.627,266.295365937
184.642,266.433161552
184.657,266.570023054
184.672,266.705950158
184.687,266.840942836
184.702,266.975001318
184.717,267.108126084
184.732,267.240317864
184.747,267.371577634
184.762,267.501906608
184.777,267.631306238
184.792,267.759778205
184.807,267.887324419
184.822,268.013947006
184.837,268.139648309
184.852,268.264430877
184.867,268.388297465
184.882,268.51125102
184.897,268.633294684
184.912,268.754431778
184.927,268.874665803
184.942,268.994000432
184.957,269.112439502
184.972,269.229987007
184.987,269.346647097
185.002,269.462424066
185.017,269.577322347
185.032,269.691346508
185.047,269.804501246
185.062,269.916791378
185.077,270.028221837
185.092,270.138797667
185.107,270.248524017
185.122,270.357406132
185.137,270.465449354
185.152,270.572659109
185.167,270.67904091
185.182,270.784600345
185.197,270.889343073
185.212,270.993274824
185.227,271.096401389
185.242,271.198728616
185.257,271.300262409
185.272,271.401008719
185.287,271.500973544
185.302,271.600162919
185.31,271.652748943
185.317,271.69858292
185.332,271.796239652
185.347,271.893139252
185.362,271.989287878
185.377,272.084691714
185.392,272.17935696
185.407,272.273289829
185.422,272.366496548
185.437,272.458983353
185.452,272.550756483
185.467,272.641822181
185.482,272.732186689
185.497,272.821856246
185.512,272.910837087
185.527,272.999135436
185.542,273.086757511
185.557,273.173709512
185.572,273.259997629
185.587,273.345628032
185.602,273.430606874
185.617,273.514940285
185.632,273.598634373
185.647,273.681695224
185.662,273.764128895
185.677,273.845941416
185.692,273.927138788
185.707,274.007726983
185.722,274.087711938
185.737,274.167099559
185.752,274.245895718
185.767,274.324106249
185.782,274.401736951
185.797,274.478793586
185.812,274.555281875
185.827,274.631207502
185.842,274.706576109
185.857,274.781393298
185.872,274.855664628
185.887,274.929395616
185.902,275.002591736
185.917,275.075258417
185.932,275.147401046
185.947,275.219024964
185.96,275.28068354
185.962,275.290135465
185.977,275.3607378
185.992,275.430837173
186.007,275.500438742
186.022,275.569547618
186.037,275.638168864
186.052,275.706307499
186.06,275.742452487
186.067,275.773968492
186.082,275.841156765
186.097,275.907877193
186.112,275.974134604
186.127,276.039933777
186.142,276.105279445
186.157,276.17017629
186.172,276.234628951
186.187,276.298642014
186.202,276.362220022
186.217,276.425367468
186.232,276.488088798
186.247,276.550388411
186.262,276.612270659
186.277,276.673739845
186.292,276.734800228
186.307,276.795456018
186.322,276.85571138
186.337,276.915570433
186.352,276.975037248
186.367,277.034115852
186.382,277.092810226
186.397,277.151124306
186.412,277.209061981
186.427,277.266627099
186.442,277.32382346
186.457,277.380654823
186.472,277.4371249
186.487,277.493237362
186.502,277.548995837
186.517,277.604403908
186.532,277.659465117
186.547,277.714182964
186.562,277.768560906
186.577,277.822602361
186.592,277.876310704
186.607,277.92968927
186.622,277.982741352
186.637,278.035470205
186.652,278.087879045
186.667,278.139971047
186.682,278.191749348
186.697,278.243217046
186.71,278.287573508
186.712,278.294377202
186.727,278.345232838
186.742,278.395786939
186.757,278.446042455
186.772,278.496002295
186.787,278.545669337
186.802,278.59504642
186.817,278.644136348
186.832,278.692941892
186.847,278.741465784
186.862,278.789710727
186.877,278.837679386
186.892,278.885374395
186.907,278.932798353
186.922,278.979953827
186.937,279.026843353
186.952,279.073469432
186.967,279.119834536
186.982,279.165941104
186.997,279.211791545
187.012,279.257388237
187.027,279.302733528
187.042,279.347829735
187.057,279.392679148
187.072,279.437284024
187.087,279.481646596
187.102,279.525769064
187.117,279.569653603
187.132,279.613302357
187.147,279.656717447
187.162,279.699900962
187.177,279.742854967
187.192,279.7855815
187.207,279.828082573
187.222,279.870360171
187.237,279.912416255
187.252,279.95425276
187.267,279.995871595
187.282,280.037274647
187.297,280.078463776
187.312,280.119440818
187.327,280.160207588
187.342,280.200765875
187.357,280.241117445
187.372,280.281264043
187.387,280.321207388
187.402,280.360949181
187.417,280.400491097
187.432,280.439834792
187.447,280.478981897
187.46,280.512751617
187.462,280.517934027
187.477,280.556692771
187.492,280.595259699
187.507,280.633636362
187.522,280.671824288
187.537,280.709824987
187.552,280.747639949
187.567,280.785270643
187.582,280.822718521
187.597,280.859985014
187.612,280.897071535
187.627,280.933979478
187.642,280.970710219
187.657,281.007265115
187.672,281.043645507
187.687,281.079852716
187.702,281.115888046
187.717,281.151752786
187.732,281.187448204
187.747,281.222975554
187.762,281.258336072
187.777,281.293530979
187.792,281.328561477
187.807,281.363428754
187.822,281.398133982
187.837,281.432678316
187.852,281.467062897
187.867,281.501288849
187.882,281.535357282
187.897,281.56926929
187.912,281.603025954
187.927,281.636628338
187.942,281.670077493
187.957,281.703374455
187.972,281.736520247
187.987,281.769515875
188.002,281.802362336
188.017,281.835060608
188.032,281.86761166
188.047,281.900016445
188.062,281.932275903
188.077,281.964390962
188.092,281.996362536
188.107,282.028191527
188.122,282.059878824
188.137,282.091425303
188.152,282.122831831
188.167,282.154099257
188.182,282.185228423
188.197,282.216220157
188.21,282.242969123
188.212,282.247075275
188.227,282.277794582
188.242,282.308378871
188.257,282.338828925
188.272,282.369145514
188.287,282.399329398
188.302,282.429381325
188.317,282.459302034
188.332,282.489092252
188.347,282.518752694
188.362,282.548284068
188.377,282.577687069
188.392,282.606962382
188.407,282.636110684
188.422,282.665132639
188.437,282.694028902
188.452,282.722800121
188.467,282.751446931
188.482,282.779969958
188.497,282.80836982
188.512,282.836647125
188.527,282.864802472
188.542,282.89283645
188.557,282.920749641
188.572,282.948542615
188.587,282.976215938
188.602,283.003770162
188.617,283.031205833
188.632,283.05852349
188.647,283.085723662
188.66,283.109202515
188.662,283.11280687
188.677,283.139773626
188.692,283.166624436
188.707,283.193359798
188.722,283.219980198
