# 48698 WSSS Singapore Observations at 12Z 10 Apr 2019
Frequency [GHz],TB
175.31,275.096496936
175.322,275.076717592
175.337,275.051933194
175.352,275.027081617
175.367,275.002162598
175.382,274.977175838
175.397,274.952121037
175.412,274.926997927
175.427,274.90180619
175.442,274.876545541
175.457,274.851215678
175.472,274.82581631
175.487,274.800347123
175.502,274.77480782
175.517,274.749198109
175.532,274.723517659
175.547,274.697766169
175.562,274.671943318
175.577,274.646048821
175.592,274.62008233
175.607,274.594043524
175.622,274.567932104
175.637,274.541747737
175.652,274.515490095
175.667,274.48915885
175.682,274.462753676
175.697,274.43627424
175.712,274.4097202
175.727,274.383091225
175.742,274.356386975
175.757,274.329607104
175.772,274.302751269
175.787,274.27581913
175.802,274.248810332
175.817,274.22172453
175.832,274.194561339
175.847,274.167320437
175.862,274.140001455
175.877,274.11260403
175.892,274.085127802
175.907,274.057572396
175.922,274.029937441
175.937,274.002222561
175.952,273.974427405
175.967,273.946551562
175.982,273.918594683
175.997,273.890556365
176.012,273.86243622
176.027,273.83423388
176.042,273.805948931
176.057,273.777580989
176.072,273.749129659
176.087,273.720594533
176.102,273.691975215
176.117,273.663271296
176.132,273.634482371
176.147,273.605608022
176.162,273.576647841
176.177,273.547601406
176.192,273.518468305
176.207,273.489248096
176.222,273.459940368
176.237,273.430544693
176.252,273.401060617
176.267,273.371487727
176.282,273.341825576
176.297,273.312073716
176.31,273.286215876
176.312,273.282231711
176.327,273.252299111
176.342,273.222275456
176.357,273.192160295
176.372,273.161953151
176.387,273.131653601
176.402,273.101261145
176.417,273.07077533
176.432,273.040195687
176.447,273.009521719
176.46,272.982860962
176.462,272.978752965
176.477,272.947888936
176.492,272.916929156
176.507,272.885873111
176.522,272.85472033
176.537,272.823470303
176.552,272.792122538
176.567,272.760676519
176.582,272.72913175
176.597,272.697487717
176.612,272.665743889
176.627,272.63389976
176.642,272.601954803
176.657,272.569908501
176.672,272.537760305
176.687,272.505509684
176.702,272.473156101
176.717,272.440699017
176.732,272.408137877
176.747,272.375472144
176.762,272.342701233
176.777,272.30982461
176.792,272.276841711
176.807,272.243751955
176.822,272.210554768
176.837,272.177249594
176.852,272.143835832
176.867,272.110312903
176.882,272.076680219
176.897,272.042937185
176.912,272.009083202
176.927,271.975117667
176.942,271.941039963
176.957,271.906849506
176.972,271.872545651
176.987,271.83812779
177.002,271.8035953
177.017,271.768947532
177.032,271.734183866
177.047,271.699303666
177.062,271.664306273
177.077,271.629191047
177.092,271.593957341
177.107,271.558604469
177.122,271.5231318
177.137,271.487538638
177.152,271.451824319
177.167,271.415988165
177.182,271.380029484
177.197,271.343947586
177.21,271.312576419
177.212,271.307741786
177.227,271.271411386
177.242,271.234955671
177.257,271.198373935
177.272,271.161665445
177.287,271.124829502
177.302,271.08786537
177.31,271.068098501
177.317,271.050772308
177.332,271.013549602
177.347,270.976196489
177.362,270.938712226
177.377,270.901096046
177.392,270.863347203
177.407,270.82546493
177.422,270.787448448
177.437,270.749296979
177.452,270.711009746
177.467,270.67258595
177.482,270.634024804
177.497,270.595325511
177.512,270.556487238
177.527,270.517509196
177.542,270.478390556
177.557,270.439130492
177.572,270.399728189
177.587,270.360182775
177.602,270.320493418
177.617,270.280659274
177.632,270.240679485
177.647,270.200553185
177.66,270.16565786
177.662,270.160279487
177.677,270.119857536
177.692,270.079286447
177.707,270.038565315
177.722,269.997693245
177.737,269.956669343
177.752,269.915492688
177.767,269.874162365
177.782,269.832677459
177.797,269.791037012
177.812,269.749240114
177.827,269.707285805
177.842,269.665173144
177.857,269.622901151
177.872,269.580468863
177.887,269.537875317
177.902,269.495119534
177.917,269.452200502
177.932,269.409117253
177.947,269.365868758
177.96,269.328252294
177.962,269.322454024
177.977,269.278872013
177.992,269.235121712
178.007,269.191202082
178.022,269.14711207
178.037,269.102850654
178.052,269.058416746
178.067,269.013809298
178.082,268.96902722
178.097,268.924069454
178.112,268.878934891
178.127,268.83362243
178.142,268.788130988
178.157,268.742459431
178.172,268.696606631
178.187,268.650571472
178.202,268.604352814
178.217,268.557949501
178.232,268.511360375
178.247,268.464584278
178.262,268.417620032
178.277,268.370466456
178.292,268.323122365
178.307,268.275586546
178.322,268.227857805
178.337,268.179934922
178.352,268.131816649
178.367,268.083501778
178.382,268.034989051
178.397,267.986277218
178.41,267.943898267
178.412,267.937365022
178.427,267.888251176
178.442,267.838934418
178.457,267.789413436
178.472,267.739686948
178.487,267.689753636
178.502,267.639612187
178.517,267.589261275
178.532,267.53869955
178.547,267.487925672
178.562,267.43693829
178.577,267.385736023
178.592,267.334317502
178.607,267.282681339
178.622,267.230826146
178.637,267.178750491
178.652,267.126452995
178.667,267.073932215
178.682,267.021186697
178.697,266.96821502
178.712,266.915015719
178.727,266.861587316
178.742,266.807928346
178.757,266.754037331
178.772,266.699912741
178.787,266.645553109
178.802,266.590956868
178.817,266.536122541
178.832,266.481048543
178.847,266.425733349
178.862,266.370175389
178.877,266.314373098
178.892,266.258324886
178.907,266.202029161
178.922,266.145484328
178.937,266.088688745
178.952,266.031640825
178.967,265.974338893
178.982,265.916781326
178.997,265.858966459
179.012,265.80089263
179.027,265.742558137
179.042,265.683961311
179.057,265.625100425
179.072,265.565973783
179.087,265.506579653
179.102,265.4469163
179.117,265.386981983
179.132,265.326774926
179.147,265.266293367
179.16,265.2136526
179.162,265.205535533
179.177,265.144499606
179.192,265.083183811
179.207,265.021586313
179.222,264.959705297
179.237,264.897538906
179.252,264.835085297
179.267,264.772342615
179.282,264.70930899
179.297,264.645982528
179.312,264.582361327
179.327,264.518443495
179.342,264.454227102
179.357,264.389710222
179.372,264.324890912
179.387,264.259767219
179.402,264.19433718
179.417,264.128598803
179.432,264.062550109
179.447,263.996189103
179.462,263.929513774
179.477,263.862522093
179.492,263.795212036
179.507,263.727581529
179.522,263.659628565
179.537,263.591351036
179.552,263.522746863
179.567,263.453813976
179.582,263.384550251
179.597,263.314953591
179.612,263.245021859
179.627,263.174752924
179.642,263.104144639
179.657,263.033194834
179.672,262.96190136
179.687,262.89026201
179.702,262.81827462
179.717,262.745936964
179.732,262.673246831
179.747,262.60020202
179.762,262.526800255
179.777,262.453039323
179.792,262.378916946
179.807,262.304430864
179.822,262.229578794
179.837,262.154358455
179.852,262.078767534
179.867,262.002803728
179.882,261.926464701
179.897,261.849748161
179.91,261.78295328
179.912,261.77265173
179.927,261.695173061
179.942,261.6173098
179.957,261.539059579
179.972,261.460420005
179.987,261.381388699
180.002,261.301963241
180.017,261.222141239
180.032,261.141920261
180.047,261.06129788
180.062,260.980271658
180.077,260.898839149
180.092,260.81699788
180.107,260.734745404
180.122,260.652079225
180.137,260.568996876
180.152,260.485495856
180.167,260.401573666
180.182,260.317227786
180.197,260.232455702
180.212,260.147254872
180.227,260.061622791
180.242,259.975556886
180.257,259.889054619
180.272,259.802113431
180.287,259.714730737
180.302,259.626903987
180.317,259.538630576
180.332,259.449907924
180.347,259.360733429
180.362,259.271104496
180.377,259.181018499
180.392,259.090472807
180.407,258.999464823
180.422,258.907991914
180.437,258.81605141
180.452,258.723640696
180.467,258.630757099
180.482,258.537397973
180.497,258.443560642
180.512,258.349242453
180.527,258.25444071
180.542,258.159152733
180.557,258.063375855
180.56,258.044161568
180.572,257.967107359
180.587,257.870344555
180.602,257.773084747
180.617,257.675325207
180.632,257.577063233
180.647,257.478296104
180.66,257.392287202
180.662,257.379021091
180.677,257.279235467
180.692,257.178936509
180.707,257.078121468
180.722,256.976787589
180.737,256.874932145
180.752,256.772552378
180.767,256.669645538
180.782,256.566208854
180.797,256.462239574
180.812,256.357734918
180.827,256.252692124
180.842,256.147108416
180.857,256.040981011
180.872,255.934307139
180.887,255.827083989
180.902,255.719308814
180.917,255.610978791
180.932,255.502091123
180.947,255.392643036
180.962,255.282631707
180.977,255.172054353
180.992,255.060908145
181.007,254.949190288
181.022,254.836897963
181.037,254.724028365
181.052,254.610578669
181.067,254.496546047
181.082,254.381927701
181.097,254.266720785
181.112,254.150922494
181.127,254.03452997
181.142,253.917540411
181.157,253.799950961
181.172,253.681758794
181.187,253.562961086
181.202,253.44355497
181.217,253.323537622
181.232,253.202906205
181.247,253.081657856
181.262,252.959789733
181.277,252.837298991
181.292,252.71418278
181.307,252.590438237
181.31,252.56561368
181.322,252.466062505
181.337,252.341052738
181.352,252.215406061
181.367,252.089119615
181.382,251.962190537
181.397,251.834615959
181.412,251.706392989
181.427,251.577518782
181.442,251.447990438
181.457,251.317805089
181.472,251.186959838
181.487,251.055451782
181.502,250.923278042
181.517,250.790435721
181.532,250.656921888
181.547,250.522733659
181.562,250.3878681
181.577,250.252322263
181.592,250.116093236
181.607,249.979178061
181.622,249.841573805
181.637,249.703277478
181.652,249.564286122
181.667,249.424596725
181.682,249.28420632
181.697,249.143111849
181.712,249.001310309
181.727,248.858798643
181.742,248.715573791
181.757,248.571632651
181.772,248.426972146
181.787,248.28158914
181.802,248.135480459
181.817,247.988642957
181.832,247.841073431
181.847,247.69276867
181.862,247.543725409
181.877,247.393940393
181.892,247.24341029
181.907,247.092131778
181.922,246.9401015
181.937,246.787316069
181.952,246.633772046
181.967,246.479466008
181.982,246.324394471
181.997,246.168553943
182.012,246.011940908
182.027,245.854551804
182.042,245.696383104
182.057,245.537431233
182.06,245.505546565
182.072,245.377692614
182.087,245.21716371
182.102,245.055840941
182.117,244.893720784
182.132,244.730799741
182.147,244.567074371
182.162,244.402541248
182.177,244.237197091
182.192,244.071038681
182.207,243.904062931
182.222,243.736266894
182.237,243.567647809
182.252,243.398203136
182.267,243.227930549
182.282,243.056828039
182.297,242.884893915
182.312,242.712126899
182.327,242.538526112
182.342,242.364091191
182.357,242.188822342
182.372,242.012720432
182.387,241.835787017
182.402,241.658024496
182.417,241.479436145
182.432,241.300026291
182.447,241.119800358
182.462,240.938765038
182.477,240.756928403
182.492,240.574300063
182.507,240.390891286
182.522,240.206715216
182.537,240.021787002
182.552,239.836124033
182.567,239.64974608
182.582,239.462675561
182.597,239.274937746
182.612,239.086560995
182.627,238.897576984
182.642,238.708021001
182.657,238.517932189
182.672,238.327353838
182.687,238.136333636
182.702,237.944923978
182.717,237.753182281
182.732,237.561171203
182.747,237.368958981
182.762,237.176619641
182.777,236.984233315
182.792,236.791886385
182.807,236.599671678
182.822,236.407688614
182.837,236.216043225
182.852,236.02484811
182.867,235.834222337
182.882,235.644291063
182.897,235.455185118
182.912,235.267040244
182.927,235.079996122
182.942,234.89419499
182.957,234.709779845
182.972,234.526892036
182.987,234.345668187
183.002,234.166236205
183.017,233.988710128
183.032,233.81318354
183.047,233.639721216
183.062,233.468348332
183.077,233.299036793
183.092,233.131687834
183.107,232.966109887
183.122,232.801990908
183.137,232.638864131
183.152,232.476067335
183.167,232.312698043
183.182,232.147573195
183.197,231.979217225
183.212,231.805938909
183.227,231.626139174
183.242,231.439165758
183.257,231.247328267
183.367,231.282461546
183.382,231.470044679
183.397,231.651746635
183.412,231.826295634
183.427,231.994714035
183.442,232.158674702
183.457,232.319829562
183.472,232.479581262
183.487,232.63903795
183.502,232.799036097
183.517,232.960183373
183.532,233.122902873
183.547,233.287472305
183.562,233.454056444
183.577,233.622733366
183.592,233.79351528
183.607,233.966364845
183.622,234.141208119
183.637,234.317944624
183.652,234.496455228
183.667,234.676608392
183.682,234.858264869
183.697,235.041281607
183.712,235.225514525
183.727,235.410820807
183.742,235.597060595
183.757,235.78409824
183.772,235.971803225
183.787,236.160050855
183.802,236.348722634
183.817,236.537706563
183.832,236.726897277
183.847,236.916196048
183.862,237.105510696
183.877,237.294755497
183.892,237.483850969
183.907,237.672723658
183.922,237.8613059
183.937,238.04953555
183.952,238.237355686
183.967,238.424714363
183.982,238.611564278
183.997,238.797862529
184.012,238.983570319
184.027,239.168652672
184.042,239.353078191
184.057,239.53681879
184.072,239.719849421
184.087,239.902147908
184.102,240.083694675
184.117,240.264472555
184.132,240.444466567
184.147,240.623663769
184.162,240.802053064
184.177,240.979625022
184.192,241.156371753
184.207,241.332286745
184.222,241.507364757
184.237,241.68160167
184.252,241.854994401
184.267,242.027540745
184.282,242.199239353
184.297,242.370089601
184.312,242.540091515
184.327,242.709245697
184.342,242.877553245
184.357,243.045015751
184.372,243.211635131
184.387,243.377413726
184.402,243.542354076
184.417,243.706459089
184.432,243.86973181
184.447,244.032175484
184.462,244.193793528
184.477,244.354589495
184.492,244.514567022
184.507,244.673729853
184.522,244.832081782
184.537,244.989626651
184.552,245.146368369
184.56,245.229636904
184.567,245.302310843
184.582,245.457457988
184.597,245.611813759
184.612,245.765382076
184.627,245.918166861
184.642,246.070172032
184.657,246.221401468
184.672,246.371859047
184.687,246.521548602
184.702,246.67047395
184.717,246.818638882
184.732,246.966047148
184.747,247.112702483
184.762,247.258608563
184.777,247.403769063
184.792,247.548187618
184.807,247.691867813
184.822,247.834813224
184.837,247.977027398
184.852,248.118513837
184.867,248.259276036
184.882,248.399317436
184.897,248.538641479
184.912,248.677251575
184.927,248.815151102
184.942,248.952343416
184.957,249.088831872
184.972,249.224619782
184.987,249.35971044
185.002,249.494107138
185.017,249.627813138
185.032,249.760831692
185.047,249.893166021
185.062,250.024819361
185.077,250.155794907
185.092,250.28609585
185.107,250.415725385
185.122,250.544686657
185.137,250.672982828
185.152,250.800617062
185.167,250.927592469
185.182,251.053912204
185.197,251.179579364
185.212,251.304597064
185.227,251.428968394
185.242,251.552696465
185.257,251.675784338
185.272,251.798235092
185.287,251.920051816
185.302,252.041237553
185.31,252.105613
185.317,252.161795362
185.332,252.281728286
185.347,252.401039372
185.362,252.519731647
185.377,252.63780814
185.392,252.755271874
185.407,252.872125852
185.422,252.988373092
185.437,253.104016593
185.452,253.21905935
185.467,253.333504338
185.482,253.447354561
185.497,253.560612985
185.512,253.673282576
185.527,253.785366284
185.542,253.896867085
185.557,254.007787929
185.572,254.118131746
185.587,254.227901479
185.602,254.337100055
185.617,254.445730401
185.632,254.553795446
185.647,254.66129807
185.662,254.768241207
185.677,254.874627736
185.692,254.980460552
185.707,255.085742544
185.722,255.190476591
185.737,255.294665548
185.752,255.398312293
185.767,255.50141966
185.782,255.603990524
185.797,255.706027722
185.812,255.807534069
185.827,255.908512413
185.842,256.008965568
185.857,256.108896342
185.872,256.208307543
185.887,256.307201976
185.902,256.405582426
185.917,256.503451667
185.932,256.600812481
185.947,256.697667651
185.96,256.781201898
185.962,256.794019914
185.977,256.889872041
185.992,256.985226762
186.007,257.080086825
186.022,257.174454949
186.037,257.268333865
186.052,257.361726273
186.06,257.411337572
186.067,257.454634887
186.082,257.547062404
186.097,257.639011514
186.112,257.730484876
186.127,257.821485186
186.142,257.912015106
186.157,258.002077275
186.172,258.091674357
186.187,258.180808967
186.202,258.26948375
186.217,258.357701328
186.232,258.445464298
186.247,258.532775276
186.262,258.619636854
186.277,258.706051603
186.292,258.792022125
186.307,258.877550948
186.322,258.962640657
186.337,259.047293789
186.352,259.131512894
186.367,259.215300487
186.382,259.298659101
186.397,259.38159122
186.412,259.464099373
186.427,259.546186034
186.442,259.627853688
186.457,259.709104812
186.472,259.789941858
186.487,259.870367285
186.502,259.950383524
186.517,260.029993018
186.532,260.109198176
186.547,260.18800142
186.562,260.266405146
186.577,260.34441175
186.592,260.422023605
186.607,260.499243086
186.622,260.576072545
186.637,260.652514339
186.652,260.728570802
186.667,260.804244265
186.682,260.879537041
186.697,260.954451439
186.71,261.019072956
186.712,261.028989752
186.727,261.103154282
186.742,261.176947288
186.757,261.250371036
186.772,261.323427774
186.787,261.39611974
186.802,261.468449193
186.817,261.540418324
186.832,261.612029351
186.847,261.683284474
186.862,261.754185877
186.877,261.824735749
186.892,261.894936227
186.907,261.964789492
186.922,262.034297673
186.937,262.103462902
186.952,262.172287302
186.967,262.240772986
186.982,262.308922047
186.997,262.376736561
187.012,262.444218617
187.027,262.511370278
187.042,262.578193592
187.057,262.644690603
187.072,262.710863337
187.087,262.776713812
187.102,262.842244041
187.117,262.907456015
187.132,262.972351725
187.147,263.036933126
187.162,263.101202208
187.177,263.165160904
187.192,263.228811152
187.207,263.292154877
187.222,263.355194023
187.237,263.417930465
187.252,263.480366107
187.267,263.542502822
187.282,263.604342507
187.297,263.665887002
187.312,263.727138158
187.327,263.788097819
187.342,263.848767804
187.357,263.90914994
187.372,263.969246019
187.387,264.02905783
187.402,264.08858717
187.417,264.147835808
187.432,264.2068055
187.447,264.265497991
187.46,264.316141935
187.462,264.323915009
187.477,264.382058312
187.492,264.439929587
187.507,264.497530547
187.522,264.554862891
187.537,264.6119283
187.552,264.668728433
187.567,264.725264961
187.582,264.781539548
187.597,264.837553819
187.612,264.893309408
187.627,264.948807928
187.642,265.004050984
187.657,265.059040184
187.672,265.113777115
187.687,265.168263336
187.702,265.222500431
187.717,265.276489941
187.732,265.330233421
187.747,265.383732403
187.762,265.436988406
187.777,265.490002952
187.792,265.542777537
187.807,265.595313658
187.822,265.647612794
187.837,265.699676426
187.852,265.751506003
187.867,265.803103002
187.882,265.854468848
187.897,265.905604965
187.912,265.956512799
187.927,266.007193756
187.942,266.057649234
187.957,266.107880624
187.972,266.157889322
187.987,266.207676697
188.002,266.257244116
188.017,266.306592924
188.032,266.35572449
188.047,266.404640132
188.062,266.453341176
188.077,266.501828952
188.092,266.550104763
188.107,266.598169901
188.122,266.646025675
188.137,266.693673356
188.152,266.741114207
188.167,266.788349501
188.182,266.835380501
188.197,266.882208439
188.21,266.92262936
188.212,266.928834552
188.227,266.975260076
188.242,267.021486213
188.257,267.067514204
188.272,267.11334522
188.287,267.158980473
188.302,267.20442114
188.317,267.249668397
188.332,267.294723415
188.347,267.339587351
188.362,267.384261353
188.377,267.428746574
188.392,267.473044135
188.407,267.517155175
188.422,267.561080802
188.437,267.604822136
188.452,267.648380273
188.467,267.691756307
188.482,267.734951328
188.497,267.7779664
188.512,267.82080262
188.527,267.863461029
188.542,267.9059427
188.557,267.948248674
188.572,267.990379976
188.587,268.032337652
188.602,268.074122729
188.617,268.115736212
188.632,268.157179128
188.647,268.198452474
188.66,268.234086314
188.662,268.239557249
188.677,268.280494427
188.692,268.321265006
188.707,268.361869949
188.722,268.402310232
188.737,268.44258681
