# 01004 ENAS Ny-Alesund Ii Observations at 12Z 10 Apr 2019
Frequency [GHz],TB
175.31,253.763851882
175.322,253.801881569
175.337,253.84929405
175.352,253.896566575
175.367,253.943697516
175.382,253.990685223
175.397,254.037528124
175.412,254.084224552
175.427,254.130772834
175.442,254.177171396
175.457,254.223418531
175.472,254.269512595
175.487,254.315451901
175.502,254.361234802
175.517,254.406859601
175.532,254.452324629
175.547,254.497628168
175.562,254.542768542
175.577,254.587744061
175.592,254.632552987
175.607,254.677193606
175.622,254.72166422
175.637,254.765963091
175.652,254.810088494
175.667,254.85403868
175.682,254.897811924
175.697,254.941406469
175.712,254.984820566
175.727,255.028052464
175.742,255.071100378
175.757,255.113962571
175.772,255.156637266
175.787,255.199122661
175.802,255.241417016
175.817,255.283518528
175.832,255.325425396
175.847,255.367135836
175.862,255.408648086
175.877,255.449960263
175.892,255.491070655
175.907,255.531977409
175.922,255.572678699
175.937,255.613172739
175.952,255.653457697
175.967,255.693531756
175.982,255.733393093
175.997,255.773039867
176.012,255.812470284
176.027,255.851682467
176.042,255.890674615
176.057,255.929444877
176.072,255.967991395
176.087,256.006312364
176.102,256.044405899
176.117,256.082270209
176.132,256.119903392
176.147,256.157303641
176.162,256.194469086
176.177,256.231397888
176.192,256.268088185
176.207,256.304538129
176.222,256.340745851
176.237,256.376709524
176.252,256.412427283
176.267,256.447897285
176.282,256.483117664
176.297,256.518086563
176.31,256.548188108
176.312,256.55280215
176.327,256.587262554
176.342,256.62146592
176.357,256.655410434
176.372,256.689094199
176.387,256.722515384
176.402,256.75567217
176.417,256.788562676
176.432,256.821185086
176.447,256.853537548
176.46,256.881356589
176.462,256.885618252
176.477,256.917425319
176.492,256.948956927
176.507,256.980211266
176.522,257.0111865
176.537,257.041880825
176.552,257.072292398
176.567,257.102419434
176.582,257.132260065
176.597,257.161812555
176.612,257.191075062
176.627,257.220045807
176.642,257.248722989
176.657,257.277104826
176.672,257.305189542
176.687,257.332975362
176.702,257.360460513
176.717,257.387643242
176.732,257.414521758
176.747,257.441094383
176.762,257.467359309
176.777,257.493314823
176.792,257.518959216
176.807,257.544290748
176.822,257.569307719
176.837,257.594008441
176.852,257.61839119
176.867,257.642454287
176.882,257.666196071
176.897,257.68961485
176.912,257.712708993
176.927,257.73547686
176.942,257.757916785
176.957,257.780027159
176.972,257.801806358
176.987,257.823252779
177.002,257.844364833
177.017,257.86514093
177.032,257.885579527
177.047,257.905679024
177.062,257.925437906
177.077,257.944854623
177.092,257.963927675
177.107,257.98265553
177.122,258.001036702
177.137,258.019069719
177.152,258.036753116
177.167,258.054085426
177.182,258.071065215
177.197,258.087691084
177.21,258.10181277
177.212,258.10396159
177.227,258.119875364
177.242,258.135431031
177.257,258.150627236
177.272,258.165462621
177.287,258.179935873
177.302,258.194045636
177.31,258.201421784
177.317,258.20779067
177.332,258.221169686
177.347,258.234181414
177.362,258.246824616
177.377,258.259098085
177.392,258.271000574
177.407,258.282530954
177.422,258.29368802
177.437,258.304470649
177.452,258.314877683
177.467,258.324908043
177.482,258.334560636
177.497,258.343834364
177.512,258.352728212
177.527,258.361241145
177.542,258.369372164
177.557,258.377120267
177.572,258.384484508
177.587,258.391463938
177.602,258.398057633
177.617,258.40426469
177.632,258.410084266
177.647,258.415515485
177.66,258.419907766
177.662,258.42055752
177.677,258.42520956
177.692,258.429470829
177.707,258.433340559
177.722,258.436818031
177.737,258.439902534
177.752,258.44259335
177.767,258.444889848
177.782,258.446791373
177.797,258.448297346
177.812,258.4494071
177.827,258.450120142
177.842,258.450435913
177.857,258.450353895
177.872,258.449873568
177.887,258.448994521
177.902,258.447716326
177.917,258.446038491
177.932,258.443960722
177.947,258.441482603
177.96,258.4390108
177.962,258.43860381
177.977,258.435324043
177.992,258.431643032
178.007,258.427560494
178.022,258.423076234
178.037,258.418190031
178.052,258.412901735
178.067,258.407211182
178.082,258.401118227
178.097,258.394622827
178.112,258.387724882
178.127,258.380424363
178.142,258.372721233
178.157,258.36461555
178.172,258.356107325
178.187,258.347196615
178.202,258.337883551
178.217,258.328168226
178.232,258.3180508
178.247,258.307531438
178.262,258.296610356
178.277,258.285287763
178.292,258.273563943
178.307,258.261439135
178.322,258.248913668
178.337,258.235987885
178.352,258.222662129
178.367,258.208936778
178.382,258.194812273
178.397,258.180289027
178.41,258.167380025
178.412,258.165367505
178.427,258.150048176
178.442,258.134331581
178.457,258.118218233
178.472,258.10170871
178.487,258.084803577
178.502,258.067503458
178.517,258.049808986
178.532,258.031720805
178.547,258.013239584
178.562,257.99436604
178.577,257.975100894
178.592,257.955444903
178.607,257.935398824
178.622,257.914963443
178.637,257.894139581
178.652,257.872928046
178.667,257.851329716
178.682,257.829345438
178.697,257.806976127
178.712,257.784222684
178.727,257.761086033
178.742,257.737567136
178.757,257.713666935
178.772,257.68938642
178.787,257.664726587
178.802,257.639688459
178.817,257.61427307
178.832,257.588481459
178.847,257.5623147
178.862,257.535773837
178.877,257.508860002
178.892,257.481574272
178.907,257.453917751
178.922,257.425891572
178.937,257.397496899
178.952,257.368734836
178.967,257.339606592
178.982,257.310113301
178.997,257.280256145
179.012,257.250036309
179.027,257.219454988
179.042,257.188513404
179.057,257.15721272
179.072,257.125554177
179.087,257.093538995
179.102,257.06116836
179.117,257.028443534
179.132,256.995365732
179.147,256.961936179
179.16,256.932680312
179.162,256.928156099
179.177,256.894026718
179.192,256.859549292
179.207,256.824725035
179.222,256.789555176
179.237,256.754040942
179.252,256.718183545
179.267,256.681984217
179.282,256.645444158
179.297,256.608564613
179.312,256.57134673
179.327,256.533791744
179.342,256.495900831
179.357,256.457675173
179.372,256.419115925
179.387,256.380224287
179.402,256.34100134
179.417,256.301448284
179.432,256.261566213
179.447,256.22135627
179.462,256.180819529
179.477,256.139957068
179.492,256.098769967
179.507,256.057259284
179.522,256.015426049
179.537,255.973271281
179.552,255.930795981
179.567,255.88800114
179.582,255.844887714
179.597,255.801456626
179.612,255.757708824
179.627,255.713645184
179.642,255.669266607
179.657,255.624573917
179.672,255.579567975
179.687,255.534249571
179.702,255.488619485
179.717,255.442678465
179.732,255.396427254
179.747,255.34986654
179.762,255.302997011
179.777,255.255819288
179.792,255.208334034
179.807,255.160541786
179.822,255.112443144
179.837,255.064038608
179.852,255.015328681
179.867,254.966313852
179.882,254.916994537
179.897,254.867371145
179.91,254.824118524
179.912,254.817444046
179.927,254.767213578
179.942,254.716680051
179.957,254.665843741
179.972,254.614704858
179.987,254.563263645
180.002,254.51152025
180.017,254.459474815
180.032,254.407127432
180.047,254.354478182
180.062,254.301527085
180.077,254.248274137
180.092,254.194719302
180.107,254.140862502
180.122,254.086703609
180.137,254.03224249
180.152,253.977478948
180.167,253.922412783
180.182,253.867043727
180.197,253.8113715
180.212,253.75539574
180.227,253.699116124
180.242,253.642532232
180.257,253.585643638
180.272,253.528449848
180.287,253.470950397
180.302,253.413144704
180.317,253.355032236
180.332,253.296612365
180.347,253.237884451
180.362,253.178847809
180.377,253.119501746
180.392,253.059845495
180.407,252.999878308
180.422,252.93959937
180.437,252.879007848
180.452,252.818102878
180.467,252.756883549
180.482,252.695348931
180.497,252.633498089
180.512,252.571330022
180.527,252.508843732
180.542,252.446038174
180.557,252.382912286
180.56,252.370248573
180.572,252.319464965
180.587,252.255695132
180.602,252.191601615
180.617,252.12718327
180.632,252.062438911
180.647,251.997367339
180.66,251.940706363
180.662,251.931967344
180.677,251.866237676
180.692,251.800177088
180.707,251.733784293
180.722,251.667058024
180.737,251.599996971
180.752,251.532599815
180.767,251.464865251
180.782,251.396791944
180.797,251.328378497
180.812,251.25962365
180.827,251.190525986
180.842,251.121084171
180.857,251.051296845
180.872,250.981162635
180.887,250.910680182
180.902,250.839848138
180.917,250.768665159
180.932,250.697129867
180.947,250.625240934
180.962,250.552997049
180.977,250.480396882
180.992,250.40743911
181.007,250.334122471
181.022,250.26044568
181.037,250.186407506
181.052,250.112006679
181.067,250.037242041
181.082,249.96211238
181.097,249.88661656
181.112,249.810753477
181.127,249.734522029
181.142,249.657921166
181.157,249.580949898
181.172,249.503607237
181.187,249.425892274
181.202,249.347804155
181.217,249.269342027
181.232,249.190505133
181.247,249.11129274
181.262,249.031704198
181.277,248.951738947
181.292,248.871396407
181.307,248.790676167
181.31,248.774486758
181.322,248.709577812
181.337,248.628101053
181.352,248.546245636
181.367,248.464011426
181.382,248.381398384
181.397,248.298406515
181.412,248.215035947
181.427,248.131286903
181.442,248.047159739
181.457,247.962654867
181.472,247.877772841
181.487,247.792514312
181.502,247.706880091
181.517,247.620871073
181.532,247.53448832
181.547,247.447732963
181.562,247.360606381
181.577,247.273109994
181.592,247.185245415
181.607,247.09701445
181.622,247.008419019
181.637,246.919461216
181.652,246.830143322
181.667,246.7404678
181.682,246.650437289
181.697,246.56005461
181.712,246.469322836
181.727,246.378245158
181.742,246.286825075
181.757,246.195066212
181.772,246.102972518
181.787,246.010548107
181.802,245.917797318
181.817,245.82472483
181.832,245.73133548
181.847,245.637634414
181.862,245.543627087
181.877,245.449319147
181.892,245.354716623
181.907,245.259825755
181.922,245.16465314
181.937,245.069205729
181.952,244.973490672
181.967,244.877515581
181.982,244.78128835
181.997,244.684817241
182.012,244.588110851
182.027,244.491178165
182.042,244.394028548
182.057,244.296671758
182.06,244.277176431
182.072,244.199117958
182.087,244.10137769
182.102,244.003461953
182.117,243.905382143
182.132,243.807150121
182.147,243.708778167
182.162,243.610279061
182.177,243.511666003
182.192,243.412952677
182.207,243.314153282
182.222,243.215282501
182.237,243.116355507
182.252,243.017387989
182.267,242.918396144
182.282,242.819396702
182.297,242.720406952
182.312,242.621444674
182.327,242.52252823
182.342,242.423676488
182.357,242.324908902
182.372,242.226245464
182.387,242.127706712
182.402,242.029313751
182.417,241.931088201
182.432,241.833052277
182.447,241.735228651
182.462,241.637640622
182.477,241.540311919
182.492,241.443266811
182.507,241.346530018
182.522,241.250126749
182.537,241.154082634
182.552,241.058423687
182.567,240.963176293
182.582,240.86836714
182.597,240.774023199
182.612,240.680171625
182.627,240.586839704
182.642,240.494054803
182.657,240.401844227
182.672,240.310235164
182.687,240.219254517
182.702,240.128928792
182.717,240.039283949
182.732,239.950345178
182.747,239.862136731
182.762,239.774681662
182.777,239.688001525
182.792,239.60211607
182.807,239.517042858
182.822,239.432796815
182.837,239.349389689
182.852,239.266829473
182.867,239.185119684
182.882,239.104258469
182.897,239.02423761
182.912,238.9450413
182.927,238.866644705
182.942,238.789012116
182.957,238.712094836
182.972,238.635828445
182.987,238.560129585
183.002,238.484891789
183.017,238.409980276
183.032,238.335225485
183.047,238.260414578
183.062,238.185280766
183.077,238.109489019
183.092,238.032617659
183.107,237.954133545
183.122,237.873358989
183.137,237.789426998
183.152,237.701220465
183.167,237.607289923
183.182,237.505744442
183.197,237.39411394
183.212,237.269200618
183.227,237.127001588
183.242,236.962992322
183.257,236.773679557
183.367,236.809835169
183.382,236.989051235
183.397,237.143597591
183.412,237.277505459
183.427,237.395231528
183.442,237.500574889
183.457,237.596533902
183.472,237.685416083
183.487,237.768987546
183.502,237.848603681
183.517,237.925310927
183.532,237.999922967
183.547,238.07307691
183.562,238.145274776
183.577,238.216914126
183.592,238.288311079
183.607,238.359717554
183.622,238.431334479
183.637,238.503321903
183.652,238.575806863
183.667,238.648889597
183.682,238.722648326
183.697,238.797143199
183.712,238.872419471
183.727,238.948509914
183.742,239.025437008
183.757,239.103214526
183.772,239.181848999
183.787,239.261340905
183.802,239.34168556
183.817,239.422874022
183.832,239.504893715
183.847,239.587729052
183.862,239.671361949
183.877,239.75577221
183.892,239.840937931
183.907,239.92683581
183.922,240.013441357
183.937,240.100729257
183.952,240.188673441
183.967,240.277247353
183.982,240.366424066
183.997,240.456176413
184.012,240.546477115
184.027,240.637298927
184.042,240.728614598
184.057,240.8203971
184.072,240.91261959
184.087,241.005255514
184.102,241.098278663
184.117,241.191663141
184.132,241.285383506
184.147,241.379414748
184.162,241.473732305
184.177,241.568312091
184.192,241.663130554
184.207,241.758164618
184.222,241.853391791
184.237,241.948790049
184.252,242.04433796
184.267,242.140014613
184.282,242.235799654
184.297,242.331673316
184.312,242.427616294
184.327,242.523609933
184.342,242.619636009
184.357,242.715676971
184.372,242.811715674
184.387,242.907735585
184.402,243.003720642
184.417,243.099655339
184.432,243.195524664
184.447,243.291314048
184.462,243.387009497
184.477,243.482597453
184.492,243.578064832
184.507,243.673398992
184.522,243.768587779
184.537,243.863619477
184.552,243.958482774
184.56,244.009003922
184.567,244.053166833
184.582,244.147661163
184.597,244.241955735
184.612,244.336040857
184.627,244.42990729
184.642,244.523546124
184.657,244.616948818
184.672,244.710107176
184.687,244.803013404
184.702,244.895659965
184.717,244.988039725
184.732,245.080145796
184.747,245.171971676
184.762,245.263511072
184.777,245.354758093
184.792,245.445707056
184.807,245.536352562
184.822,245.626689499
184.837,245.716713012
184.852,245.806418489
184.867,245.895801574
184.882,245.984858137
184.897,246.073584287
184.912,246.161976323
184.927,246.250030832
184.942,246.337744535
184.957,246.425114399
184.972,246.512137561
184.987,246.598811376
185.002,246.685133341
185.017,246.771101201
185.032,246.85671277
185.047,246.941966147
185.062,247.026859476
185.077,247.111391131
185.092,247.195559608
185.107,247.279363575
185.122,247.362801786
185.137,247.445873161
185.152,247.528576768
185.167,247.610911768
185.182,247.692877462
185.197,247.774473232
185.212,247.855698642
185.227,247.936553279
185.242,248.017036882
185.257,248.097149313
185.272,248.176890459
185.287,248.256260338
185.302,248.335259074
185.31,248.377240034
185.317,248.413886848
185.332,248.492143931
185.347,248.570030666
185.362,248.647547475
185.377,248.724694845
185.392,248.80147335
185.407,248.877883587
185.422,248.95392627
185.437,249.029602131
185.452,249.104911978
185.467,249.179856633
185.482,249.254437053
185.497,249.328654148
185.512,249.402508931
185.527,249.476002433
185.542,249.54913576
185.557,249.621909989
185.572,249.694326326
185.587,249.766385904
185.602,249.838089997
185.617,249.909439818
185.632,249.980436669
185.647,250.051081831
185.662,250.121376658
185.677,250.191322463
185.692,250.260920638
185.707,250.330172557
185.722,250.39907964
185.737,250.467643285
185.752,250.535864932
185.767,250.603746008
185.782,250.671287973
185.797,250.738492299
185.812,250.805360431
185.827,250.871893848
185.842,250.938094036
185.857,251.003962465
185.872,251.069500601
185.887,251.134709956
185.902,251.199591981
185.917,251.264148159
185.932,251.328379971
185.947,251.392288885
185.96,251.447416548
185.962,251.455876356
185.977,251.519143862
185.992,251.582092808
186.007,251.644724679
186.022,251.707040875
186.037,251.769042841
186.052,251.830731977
186.06,251.863505398
186.067,251.892109653
186.082,251.953177287
186.097,252.013936241
186.112,252.074387857
186.127,252.134533481
186.142,252.194374452
186.157,252.253912038
186.172,252.313147562
186.187,252.372082298
186.202,252.430717452
186.217,252.489054316
186.232,252.547094062
186.247,252.604837909
186.262,252.662287
186.277,252.719442509
186.292,252.776305553
186.307,252.83287725
186.322,252.889158685
186.337,252.945150893
186.352,253.000854958
186.367,253.056271841
186.382,253.111402567
186.397,253.166248087
186.412,253.220809344
186.427,253.275087267
186.442,253.329082747
186.457,253.382796626
186.472,253.43622978
186.487,253.489382996
186.502,253.542257077
186.517,253.594852792
186.532,253.647170875
186.547,253.699212021
186.562,253.750976951
186.577,253.802466296
186.592,253.853680706
186.607,253.904620785
186.622,253.955287119
186.637,254.005680258
186.652,254.055800745
186.667,254.105649066
186.682,254.155225714
186.697,254.204531137
186.71,254.247043441
186.712,254.253565763
186.727,254.302329996
186.742,254.350824219
186.757,254.399048772
186.772,254.447003978
186.787,254.494690151
186.802,254.54210757
186.817,254.589256479
186.832,254.636137111
186.847,254.682749673
186.862,254.72909433
186.877,254.775171288
186.892,254.820980611
186.907,254.866522461
186.922,254.911796907
186.937,254.956804037
186.952,255.001543874
186.967,255.046016454
186.982,255.09022178
186.997,255.13415982
187.012,255.177830569
187.027,255.221233931
187.042,255.264369829
187.057,255.307238205
187.072,255.349838908
187.087,255.392171807
187.102,255.434236746
187.117,255.47603358
187.132,255.517562103
187.147,255.558822127
187.162,255.599813385
187.177,255.640535696
187.192,255.680988783
187.207,255.72117237
187.222,255.761086197
187.237,255.800729939
187.252,255.840103322
187.267,255.879205993
187.282,255.918037635
187.297,255.956597909
187.312,255.994886415
187.327,256.032902818
187.342,256.070646739
187.357,256.108117783
187.372,256.145315526
187.387,256.182239582
187.402,256.218889517
187.417,256.255264914
187.432,256.291365331
187.447,256.32719033
187.46,256.358015534
187.462,256.362739467
187.477,256.398012263
187.492,256.433008277
187.507,256.467727045
187.522,256.502168071
187.537,256.536330902
187.552,256.570215061
187.567,256.603820042
187.582,256.637145356
187.597,256.670190543
187.612,256.702955075
187.627,256.735438485
187.642,256.767640278
187.657,256.799559952
187.672,256.831196987
187.687,256.862550938
187.702,256.893621268
187.717,256.924407509
187.732,256.95490915
187.747,256.985125707
187.762,257.01505669
187.777,257.044701623
187.792,257.074060026
187.807,257.103131405
187.822,257.131915278
187.837,257.160411202
187.852,257.188618707
187.867,257.216537314
187.882,257.244166587
187.897,257.271506078
187.912,257.298555333
187.927,257.325313904
187.942,257.351781382
187.957,257.377957347
187.972,257.403841373
187.987,257.429433063
188.002,257.454732023
188.017,257.479737848
188.032,257.504450177
188.047,257.5288686
188.062,257.552992835
188.077,257.576822434
188.092,257.600357126
188.107,257.623596536
188.122,257.646540383
188.137,257.669188337
188.152,257.691540097
188.167,257.71359538
188.182,257.735353908
188.197,257.756815424
188.21,257.775174956
188.212,257.777979675
188.227,257.798846419
188.242,257.819415433
188.257,257.839686505
188.272,257.859659427
188.287,257.879334003
188.302,257.898710083
188.317,257.917787502
188.332,257.93656609
188.347,257.955045723
188.362,257.973226297
188.377,257.991107704
188.392,258.008689847
188.407,258.025972635
188.422,258.042956007
188.437,258.059639965
188.452,258.076024397
188.467,258.09210936
188.482,258.107894778
188.497,258.123380726
188.512,258.138567211
188.527,258.153454259
188.542,258.168041924
188.557,258.182330311
188.572,258.196319476
188.587,258.210009523
188.602,258.223400612
188.617,258.236492813
188.632,258.249286323
188.647,258.261781309
188.66,258.272368931
188.662,258.273977893
188.677,258.28587635
188.692,258.297476862
188.707,258.308779619
188.722,258.31978491
188.737,258.330492985
