# 01004 ENAS Ny-Alesund Ii Observations at 12Z 13 Sep 2019
Frequency [GHz],TB
175.31,267.296976003
175.322,267.282775151
175.337,267.264899855
175.352,267.246886442
175.367,267.228734828
175.382,267.210444928
175.397,267.19201666
175.412,267.173449964
175.427,267.154744741
175.442,267.135900934
175.457,267.116918473
175.472,267.097797287
175.487,267.078537317
175.502,267.059138492
175.517,267.039600764
175.532,267.019924078
175.547,267.000108369
175.562,266.980153589
175.577,266.960059701
175.592,266.939826644
175.607,266.919454377
175.622,266.898942875
175.637,266.87829207
175.652,266.85750196
175.667,266.836572482
175.682,266.815503618
175.697,266.79429533
175.712,266.772947602
175.727,266.751460403
175.742,266.729833715
175.757,266.708067516
175.772,266.686161784
175.787,266.664116499
175.802,266.641931662
175.817,266.619607257
175.832,266.597143261
175.847,266.57453969
175.862,266.551796521
175.877,266.528913757
175.892,266.505891392
175.907,266.482729428
175.922,266.459427887
175.937,266.435986754
175.952,266.412406025
175.967,266.38868573
175.982,266.364825873
175.997,266.340826452
176.012,266.316687511
176.027,266.29240903
176.042,266.267991051
176.057,266.24343358
176.072,266.218736636
176.087,266.193900251
176.102,266.168924439
176.117,266.143809223
176.132,266.118554632
176.147,266.093160689
176.162,266.067627439
176.177,266.041954881
176.192,266.016143069
176.207,265.990192034
176.222,265.964101786
176.237,265.93787239
176.252,265.911503863
176.267,265.884996241
176.282,265.858349552
176.297,265.831563857
176.31,265.808237154
176.312,265.80463917
176.327,265.777575544
176.342,265.750373019
176.357,265.723031621
176.372,265.695551408
176.387,265.667932403
176.402,265.640174659
176.417,265.612278216
176.432,265.58424311
176.447,265.556069388
176.46,265.531540069
176.462,265.527757089
176.477,265.499306262
176.492,265.470716944
176.507,265.441989182
176.522,265.413123004
176.537,265.384118473
176.552,265.354975607
176.567,265.325694474
176.582,265.296275096
176.597,265.266717516
176.612,265.237021784
176.627,265.207187931
176.642,265.177216
176.657,265.147106027
176.672,265.116858047
176.687,265.0864721
176.702,265.055948226
176.717,265.025286454
176.732,264.994486825
176.747,264.963549354
176.762,264.932474094
176.777,264.901261076
176.792,264.869910304
176.807,264.838421828
176.822,264.806795666
176.837,264.775031842
176.852,264.743130376
176.867,264.711091304
176.882,264.67891462
176.897,264.646600366
176.912,264.614148548
176.927,264.581559178
176.942,264.548832268
176.957,264.515967836
176.972,264.482965877
176.987,264.449826395
177.002,264.4165494
177.017,264.383134897
177.032,264.349582869
177.047,264.315893317
177.062,264.282066239
177.077,264.248101616
177.092,264.213999435
177.107,264.179759693
177.122,264.145382345
177.137,264.110867393
177.152,264.076214792
177.167,264.041424531
177.182,264.006496571
177.197,263.971430872
177.21,263.940929159
177.212,263.9362274
177.227,263.900886113
177.242,263.865406955
177.257,263.829789883
177.272,263.79403486
177.287,263.758141794
177.302,263.722110652
177.31,263.702837555
177.317,263.685941353
177.332,263.649633835
177.347,263.613188035
177.362,263.576603843
177.377,263.539881213
177.392,263.503020033
177.407,263.466020226
177.422,263.428881699
177.437,263.391604334
177.452,263.35418804
177.467,263.316632714
177.482,263.278938236
177.497,263.241104479
177.512,263.203131326
177.527,263.165018646
177.542,263.126766313
177.557,263.08837418
177.572,263.049842106
177.587,263.011169931
177.602,262.972357522
177.617,262.933404713
177.632,262.894311324
177.647,262.855077194
177.66,262.820960301
177.662,262.815702141
177.677,262.776185991
177.692,262.736528551
177.707,262.696729629
177.722,262.656789027
177.737,262.616706532
177.752,262.576481939
177.767,262.536115035
177.782,262.495605589
177.797,262.454953361
177.812,262.414158137
177.827,262.373219666
177.842,262.332137701
177.857,262.290911978
177.872,262.249542247
177.887,262.208028233
177.902,262.166369669
177.917,262.124566268
177.932,262.082617741
177.947,262.040523807
177.96,262.00392454
177.962,261.998284151
177.977,261.955898471
177.992,261.913366462
178.007,261.870687772
178.022,261.827862114
178.037,261.784889135
178.052,261.741768476
178.067,261.698499809
178.082,261.655082777
178.097,261.611517003
178.112,261.567802124
178.127,261.523937773
178.142,261.479923551
178.157,261.435759062
178.172,261.391443915
178.187,261.346977708
178.202,261.302360006
178.217,261.25759041
178.232,261.212668484
178.247,261.167593776
178.262,261.122365866
178.277,261.076984276
178.292,261.031448563
178.307,260.985758248
178.322,260.939912864
178.337,260.893911925
178.352,260.847754938
178.367,260.801441402
178.382,260.754970815
178.397,260.708342656
178.41,260.667803731
178.412,260.661556412
178.427,260.61461154
178.442,260.567507508
178.457,260.520243764
178.472,260.472819764
178.487,260.425234927
178.502,260.377488694
178.517,260.329580488
178.532,260.28150971
178.547,260.233275774
178.562,260.184878065
178.577,260.136315973
178.592,260.087588891
178.607,260.038696164
178.622,259.989637173
178.637,259.940411267
178.652,259.891017791
178.667,259.841456082
178.682,259.791725466
178.697,259.741825257
178.712,259.691754779
178.727,259.641513325
178.742,259.591100191
178.757,259.540514658
178.772,259.489756009
178.787,259.438823504
178.802,259.387716402
178.817,259.336433956
178.832,259.284975405
178.847,259.233339993
178.862,259.181526919
178.877,259.129535413
178.892,259.07736467
178.907,259.025013897
178.922,258.972482286
178.937,258.919768993
178.952,258.866873206
178.967,258.813794068
178.982,258.760530743
178.997,258.707082371
179.012,258.653448084
179.027,258.599626993
179.042,258.545618216
179.057,258.49142087
179.072,258.437034037
179.087,258.382456798
179.102,258.327688242
179.117,258.272727433
179.132,258.217573416
179.147,258.162225256
179.16,258.114099049
179.162,258.106681965
179.177,258.050942604
179.192,257.995006159
179.207,257.938871663
179.222,257.882538103
179.237,257.826004473
179.252,257.769269756
179.267,257.712332897
179.282,257.655192892
179.297,257.597848668
179.312,257.540299172
179.327,257.482543327
179.342,257.42458006
179.357,257.366408282
179.372,257.308026896
179.387,257.249434777
179.402,257.190630819
179.417,257.131613887
179.432,257.072382838
179.447,257.012936528
179.462,256.953273794
179.477,256.893393459
179.492,256.833294342
179.507,256.772975266
179.522,256.712435004
179.537,256.651672367
179.552,256.590686119
179.567,256.529475029
179.582,256.468037858
179.597,256.406373343
179.612,256.344480234
179.627,256.282357245
179.642,256.220003084
179.657,256.157416478
179.672,256.094596097
179.687,256.031540633
179.702,255.968248758
179.717,255.904719136
179.732,255.840950416
179.747,255.776941235
179.762,255.712690226
179.777,255.648196022
179.792,255.583457206
179.807,255.51847239
179.822,255.453240162
179.837,255.387759103
179.852,255.322027768
179.867,255.256044729
179.882,255.189808512
179.897,255.123317666
179.91,255.06548515
179.912,255.0565707
179.927,254.989566154
179.942,254.922302514
179.957,254.854778271
179.972,254.786991915
179.987,254.718941916
180.002,254.650626732
180.017,254.582044821
180.032,254.513194626
180.047,254.444074573
180.062,254.374683081
180.077,254.305018575
180.092,254.235079433
180.107,254.164864067
180.122,254.09437086
180.137,254.023598176
180.152,253.952544362
180.167,253.881207805
180.182,253.809586829
180.197,253.737679767
180.212,253.665484943
180.227,253.593000681
180.242,253.520225292
180.257,253.447157061
180.272,253.373794286
180.287,253.300135243
180.302,253.226178215
180.317,253.151921454
180.332,253.077363226
180.347,253.002501781
180.362,252.927335346
180.377,252.851862174
180.392,252.776080484
180.407,252.69998849
180.422,252.623584412
180.437,252.546866456
180.452,252.469832825
180.467,252.392481707
180.482,252.314811296
180.497,252.236819772
180.512,252.15850532
180.527,252.079866101
180.542,252.000900293
180.557,251.921606062
180.56,251.905707644
180.572,251.841981566
180.587,251.76202497
180.602,251.681734419
180.617,251.601108065
180.632,251.520144072
180.647,251.438840576
180.66,251.368101499
180.662,251.357195722
180.677,251.275207673
180.692,251.192874558
180.707,251.110194536
180.722,251.027165744
180.737,250.943786329
180.752,250.860054454
180.767,250.775968255
180.782,250.691525908
180.797,250.606725556
180.812,250.521565361
180.827,250.436043494
180.842,250.350158136
180.857,250.263907477
180.872,250.177289674
180.887,250.090302947
180.902,250.002945489
180.917,249.915215519
180.932,249.827111263
180.947,249.738630945
180.962,249.649772822
180.977,249.560535155
180.992,249.470916212
181.007,249.380914289
181.022,249.290527699
181.037,249.199754757
181.052,249.108593807
181.067,249.017043218
181.082,248.925101362
181.097,248.83276665
181.112,248.740037512
181.127,248.646912413
181.142,248.553389813
181.157,248.459468243
181.172,248.365146221
181.187,248.270422331
181.202,248.175295175
181.217,248.079763388
181.232,247.983825638
181.247,247.887480644
181.262,247.79072716
181.277,247.693563972
181.292,247.595989913
181.307,247.498003889
181.31,247.478357153
181.322,247.39960482
181.337,247.300791681
181.352,247.201563531
181.367,247.101919448
181.382,247.001858598
181.397,246.901380194
181.412,246.80048351
181.427,246.699167887
181.442,246.597432755
181.457,246.495277606
181.472,246.392702004
181.487,246.289705602
181.502,246.186288127
181.517,246.082449414
181.532,245.978189374
181.547,245.873508024
181.562,245.768405472
181.577,245.662881957
181.592,245.556937798
181.607,245.450573441
181.622,245.343789464
181.637,245.236586573
181.652,245.128965581
181.667,245.020927476
181.682,244.91247336
181.697,244.803604512
181.712,244.694322357
181.727,244.58462849
181.742,244.474524687
181.757,244.36401289
181.772,244.253095253
181.787,244.141774117
181.802,244.030052041
181.817,243.917931785
181.832,243.805416367
181.847,243.692509024
181.862,243.579213254
181.877,243.465532832
181.892,243.351471765
181.907,243.237034395
181.922,243.12222536
181.937,243.007049585
181.952,242.891512358
181.967,242.775619305
181.982,242.659376418
181.997,242.542790067
182.012,242.425867009
182.027,242.308614446
182.042,242.191040017
182.057,242.07315178
182.06,242.049537228
182.072,241.95495833
182.087,241.836468709
182.102,241.717692525
182.117,241.598639916
182.132,241.479321624
182.147,241.359748943
182.162,241.239933846
182.177,241.119888949
182.192,240.999627548
182.207,240.879163671
182.222,240.758512099
182.237,240.637688397
182.252,240.516708961
182.267,240.395591027
182.282,240.27435275
182.297,240.153013211
182.312,240.031592463
182.327,239.910111569
182.342,239.788592672
182.357,239.667059016
182.372,239.545534963
182.387,239.424046125
182.402,239.30261931
182.417,239.181282633
182.432,239.060065535
182.447,238.93899889
182.462,238.818114975
182.477,238.697447556
182.492,238.577031982
182.507,238.456905164
182.522,238.33710567
182.537,238.217673775
182.552,238.098651515
182.567,237.980082712
182.582,237.862013047
182.597,237.744490116
182.612,237.627563448
182.627,237.511284586
182.642,237.39570709
182.657,237.280886615
182.672,237.166880919
182.687,237.053749916
182.702,236.94155569
182.717,236.830362515
182.732,236.720236903
182.747,236.611247577
182.762,236.503465499
182.777,236.396963871
182.792,236.291818112
182.807,236.188105845
182.822,236.085906883
182.837,235.985303171
182.852,235.886378734
182.867,235.789219666
182.882,235.693913999
182.897,235.60055167
182.912,235.509224386
182.927,235.420025518
182.942,235.333050028
182.957,235.248394223
182.972,235.1661557
182.987,235.086433098
183.002,235.009325894
183.017,234.934934194
183.032,234.863358473
183.047,234.79469927
183.062,234.729056864
183.077,234.666530928
183.092,234.607220105
183.107,234.551221556
183.122,234.498630479
183.137,234.449539537
183.152,234.404038263
183.167,234.362212421
183.182,234.324143335
183.197,234.289907113
183.212,234.259573971
183.227,234.23320744
183.242,234.210863669
183.257,234.192590725
183.367,234.185272229
183.382,234.201532115
183.397,234.221850862
183.412,234.246178175
183.427,234.274455863
183.442,234.306618537
183.457,234.342594335
183.472,234.382305668
183.487,234.425669962
183.502,234.472600366
183.517,234.523006445
183.532,234.576794797
183.547,234.633869637
183.562,234.694133358
183.577,234.757486977
183.592,234.823830644
183.607,234.893063941
183.622,234.965086306
183.637,235.039797347
183.652,235.11709708
183.667,235.196886217
183.682,235.279066362
183.697,235.363540248
183.712,235.450211869
183.727,235.538986679
183.742,235.629771706
183.757,235.722475678
183.772,235.817009141
183.787,235.91328453
183.802,236.011216283
183.817,236.110720868
183.832,236.211716877
183.847,236.314125045
183.862,236.417868272
183.877,236.522871716
183.892,236.629062701
183.907,236.736370821
183.922,236.844727912
183.937,236.954067992
183.952,237.064327326
183.967,237.175444366
183.982,237.28735972
183.997,237.400016155
184.012,237.513358513
184.027,237.627333746
184.042,237.741890793
184.057,237.856980588
184.072,237.972556038
184.087,238.088571886
184.102,238.204984755
184.117,238.321753059
184.132,238.438836953
184.147,238.556198253
184.162,238.673800457
184.177,238.791608613
184.192,238.90958932
184.207,239.027710667
184.222,239.145942154
184.237,239.264254684
184.252,239.382620456
184.267,239.50101299
184.282,239.619407017
184.297,239.737778448
184.312,239.856104365
184.327,239.974362903
184.342,240.092533287
184.357,240.210595732
184.372,240.328531413
184.387,240.446322451
184.402,240.563951854
184.417,240.681403474
184.432,240.798661976
184.447,240.915712817
184.462,241.032542196
184.477,241.149137028
184.492,241.265484922
184.507,241.381574115
184.522,241.497393499
184.537,241.612932542
184.552,241.728181295
184.56,241.789525335
184.567,241.843130359
184.582,241.957770838
184.597,242.072094349
184.612,242.186092988
184.627,242.299759293
184.642,242.413086243
184.657,242.526067236
184.672,242.638696045
184.687,242.750966842
184.702,242.86287415
184.717,242.97441285
184.732,243.085578131
184.747,243.196365497
184.762,243.306770782
184.777,243.416790056
184.792,243.526419708
184.807,243.635656352
184.822,243.744496889
184.837,243.852938407
184.852,243.96097827
184.867,244.068614037
184.882,244.175843449
184.897,244.282664495
184.912,244.389075316
184.927,244.49507424
184.942,244.600659768
184.957,244.705830576
184.972,244.81058547
184.987,244.914923444
185.002,245.018843588
185.017,245.122345168
185.032,245.225427562
185.047,245.32809028
185.062,245.430332938
185.077,245.532155277
185.092,245.633557143
185.107,245.734538488
185.122,245.835099362
185.137,245.935239898
185.152,246.034960336
185.167,246.134261
185.182,246.233142287
185.197,246.33160467
185.212,246.429648718
185.227,246.527275049
185.242,246.624484358
185.257,246.721277398
185.272,246.817655007
185.287,246.913618054
185.302,247.009167476
185.31,247.059958383
185.317,247.104304273
185.332,247.199029478
185.347,247.293344192
185.362,247.387249547
185.377,247.480746729
185.392,247.573836965
185.407,247.666521525
185.422,247.7588017
185.437,247.850678841
185.452,247.942154316
185.467,248.033229537
185.482,248.123905941
185.497,248.214184996
185.512,248.304068187
185.527,248.393557061
185.542,248.482653146
185.557,248.571358025
185.572,248.659673271
185.587,248.747600511
185.602,248.835141386
185.617,248.922297533
185.632,249.009070639
185.647,249.09546237
185.662,249.181474443
185.677,249.267108566
185.692,249.352366476
185.707,249.437249892
185.722,249.521760585
185.737,249.605900306
185.752,249.689670839
185.767,249.773073952
185.782,249.856111449
185.797,249.938785111
185.812,250.02109674
185.827,250.103048161
185.842,250.184641167
185.857,250.265877577
185.872,250.346759229
185.887,250.427287927
185.902,250.507465501
185.917,250.587293797
185.932,250.666774627
185.947,250.74590982
185.96,250.8142155
185.962,250.824701219
185.977,250.90315065
185.992,250.981259945
186.007,251.059030924
186.022,251.136465423
186.037,251.213565267
186.052,251.290332285
186.06,251.331139233
186.067,251.36676829
186.082,251.442875104
186.097,251.518654536
186.112,251.594108407
186.127,251.669238506
186.142,251.744046653
186.157,251.818534641
186.172,251.892704255
186.187,251.966557292
186.202,252.040095525
186.217,252.113320734
186.232,252.186234698
186.247,252.258839164
186.262,252.331135886
186.277,252.403126635
186.292,252.474813143
186.307,252.54619714
186.322,252.617280368
186.337,252.688064535
186.352,252.758551372
186.367,252.82874256
186.382,252.898639818
186.397,252.968244827
186.412,253.037559272
186.427,253.106584821
186.442,253.175323143
186.457,253.243775899
186.472,253.311944716
186.487,253.379831255
186.502,253.447437134
186.517,253.514763974
186.532,253.581813389
186.547,253.64858699
186.562,253.715086346
186.577,253.781313062
186.592,253.847268706
186.607,253.912954838
186.622,253.978373013
186.637,254.043524787
186.652,254.108411685
186.667,254.173035244
186.682,254.237396965
186.697,254.301498371
186.71,254.356843501
186.712,254.365340946
186.727,254.428926194
186.742,254.492255576
186.757,254.555330565
186.772,254.618152617
186.787,254.680723187
186.802,254.743043717
186.817,254.805115622
186.832,254.86694032
186.847,254.928519234
186.862,254.989853757
186.877,255.05094527
186.892,255.11179517
186.907,255.172404803
186.922,255.232775546
186.937,255.292908746
186.952,255.352805737
186.967,255.412467853
186.982,255.47189641
186.997,255.531092728
187.012,255.590058104
187.027,255.648793823
187.042,255.707301183
187.057,255.765581431
187.072,255.823635846
187.087,255.881465679
187.102,255.939072171
187.117,255.996456557
187.132,256.053620056
187.147,256.110563899
187.162,256.167289273
187.177,256.223797387
187.192,256.280089415
187.207,256.336166545
187.222,256.392029935
187.237,256.447680754
187.252,256.503120149
187.267,256.558349263
187.282,256.613369218
187.297,256.668181147
187.312,256.722786152
187.327,256.777185351
187.342,256.831379831
187.357,256.885370671
187.372,256.93915897
187.387,256.992745781
187.402,257.046132167
187.417,257.099319183
187.432,257.152307869
187.447,257.205099268
187.46,257.250693006
187.462,257.257694386
187.477,257.310094261
187.492,257.36229989
187.507,257.414312272
187.522,257.46613241
187.537,257.517761283
187.552,257.56919986
187.567,257.620449118
187.582,257.671510003
187.597,257.722383485
187.612,257.773070492
187.627,257.823571954
187.642,257.873888813
187.657,257.924021988
187.672,257.973972375
187.687,258.023740889
187.702,258.073328419
187.717,258.12273586
187.732,258.171964081
187.747,258.22101396
187.762,258.26988637
187.777,258.318582159
187.792,258.36710217
187.807,258.41544726
187.822,258.463618249
187.837,258.511615972
187.852,258.559441259
187.867,258.607094906
187.882,258.654577727
187.897,258.701890515
187.912,258.749034069
187.927,258.796009162
187.942,258.842816575
187.957,258.889457094
187.972,258.93593145
187.987,258.982240431
188.002,259.028384767
188.017,259.074365198
188.032,259.120182478
188.047,259.165837317
188.062,259.21133045
188.077,259.256662583
188.092,259.301834432
188.107,259.346846691
188.122,259.391700066
188.137,259.436395235
188.152,259.48093289
188.167,259.525313702
188.182,259.569538347
188.197,259.613607477
188.21,259.651675454
188.212,259.657521764
188.227,259.701281848
188.242,259.744888379
188.257,259.788341988
188.272,259.831643326
188.287,259.874792998
188.302,259.917791637
188.317,259.960639852
188.332,260.003338254
188.347,260.045887453
188.362,260.088288035
188.377,260.13054059
188.392,260.172645713
188.407,260.214603973
188.422,260.256415951
188.437,260.298082211
188.452,260.339603325
188.467,260.380979837
188.482,260.422212304
188.497,260.463301266
188.512,260.504247276
188.527,260.545050862
188.542,260.585712547
188.557,260.626232861
188.572,260.666612314
188.587,260.706851441
188.602,260.746950732
188.617,260.78691069
188.632,260.826731822
188.647,260.866414622
188.66,260.900694857
188.662,260.905959564
188.677,260.945367148
188.692,260.984637838
188.707,261.023772113
188.722,261.062770432
188.737,261.101633263
