# 78954 TBPB Grantley Adams Observations at 12Z 28 Mar 2019
Frequency [GHz],TB
175.31,287.050579736
175.322,287.041377248
175.337,287.029818789
175.352,287.018198902
175.367,287.006517665
175.382,286.994775154
175.397,286.982971447
175.412,286.971106625
175.427,286.959180765
175.442,286.947193948
175.457,286.935146254
175.472,286.923037762
175.487,286.910868556
175.502,286.898638716
175.517,286.886348324
175.532,286.873997463
175.547,286.861586214
175.562,286.849114661
175.577,286.836582888
175.592,286.823990977
175.607,286.811339012
175.622,286.798627078
175.637,286.785855257
175.652,286.773023635
175.667,286.760132295
175.682,286.747181321
175.697,286.734170799
175.712,286.721100811
175.727,286.707971444
175.742,286.694782781
175.757,286.681534905
175.772,286.668227901
175.787,286.654861853
175.802,286.641436845
175.817,286.62795296
175.832,286.614410281
175.847,286.600808891
175.862,286.587148873
175.877,286.573430308
175.892,286.55965328
175.907,286.545817868
175.922,286.531924155
175.937,286.517972219
175.952,286.503962142
175.967,286.489894003
175.982,286.47576788
175.997,286.46158385
176.012,286.447341993
176.027,286.433042383
176.042,286.418685097
176.057,286.40427021
176.072,286.389797797
176.087,286.375267929
176.102,286.36068068
176.117,286.34603612
176.132,286.331334322
176.147,286.316575352
176.162,286.301759281
176.177,286.286886174
176.192,286.271956099
176.207,286.256969118
176.222,286.241925296
176.237,286.226824696
176.252,286.211667377
176.267,286.196453399
176.282,286.18118282
176.297,286.165855698
176.31,286.152526495
176.312,286.150472085
176.327,286.135032037
176.342,286.119535604
176.357,286.103982837
176.372,286.088373785
176.387,286.072708494
176.402,286.056987009
176.417,286.041209373
176.432,286.025375627
176.447,286.009485811
176.46,285.995669312
176.462,285.993539963
176.477,285.977538116
176.492,285.961480306
176.507,285.945366562
176.522,285.929196914
176.537,285.912971389
176.552,285.896690012
176.567,285.880352804
176.582,285.863959785
176.597,285.847510974
176.612,285.831006384
176.627,285.81444603
176.642,285.797829921
176.657,285.781158065
176.672,285.764430465
176.687,285.747647126
176.702,285.730808046
176.717,285.713913221
176.732,285.696962647
176.747,285.679956314
176.762,285.662894209
176.777,285.645776319
176.792,285.628602626
176.807,285.611373107
176.822,285.594087741
176.837,285.576746498
176.852,285.55934935
176.867,285.541896261
176.882,285.524387196
176.897,285.506822114
176.912,285.48920097
176.927,285.471523719
176.942,285.453790308
176.957,285.436000685
176.972,285.418154789
176.987,285.400252562
177.002,285.382293936
177.017,285.364278842
177.032,285.346207209
177.047,285.328078959
177.062,285.309894011
177.077,285.29165228
177.092,285.273353679
177.107,285.254998114
177.122,285.236585488
177.137,285.2181157
177.152,285.199588645
177.167,285.181004213
177.182,285.16236229
177.197,285.143662758
177.21,285.127409803
177.212,285.124905495
177.227,285.106090372
177.242,285.087217258
177.257,285.068286017
177.272,285.049296508
177.287,285.030248584
177.302,285.011142096
177.31,285.000927969
177.317,284.991976887
177.332,284.972752798
177.347,284.953469664
177.362,284.934127314
177.377,284.914725574
177.392,284.895264263
177.407,284.875743195
177.422,284.856162181
177.437,284.836521025
177.452,284.816819525
177.467,284.797057475
177.482,284.777234663
177.497,284.757350872
177.512,284.73740588
177.527,284.717399457
177.542,284.69733137
177.557,284.677201379
177.572,284.657009238
177.587,284.636754697
177.602,284.616437497
177.617,284.596057377
177.632,284.575614067
177.647,284.555107292
177.66,284.537283201
177.662,284.534536771
177.677,284.513902217
177.692,284.493203335
177.707,284.472439827
177.722,284.451611386
177.737,284.430717699
177.752,284.409758448
177.767,284.388733307
177.782,284.367641943
177.797,284.346484019
177.812,284.325259189
177.827,284.3039671
177.842,284.282607393
177.857,284.261179703
177.872,284.239683656
177.887,284.218118873
177.902,284.196484966
177.917,284.174781541
177.932,284.153008197
177.947,284.131164524
177.96,284.112176132
177.962,284.109250107
177.977,284.087264522
177.992,284.065207338
178.007,284.043078116
178.022,284.020876409
178.037,283.998601764
178.052,283.976253718
178.067,283.953831802
178.082,283.931335537
178.097,283.908764438
178.112,283.886118011
178.127,283.863395754
178.142,283.840597156
178.157,283.817721698
178.172,283.794768854
178.187,283.771738086
178.202,283.748628851
178.217,283.725440596
178.232,283.702172759
178.247,283.678824768
178.262,283.655396045
178.277,283.631886
178.292,283.608294036
178.307,283.584619544
178.322,283.56086191
178.337,283.537020507
178.352,283.513094698
178.367,283.489083841
178.382,283.464987278
178.397,283.440804347
178.41,283.419775422
178.412,283.416534372
178.427,283.392176669
178.442,283.367730543
178.457,283.343195289
178.472,283.318570193
178.487,283.293854527
178.502,283.269047557
178.517,283.244148535
178.532,283.219156703
178.547,283.194071292
178.562,283.168891523
178.577,283.143616605
178.592,283.118245736
178.607,283.092778103
178.622,283.067212879
178.637,283.041549229
178.652,283.015786303
178.667,282.989923243
178.682,282.963959174
178.697,282.937893213
178.712,282.911724462
178.727,282.885452012
178.742,282.859074941
178.757,282.832592314
178.772,282.806003183
178.787,282.779306588
178.802,282.752501554
178.817,282.725587095
178.832,282.698562209
178.847,282.671425883
178.862,282.644177087
178.877,282.616814779
178.892,282.589337903
178.907,282.561745389
178.922,282.53403615
178.937,282.506209087
178.952,282.478263086
178.967,282.450197015
178.982,282.422009731
178.997,282.393700072
179.012,282.365266864
179.027,282.336708913
179.042,282.308025012
179.057,282.279213938
179.072,282.25027445
179.087,282.221205291
179.102,282.192005188
179.117,282.16267285
179.132,282.13320697
179.147,282.103606222
179.16,282.07784211
179.162,282.073869264
179.177,282.043994735
179.192,282.013981256
179.207,281.983827431
179.222,281.953531844
179.237,281.923093061
179.252,281.89250963
179.267,281.861780077
179.282,281.830902911
179.297,281.799876621
179.312,281.768699675
179.327,281.737370521
179.342,281.705887588
179.357,281.674249282
179.372,281.64245399
179.387,281.610500076
179.402,281.578385885
179.417,281.546109738
179.432,281.513669934
179.447,281.48106475
179.462,281.448292442
179.477,281.41535124
179.492,281.382239353
179.507,281.348954967
179.522,281.315496241
179.537,281.281861313
179.552,281.248048295
179.567,281.214055276
179.582,281.179880317
179.597,281.145521456
179.612,281.110976705
179.627,281.076244049
179.642,281.041321447
179.657,281.006206832
179.672,280.970898109
179.687,280.935393155
179.702,280.899689823
179.717,280.863785932
179.732,280.827679277
179.747,280.791367624
179.762,280.754848707
179.777,280.718120233
179.792,280.681179877
179.807,280.644025287
179.822,280.606654076
179.837,280.56906383
179.852,280.5312521
179.867,280.493216408
179.882,280.454954242
179.897,280.416463058
179.91,280.382916791
179.912,280.377740279
179.927,280.338783294
179.942,280.299589458
179.957,280.260156093
179.972,280.220480484
179.987,280.180559883
180.002,280.140391505
180.017,280.09997253
180.032,280.059300101
180.047,280.018371323
180.062,279.977183265
180.077,279.935732957
180.092,279.894017393
180.107,279.852033525
180.122,279.809778267
180.137,279.767248495
180.152,279.724441042
180.167,279.681352702
180.182,279.637980228
180.197,279.594320329
180.212,279.550369675
180.227,279.50612489
180.242,279.461582558
180.257,279.416739217
180.272,279.371591362
180.287,279.326135442
180.302,279.280367862
180.317,279.234284981
180.332,279.18788311
180.347,279.141158514
180.362,279.094107412
180.377,279.046725973
180.392,278.999010318
180.407,278.950956519
180.422,278.902560598
180.437,278.853818527
180.452,278.804726226
180.467,278.755279566
180.482,278.705474362
180.497,278.65530638
180.512,278.604771331
180.527,278.553864871
180.542,278.502582604
180.557,278.450920075
180.56,278.440541542
180.572,278.398872777
180.587,278.346436145
180.602,278.293605555
180.617,278.240376327
180.632,278.186743723
180.647,278.132702943
180.66,278.085533678
180.662,278.078249129
180.677,278.023377363
180.692,277.968082664
180.707,277.912359988
180.722,277.856204231
180.737,277.799610222
180.752,277.742572727
180.767,277.685086447
180.782,277.627146016
180.797,277.568746002
180.812,277.509880903
180.827,277.450545151
180.842,277.390733107
180.857,277.33043906
180.872,277.269657231
180.887,277.208381764
180.902,277.146606734
180.917,277.084326139
180.932,277.021533901
180.947,276.958223867
180.962,276.894389805
180.977,276.830025404
180.992,276.765124276
181.007,276.699679947
181.022,276.633685863
181.037,276.567135387
181.052,276.500021795
181.067,276.432338279
181.082,276.364077939
181.097,276.295233789
181.112,276.225798751
181.127,276.155765656
181.142,276.085127237
181.157,276.013876136
181.172,275.942004893
181.187,275.869505952
181.202,275.796371655
181.217,275.722594239
181.232,275.648165837
181.247,275.573078476
181.262,275.497324072
181.277,275.420894428
181.292,275.343781236
181.307,275.265976069
181.31,275.250331249
181.322,275.187470382
181.337,275.108255509
181.352,275.028322658
181.367,274.947662911
181.382,274.866267219
181.397,274.784126402
181.412,274.701231142
181.427,274.61757198
181.442,274.533139318
181.457,274.447923409
181.472,274.361914357
181.487,274.275102112
181.502,274.187476466
181.517,274.099027051
181.532,274.009743334
181.547,273.919614608
181.562,273.828629997
181.577,273.736778443
181.592,273.644048706
181.607,273.550429357
181.622,273.455908776
181.637,273.360475142
181.652,273.264116432
181.667,273.166820417
181.682,273.068574649
181.697,272.969366464
181.712,272.869182972
181.727,272.768011052
181.742,272.665837345
181.757,272.562648249
181.772,272.458429913
181.787,272.353168232
181.802,272.246848838
181.817,272.139457092
181.832,272.030978085
181.847,271.921396623
181.862,271.810697226
181.877,271.698864118
181.892,271.585881222
181.907,271.471732153
181.922,271.35640021
181.937,271.239868371
181.952,271.122119286
181.967,271.003135267
181.982,270.882898286
181.997,270.761389965
182.012,270.63859157
182.027,270.514484004
182.042,270.389047801
182.057,270.262263116
182.06,270.236742588
182.072,270.134109723
182.087,270.004567005
182.102,269.873613944
182.117,269.74122912
182.132,269.607390698
182.147,269.472076423
182.162,269.335263607
182.177,269.196929126
182.192,269.057049404
182.207,268.915600405
182.222,268.772557622
182.237,268.627896057
182.252,268.481590211
182.267,268.333614064
182.282,268.18394105
182.297,268.032544039
182.312,267.8793953
182.327,267.724466474
182.342,267.56772853
182.357,267.409151718
182.372,267.248705514
182.387,267.086358554
182.402,266.922078557
182.417,266.755832232
182.432,266.587585173
182.447,266.417301725
182.462,266.244944842
182.477,266.070475906
182.492,265.893854519
182.507,265.71503826
182.522,265.533982398
182.537,265.350639554
182.552,265.164959308
182.567,264.976887732
182.582,264.786366851
182.597,264.593334003
182.612,264.397721097
182.627,264.199453733
182.642,263.998450185
182.657,263.794620199
182.672,263.587863586
182.687,263.378068579
182.702,263.165109896
182.717,262.948846477
182.732,262.729118814
182.747,262.505745827
182.762,262.278521178
182.777,262.047208927
182.792,261.811538422
182.807,261.571198244
182.822,261.325829066
182.837,261.075015173
182.852,260.818274415
182.867,260.555046252
182.882,260.284677519
182.897,260.006405437
182.912,259.719337307
182.927,259.422426178
182.942,259.11444166
182.957,258.793934837
182.972,258.459196056
182.987,258.108204065
183.002,257.738564758
183.017,257.347437415
183.032,256.931446083
183.047,256.486573534
183.062,256.008035263
183.077,255.490131521
183.092,254.926076884
183.107,254.307810241
183.122,253.625794981
183.137,252.868832354
183.152,252.023935617
183.167,251.076357337
183.182,250.009942375
183.197,248.808121199
183.212,247.456111948
183.227,245.945368676
183.242,244.282240081
183.257,242.504714818
183.367,242.93477474
183.382,244.68282661
183.397,246.302806506
183.412,247.767014896
183.427,249.074019661
183.442,250.234510665
183.457,251.263986858
183.472,252.179020396
183.487,252.995437273
183.502,253.727527638
183.517,254.3877975
183.532,254.986991734
183.547,255.534240964
183.562,256.037254018
183.577,256.502516095
183.592,256.935473833
183.607,257.340699709
183.622,257.722033957
183.637,258.082705029
183.652,258.425430759
183.667,258.752502821
183.682,259.065856982
183.697,259.36713145
183.712,259.657715308
183.727,259.938788738
183.742,260.211356466
183.757,260.476275596
183.772,260.734278825
183.787,260.985993837
183.802,261.23195953
183.817,261.472639627
183.832,261.708434106
183.847,261.939688824
183.862,262.166703633
183.877,262.389739226
183.892,262.609022938
183.907,262.824753653
183.922,263.03710597
183.937,263.24623374
183.952,263.452273074
183.967,263.655344902
183.982,263.855557154
183.997,264.053006615
184.012,264.247780515
184.027,264.439957878
184.042,264.629610676
184.057,264.816804815
184.072,265.001600978
184.087,265.184055341
184.102,265.364220186
184.117,265.542144425
184.132,265.717874047
184.147,265.891452499
184.162,266.062921007
184.177,266.232318856
184.192,266.399683623
184.207,266.565051378
184.222,266.728456852
184.237,266.889933585
184.252,267.049514043
184.267,267.207229727
184.282,267.363111256
184.297,267.517188446
184.312,267.669490369
184.327,267.820045407
184.342,267.968881299
184.357,268.116025177
184.372,268.261503599
184.387,268.405342577
184.402,268.547567599
184.417,268.688203651
184.432,268.82727523
184.447,268.964806367
184.462,269.10082063
184.477,269.235341145
184.492,269.368390598
184.507,269.49999125
184.522,269.630164946
184.537,269.758933115
184.552,269.88631679
184.56,269.953695785
184.567,270.012336602
184.582,270.137012798
184.597,270.260365239
184.612,270.382413413
184.627,270.503176439
184.642,270.62267307
184.657,270.740921706
184.672,270.857940396
184.687,270.973746845
184.702,271.088358422
184.717,271.201792164
184.732,271.314064784
184.747,271.425192679
184.762,271.535191933
184.777,271.644078326
184.792,271.751867341
184.807,271.858574166
184.822,271.964213708
184.837,272.068800592
184.852,272.172349171
184.867,272.274873534
184.882,272.376387507
184.897,272.476904665
184.912,272.576438333
184.927,272.675001596
184.942,272.772607303
184.957,272.869268074
184.972,272.964996303
184.987,273.059804167
185.002,273.153703629
185.017,273.246706446
185.032,273.33882417
185.047,273.430068159
185.062,273.520449577
185.077,273.6099794
185.092,273.698668423
185.107,273.786527263
185.122,273.873566362
185.137,273.959795996
185.152,274.045226272
185.167,274.12986714
185.182,274.213728392
185.197,274.296819667
185.212,274.379150455
185.227,274.460730102
185.242,274.54156781
185.257,274.621672643
185.272,274.701053532
185.287,274.779719272
185.302,274.857678533
185.31,274.898970888
185.317,274.934939856
185.332,275.011511662
185.347,275.087402247
185.362,275.162619795
185.377,275.237172369
185.392,275.311067924
185.407,275.384314302
185.422,275.456919238
185.437,275.528890362
185.452,275.600235198
185.467,275.670961171
185.482,275.741075604
185.497,275.810585725
185.512,275.879498665
185.527,275.94782146
185.542,276.015561055
185.557,276.082724304
185.572,276.149317973
185.587,276.215348739
185.602,276.280823194
185.617,276.345747844
185.632,276.410129116
185.647,276.47397335
185.662,276.53728681
185.677,276.600075679
185.692,276.662346062
185.707,276.724103987
185.722,276.785355409
185.737,276.846106205
185.752,276.906362181
185.767,276.966129072
185.782,277.025412539
185.797,277.084218173
185.812,277.142551499
185.827,277.200417971
185.842,277.257822976
185.857,277.314771836
185.872,277.371269806
185.887,277.427322076
185.902,277.482933774
185.917,277.538109965
185.932,277.592855649
185.947,277.647175768
185.96,277.693912743
185.962,277.701075202
185.977,277.754558771
185.992,277.807631236
186.007,277.860297299
186.022,277.912561606
186.037,277.964428745
186.052,278.015903248
186.06,278.043197319
186.067,278.06698959
186.082,278.117692194
186.097,278.168015425
186.112,278.217963598
186.127,278.267540973
186.142,278.316751758
186.157,278.365600109
186.172,278.414090132
186.187,278.462225881
186.202,278.51001136
186.217,278.557450525
186.232,278.604547283
186.247,278.651305492
186.262,278.697728962
186.277,278.743821457
186.292,278.789586694
186.307,278.835028344
186.322,278.880150033
186.337,278.924955341
186.352,278.969447804
186.367,279.013630915
186.382,279.057508123
186.397,279.101082833
186.412,279.144358409
186.427,279.187338174
186.442,279.230025407
186.457,279.272423348
186.472,279.314535196
186.487,279.35636411
186.502,279.397913211
186.517,279.439185579
186.532,279.480184255
186.547,279.520912245
186.562,279.561372515
186.577,279.601567994
186.592,279.641501575
186.607,279.681176114
186.622,279.720594432
186.637,279.759759314
186.652,279.798673511
186.667,279.837339737
186.682,279.875760674
186.697,279.913938971
186.71,279.94683258
186.712,279.951877241
186.727,279.989578066
186.742,280.027043995
186.757,280.064277546
186.772,280.101281202
186.787,280.13805742
186.802,280.17460862
186.817,280.210937196
186.832,280.247045511
186.847,280.282935896
186.862,280.318610654
186.877,280.354072061
186.892,280.38932236
186.907,280.424363769
186.922,280.459198478
186.937,280.493828646
186.952,280.528256409
186.967,280.562483874
186.982,280.59651312
186.997,280.630346203
187.012,280.663985151
187.027,280.697431966
187.042,280.730688626
187.057,280.763757083
187.072,280.796639266
187.087,280.829337077
187.102,280.861852396
187.117,280.894187079
187.132,280.926342958
187.147,280.958321843
187.162,280.990125519
187.177,281.021755751
187.192,281.05321428
187.207,281.084502826
187.222,281.115623087
187.237,281.146576739
187.252,281.177365438
187.267,281.207990818
187.282,281.238454494
187.297,281.268758059
187.312,281.298903087
187.327,281.328891131
187.342,281.358723725
187.357,281.388402386
187.372,281.417928608
187.387,281.447303868
187.402,281.476529626
187.417,281.50560732
187.432,281.534538375
187.447,281.563324192
187.46,281.588155493
187.462,281.59196616
187.477,281.620465647
187.492,281.648824006
187.507,281.677042571
187.522,281.705122661
187.537,281.733065577
187.552,281.760872605
187.567,281.788545014
187.582,281.816084057
187.597,281.843490973
187.612,281.870766984
187.627,281.897913296
187.642,281.924931102
187.657,281.951821578
187.672,281.978585886
187.687,282.005225174
187.702,282.031740576
187.717,282.05813321
187.732,282.084404182
187.747,282.110554583
187.762,282.136585491
187.777,282.16249797
187.792,282.18829307
187.807,282.21397183
187.822,282.239535276
187.837,282.264984417
187.852,282.290320255
187.867,282.315543776
187.882,282.340655955
187.897,282.365657754
187.912,282.390550124
187.927,282.415334004
187.942,282.44001032
187.957,282.464579987
187.972,282.48904391
187.987,282.513402982
188.002,282.537658083
188.017,282.561810084
188.032,282.585859846
188.047,282.609808217
188.062,282.633656034
188.077,282.657404127
188.092,282.681053313
188.107,282.704604399
188.122,282.728058182
188.137,282.751415449
188.152,282.774676979
188.167,282.797843538
188.182,282.820915885
188.197,282.843894769
188.21,282.863734772
188.212,282.866780929
188.227,282.889575095
188.242,282.912277987
188.257,282.934890318
188.272,282.957412791
188.287,282.9798461
188.302,283.002190929
188.317,283.024447957
188.332,283.046617852
188.347,283.068701272
188.362,283.090698871
188.377,283.112611292
188.392,283.134439169
188.407,283.15618313
188.422,283.177843795
188.437,283.199421776
188.452,283.220917676
188.467,283.242332091
188.482,283.263665611
188.497,283.284918816
188.512,283.306092281
188.527,283.327186572
188.542,283.348202249
188.557,283.369139864
188.572,283.389999962
188.587,283.410783082
188.602,283.431489756
188.617,283.452120508
188.632,283.472675857
188.647,283.493156313
188.66,283.510845853
188.662,283.513562382
188.677,283.533894562
188.692,283.554153346
188.707,283.574339218
188.722,283.594452659
