# 48698 WSSS Singapore Observations at 12Z 28 Mar 2019
Frequency [GHz],TB
175.31,271.844312235
175.322,271.820943757
175.337,271.79166806
175.352,271.762319817
175.367,271.732898828
175.382,271.703404882
175.397,271.673837766
175.412,271.644197265
175.427,271.614483171
175.442,271.584695268
175.457,271.554833341
175.472,271.524897178
175.487,271.494886554
175.502,271.464801265
175.517,271.434641081
175.532,271.404405788
175.547,271.374095167
175.562,271.343708999
175.577,271.313247058
175.592,271.282709122
175.607,271.252094968
175.622,271.221404377
175.637,271.190637115
175.652,271.159792965
175.667,271.128871693
175.682,271.097873076
175.697,271.066796883
175.712,271.035642886
175.727,271.004410853
175.742,270.97310055
175.757,270.941711749
175.772,270.910244215
175.787,270.878697714
175.802,270.847072007
175.817,270.815366864
175.832,270.783582046
175.847,270.751717312
175.862,270.719772428
175.877,270.687747147
175.892,270.655641232
175.907,270.623454444
175.922,270.591186536
175.937,270.558837263
175.952,270.526406385
175.967,270.493893654
175.982,270.46129882
175.997,270.428621637
176.012,270.395861855
176.027,270.363019229
176.042,270.330093502
176.057,270.297084426
176.072,270.263991746
176.087,270.23081521
176.102,270.197554561
176.117,270.164209541
176.132,270.130779896
176.147,270.097265368
176.162,270.063665695
176.177,270.029980619
176.192,269.996209877
176.207,269.96235321
176.222,269.92841035
176.237,269.894381036
176.252,269.860264999
176.267,269.826061975
176.282,269.791771693
176.297,269.757393886
176.31,269.72752878
176.312,269.722928287
176.327,269.688374615
176.342,269.653732606
176.357,269.619001991
176.372,269.584182482
176.387,269.549273812
176.402,269.514275703
176.417,269.479187874
176.432,269.444010053
176.447,269.408741951
176.46,269.378103021
176.462,269.373383292
176.477,269.337933788
176.492,269.302393163
176.507,269.266761125
176.522,269.231037392
176.537,269.195221675
176.552,269.159313683
176.567,269.123313132
176.582,269.087219725
176.597,269.051033175
176.612,269.014753184
176.627,268.978379463
176.642,268.941911709
176.657,268.905349631
176.672,268.868692925
176.687,268.831941297
176.702,268.795094443
176.717,268.758152061
176.732,268.72111385
176.747,268.6839795
176.762,268.646748713
176.777,268.609421175
176.792,268.571996578
176.807,268.534474617
176.822,268.496854976
176.837,268.459137341
176.852,268.421321409
176.867,268.383406854
176.882,268.34539336
176.897,268.307280619
176.912,268.269068301
176.927,268.230756093
176.942,268.19234367
176.957,268.153830706
176.972,268.115216884
176.987,268.076501867
177.002,268.037685339
177.017,267.99876697
177.032,267.959746424
177.047,267.920623373
177.062,267.88139748
177.077,267.842068416
177.092,267.80263585
177.107,267.763099434
177.122,267.723458831
177.137,267.683713707
177.152,267.643863718
177.167,267.603908521
177.182,267.563847768
177.197,267.52368112
177.21,267.488784095
177.212,267.483408221
177.227,267.443028732
177.242,267.402542297
177.257,267.361948563
177.272,267.32124718
177.287,267.280437792
177.302,267.239520042
177.31,267.21765281
177.317,267.198493569
177.332,267.157358023
177.347,267.11611303
177.362,267.074758238
177.377,267.033293274
177.392,266.991717784
177.407,266.950031389
177.422,266.908233725
177.437,266.866324418
177.452,266.824303102
177.467,266.782169396
177.482,266.739922929
177.497,266.697563324
177.512,266.6550902
177.527,266.612503173
177.542,266.569801871
177.557,266.5269859
177.572,266.484054878
177.587,266.441008416
177.602,266.397846129
177.617,266.35456762
177.632,266.311172504
177.647,266.267660378
177.66,266.22985492
177.662,266.224030853
177.677,266.180283525
177.692,266.136418001
177.707,266.09243387
177.722,266.048330737
177.737,266.004108189
177.752,265.959765828
177.767,265.915303235
177.782,265.870720004
177.797,265.826015722
177.812,265.781189972
177.827,265.736242337
177.842,265.691172401
177.857,265.645979741
177.872,265.600663934
177.887,265.555224557
177.902,265.509661182
177.917,265.463973377
177.932,265.418160713
177.947,265.372222756
177.96,265.332308177
177.962,265.326159073
177.977,265.279969223
177.992,265.233652769
178.007,265.187209271
178.022,265.14063828
178.037,265.093939348
178.052,265.047112035
178.067,265.000155882
178.082,264.953070439
178.097,264.905855249
178.112,264.858509859
178.127,264.811033802
178.142,264.763426618
178.157,264.715687841
178.172,264.667817005
178.187,264.619813639
178.202,264.571677269
178.217,264.523407419
178.232,264.475003615
178.247,264.426465375
178.262,264.37779221
178.277,264.32898364
178.292,264.280039177
178.307,264.230958324
178.322,264.18174059
178.337,264.132385482
178.352,264.082892492
178.367,264.033261118
178.382,263.983490858
178.397,263.933581202
178.41,263.890213014
178.412,263.883531639
178.427,263.833341646
178.442,263.783010712
178.457,263.732538312
178.472,263.681923924
178.487,263.631167016
178.502,263.580267058
178.517,263.529223516
178.532,263.478035847
178.547,263.426703516
178.562,263.375225972
178.577,263.323602666
178.592,263.271833048
178.607,263.219916557
178.622,263.167852634
178.637,263.115640713
178.652,263.063280227
178.667,263.010770604
178.682,262.958111265
178.697,262.905301632
178.712,262.852341115
178.727,262.799229128
178.742,262.745965078
178.757,262.692548362
178.772,262.638978384
178.787,262.585254528
178.802,262.531376187
178.817,262.477342741
178.832,262.423153572
178.847,262.368808046
178.862,262.314305537
178.877,262.259645401
178.892,262.204827002
178.907,262.149849689
178.922,262.094712807
178.937,262.039415696
178.952,261.983957694
178.967,261.92833813
178.982,261.872556324
178.997,261.816611594
179.012,261.760503253
179.027,261.704230605
179.042,261.647792947
179.057,261.59118957
179.072,261.534419762
179.087,261.4774828
179.102,261.420377954
179.117,261.363104489
179.132,261.305661661
179.147,261.248048724
179.16,261.197979323
179.162,261.190264916
179.177,261.132309472
179.192,261.074181617
179.207,261.015880573
179.222,260.957405551
179.237,260.898755749
179.252,260.839930364
179.267,260.780928584
179.282,260.721749581
179.297,260.662392525
179.312,260.602856572
179.327,260.543140872
179.342,260.483244567
179.357,260.423166782
179.372,260.362906639
179.387,260.302463252
179.402,260.241835714
179.417,260.181023118
179.432,260.120024542
179.447,260.058839051
179.462,259.997465703
179.477,259.935903542
179.492,259.874151605
179.507,259.812208909
179.522,259.750074461
179.537,259.687747266
179.552,259.6252263
179.567,259.562510538
179.582,259.49959894
179.597,259.43649045
179.612,259.373184
179.627,259.309678504
179.642,259.245972871
179.657,259.182065988
179.672,259.117956726
179.687,259.053643948
179.702,258.989126499
179.717,258.924403205
179.732,258.859472883
179.747,258.794334321
179.762,258.728986303
179.777,258.663427596
179.792,258.59765694
179.807,258.531673067
179.822,258.465474685
179.837,258.399060487
179.852,258.332429144
179.867,258.265579314
179.882,258.198509633
179.897,258.131218713
179.91,258.072719872
179.912,258.063705148
179.927,257.99596752
179.942,257.928004378
179.957,257.859814257
179.972,257.791395667
179.987,257.722747095
180.002,257.653867014
180.017,257.584753859
180.032,257.515406061
180.047,257.445822008
180.062,257.376000074
180.077,257.30593861
180.092,257.235635936
180.107,257.165090346
180.122,257.094300113
180.137,257.02326348
180.152,256.95197866
180.167,256.880443851
180.182,256.808657204
180.197,256.736616855
180.212,256.664320905
180.227,256.591767427
180.242,256.518954463
180.257,256.445880026
180.272,256.372542088
180.287,256.298938605
180.302,256.225067487
180.317,256.150926612
180.332,256.076513832
180.347,256.001826958
180.362,255.926863761
180.377,255.851621988
180.392,255.77609934
180.407,255.700293486
180.422,255.624202049
180.437,255.54782262
180.452,255.471152753
180.467,255.394189949
180.482,255.316931688
180.497,255.239375388
180.512,255.16151843
180.527,255.08335816
180.542,255.004891873
180.557,254.926116821
180.56,254.910324511
180.572,254.847030204
180.587,254.767629181
180.602,254.687910867
180.617,254.60787232
180.632,254.527510553
180.647,254.446822527
180.66,254.376626609
180.662,254.365805154
180.677,254.284455286
180.692,254.202769734
180.707,254.120745244
180.722,254.038378512
180.737,253.955666181
180.752,253.872604824
180.767,253.789190971
180.782,253.705421078
180.797,253.621291555
180.812,253.536798735
180.827,253.451938901
180.842,253.366708266
180.857,253.281102978
180.872,253.195119117
180.887,253.108752702
180.902,253.021999678
180.917,252.934855917
180.932,252.84731723
180.947,252.75937935
180.962,252.671037932
180.977,252.582288565
180.992,252.493126754
181.007,252.40354793
181.022,252.313547446
181.037,252.223120578
181.052,252.132262515
181.067,252.040968367
181.082,251.949233161
181.097,251.857051832
181.112,251.764419239
181.127,251.671330152
181.142,251.577779244
181.157,251.483761103
181.172,251.389270232
181.187,251.294301036
181.202,251.19884782
181.217,251.10290481
181.232,251.006466122
181.247,250.909525783
181.262,250.81207772
181.277,250.714115761
181.292,250.615633639
181.307,250.516624982
181.31,250.496759497
181.322,250.417083313
181.337,250.317002064
181.352,250.216374554
181.367,250.115194008
181.382,250.013453537
181.397,249.911146157
181.412,249.808264779
181.427,249.704802199
181.442,249.600751125
181.457,249.49610415
181.472,249.390853764
181.487,249.284992359
181.502,249.178512215
181.517,249.071405518
181.532,248.96366435
181.547,248.85528069
181.562,248.746246422
181.577,248.636553331
181.592,248.526193107
181.607,248.415157348
181.622,248.303437557
181.637,248.191025156
181.652,248.077911467
181.667,247.96408775
181.682,247.849545173
181.697,247.734274833
181.712,247.618267752
181.727,247.501514896
181.742,247.384007165
181.757,247.265735406
181.772,247.146690415
181.787,247.026862947
181.802,246.906243722
181.817,246.784823438
181.832,246.662592763
181.847,246.539542372
181.862,246.415662917
181.877,246.290945078
181.892,246.165379547
181.907,246.038957048
181.922,245.911668358
181.937,245.783504302
181.952,245.65445578
181.967,245.524513781
181.982,245.393669395
181.997,245.261913837
182.012,245.129238454
182.027,244.995634758
182.042,244.861094437
182.057,244.725609375
182.06,244.698398297
182.072,244.58917169
182.087,244.451773747
182.102,244.313408178
182.117,244.174067932
182.132,244.033746281
182.147,243.892436869
182.162,243.750133736
182.177,243.60683136
182.192,243.462524695
182.207,243.317209205
182.222,243.170880915
182.237,243.023536449
182.252,242.875173092
182.267,242.725788828
182.282,242.5753824
182.297,242.42395338
182.312,242.271502212
182.327,242.118030291
182.342,241.963540041
182.357,241.808034973
182.372,241.65151978
182.387,241.494000411
182.402,241.335484172
182.417,241.175979821
182.432,241.015497673
182.447,240.854049703
182.462,240.691649663
182.477,240.528313213
182.492,240.36405805
182.507,240.198904044
182.522,240.032873387
182.537,239.865990755
182.552,239.698283477
182.567,239.529781691
182.582,239.360518552
182.597,239.190530426
182.612,239.019857084
182.627,238.848541938
182.642,238.676632253
182.657,238.504179407
182.672,238.331239133
182.687,238.15787178
182.702,237.984142615
182.717,237.81012208
182.732,237.635886111
182.747,237.461516449
182.762,237.287100952
182.777,237.112733941
182.792,236.93851651
182.807,236.764556906
182.822,236.590970845
182.837,236.417881888
182.852,236.245421763
182.867,236.073730732
182.882,235.902957911
182.897,235.733261592
182.912,235.56480955
182.927,235.397779313
182.942,235.232358412
182.957,235.06874461
182.972,234.907146047
182.987,234.747781428
183.002,234.590880093
183.017,234.436682152
183.032,234.285438575
183.047,234.1374114
183.062,233.992874077
183.077,233.852112156
183.092,233.715424473
183.107,233.583125328
183.122,233.455548007
183.137,233.33305061
183.152,233.216025156
183.167,233.104911386
183.182,233.00021692
183.197,232.902545148
183.212,232.812630927
183.227,232.731380683
183.242,232.659906247
183.257,232.599530733
183.367,232.600801484
183.382,232.660760472
183.397,232.731485496
183.412,232.811706148
183.427,232.900365552
183.442,232.99660484
183.457,233.099726298
183.472,233.209153856
183.487,233.324399235
183.502,233.44503618
183.517,233.570682054
183.532,233.700985387
183.547,233.835617742
183.562,233.974268574
183.577,234.116642092
183.592,234.262455417
183.607,234.411437523
183.622,234.563328677
183.637,234.717880142
183.652,234.874854022
183.667,235.034023142
183.682,235.195170962
183.697,235.358091458
183.712,235.52258897
183.727,235.688478023
183.742,235.85558309
183.757,236.023738351
183.772,236.192787404
183.787,236.362582961
183.802,236.532986517
183.817,236.703868025
183.832,236.875105538
183.847,237.046584872
183.862,237.218199252
183.877,237.389848956
183.892,237.561440981
183.907,237.732888707
183.922,237.904111571
183.937,238.075034727
183.952,238.245588759
183.967,238.415709383
183.982,238.585337139
183.997,238.754417143
184.012,238.922898806
184.027,239.090735578
184.042,239.257884736
184.057,239.424307125
184.072,239.589966959
184.087,239.754831607
184.102,239.918871414
184.117,240.082059488
184.132,240.244371557
184.147,240.405785787
184.162,240.566282633
184.177,240.725844682
184.192,240.884456535
184.207,241.042104656
184.222,241.198777263
184.237,241.354464208
184.252,241.509156866
184.267,241.662848047
184.282,241.815531876
184.297,241.967203731
184.312,242.11786013
184.327,242.267498681
184.342,242.41611798
184.357,242.56371756
184.372,242.710297818
184.387,242.855859951
184.402,243.000405906
184.417,243.143938315
184.432,243.286460458
184.447,243.427976189
184.462,243.568489929
184.477,243.708006585
184.492,243.846531541
184.507,243.984070603
184.522,244.120629954
184.537,244.25621616
184.552,244.390836096
184.56,244.462240768
184.567,244.524496943
184.582,244.657206144
184.597,244.788971399
184.612,244.919800614
184.627,245.049701905
184.642,245.178683552
184.657,245.306754001
184.672,245.433921827
184.687,245.560195734
184.702,245.685584519
184.717,245.810097068
184.732,245.933742343
184.747,246.056529362
184.762,246.178467186
184.777,246.299564911
184.792,246.419831662
184.807,246.539276565
184.822,246.657908754
184.837,246.775737353
184.852,246.892771471
184.867,247.009020193
184.882,247.124492575
184.897,247.23919763
184.912,247.353144324
184.927,247.466341585
184.942,247.578798268
184.957,247.690523179
184.972,247.801525055
184.987,247.911812559
185.002,248.021394284
185.017,248.130278741
185.032,248.238474369
185.047,248.345989515
185.062,248.452832442
185.077,248.559011326
185.092,248.664534249
185.107,248.769409203
185.122,248.873644084
185.137,248.977246698
185.152,249.080224742
185.167,249.182585827
185.182,249.284337467
185.197,249.385487063
185.212,249.486041929
185.227,249.58600927
185.242,249.685396201
185.257,249.784209729
185.272,249.882456758
185.287,249.980144106
185.302,250.077278478
185.31,250.128859654
185.317,250.173866481
185.332,250.269914634
185.347,250.365429341
185.362,250.460416922
185.377,250.554883593
185.392,250.648835481
185.407,250.742278605
185.422,250.835218902
185.437,250.927662209
185.452,251.01961427
185.467,251.111080745
185.482,251.202067192
185.497,251.292579088
185.512,251.382621818
185.527,251.472200677
185.542,251.561320883
185.557,251.649987561
185.572,251.738205749
185.587,251.825980418
185.602,251.913316442
185.617,252.000218616
185.632,252.086691666
185.647,252.172740231
185.662,252.25836888
185.677,252.343582101
185.692,252.428384306
185.707,252.512779843
185.722,252.596772982
185.737,252.680367921
185.752,252.763568795
185.767,252.846379661
185.782,252.92880452
185.797,253.010847298
185.812,253.092511859
185.827,253.173802005
185.842,253.254721474
185.857,253.335273942
185.872,253.415463026
185.887,253.495292284
185.902,253.574765211
185.917,253.653885252
185.932,253.732655789
185.947,253.81108015
185.96,253.878770453
185.962,253.889161617
185.977,253.966903409
185.992,254.044308693
186.007,254.121380591
186.022,254.19812217
186.037,254.27453645
186.052,254.350626397
186.06,254.391076099
186.067,254.426394938
186.082,254.501844949
186.097,254.576979253
186.112,254.651800643
186.127,254.726311856
186.142,254.800515588
186.157,254.874414492
186.172,254.948011182
186.187,255.021308231
186.202,255.094308166
186.217,255.167013482
186.232,255.239426627
186.247,255.311550018
186.262,255.383386033
186.277,255.454937006
186.292,255.526205247
186.307,255.597193022
186.322,255.667902565
186.337,255.738336074
186.352,255.808495714
186.367,255.878383624
186.382,255.948001895
186.397,256.017352604
186.412,256.086437788
186.427,256.15525945
186.442,256.223819568
186.457,256.292120093
186.472,256.360162942
186.487,256.427950008
186.502,256.495483145
186.517,256.562764198
186.532,256.629794975
186.547,256.696577253
186.562,256.763112786
186.577,256.829403314
186.592,256.895450536
186.607,256.961256134
186.622,257.026821766
186.637,257.092149067
186.652,257.157239648
186.667,257.222095092
186.682,257.28671697
186.697,257.351106826
186.71,257.406724856
186.712,257.415266172
186.727,257.479196521
186.742,257.542899347
186.757,257.606376111
186.772,257.669628252
186.787,257.732657193
186.802,257.795464329
186.817,257.858051047
186.832,257.920418703
186.847,257.982568659
186.862,258.044502222
186.877,258.106220715
186.892,258.16772542
186.907,258.229017624
186.922,258.290098577
186.937,258.350969527
186.952,258.411631696
186.967,258.472086297
186.982,258.532334522
186.997,258.592377555
187.012,258.652216563
187.027,258.71185269
187.042,258.771287078
187.057,258.830520843
187.072,258.8895551
187.087,258.948390942
187.102,259.007029448
187.117,259.065471684
187.132,259.123718715
187.147,259.181771572
187.162,259.239631294
187.177,259.297298896
187.192,259.354775389
187.207,259.412061758
187.222,259.469158996
187.237,259.526068066
187.252,259.582789936
187.267,259.639325556
187.282,259.695675862
187.297,259.751841784
187.312,259.807824238
187.327,259.863624134
187.342,259.919242372
187.357,259.974679842
187.372,260.029937422
187.387,260.085015977
187.402,260.139916373
187.417,260.194639462
187.432,260.249186082
187.447,260.303557071
187.46,260.350537164
187.462,260.357753251
187.477,260.411775444
187.492,260.465624452
187.507,260.519301081
187.522,260.572806122
187.537,260.626140361
187.552,260.679304573
187.567,260.732299526
187.582,260.785125987
187.597,260.837784708
187.612,260.890276434
187.627,260.942601917
187.642,260.994761877
187.657,261.046757048
187.672,261.098588146
187.687,261.150255894
187.702,261.20176099
187.717,261.25310414
187.732,261.304286038
187.747,261.355307372
187.762,261.406168826
187.777,261.456871078
187.792,261.507414798
187.807,261.55780065
187.822,261.608029295
187.837,261.658101391
187.852,261.708017581
187.867,261.757778512
187.882,261.807384824
187.897,261.856837147
187.912,261.906136116
187.927,261.955282347
187.942,262.004276462
187.957,262.053119075
187.972,262.101810795
187.987,262.150352224
188.002,262.198743968
188.017,262.246986615
188.032,262.29508076
188.047,262.343026988
188.062,262.390825886
188.077,262.438478028
188.092,262.485983991
188.107,262.533344341
188.122,262.580559645
188.137,262.627630468
188.152,262.674557369
188.167,262.721340897
188.182,262.767981606
188.197,262.814480042
188.21,262.854664026
188.212,262.86083675
188.227,262.907052266
188.242,262.95312713
188.257,262.999061874
188.272,263.044857025
188.287,263.090513111
188.302,263.136030653
188.317,263.18141017
188.332,263.226652178
188.347,263.271757192
188.362,263.316725716
188.377,263.361558266
188.392,263.406255335
188.407,263.45081743
188.422,263.495245043
188.437,263.539538675
188.452,263.583698812
188.467,263.627725945
188.482,263.671620561
188.497,263.71538314
188.512,263.759014167
188.527,263.802514112
188.542,263.845883452
188.557,263.889122668
188.572,263.932232217
188.587,263.975212573
188.602,264.0180642
188.617,264.060787556
188.632,264.103383104
188.647,264.1458513
188.66,264.182554409
188.662,264.188192599
188.677,264.23040745
188.692,264.272496308
188.707,264.314459614
188.722,264.356297817
188.737,264.398011359
