# 48698 WSSS Singapore Observations at 12Z 29 May 2019
Frequency [GHz],TB
175.31,275.435595232
175.322,275.415914823
175.337,275.391259433
175.352,275.366542869
175.367,275.341764916
175.382,275.31692536
175.397,275.292023984
175.412,275.267060571
175.427,275.242034902
175.442,275.216946759
175.457,275.191795919
175.472,275.166582161
175.487,275.141305262
175.502,275.115964996
175.517,275.09056114
175.532,275.065093464
175.547,275.039561742
175.562,275.013965745
175.577,274.98830524
175.592,274.962579997
175.607,274.936789782
175.622,274.910934361
175.637,274.885013498
175.652,274.859026957
175.667,274.832974498
175.682,274.806855882
175.697,274.780670869
175.712,274.754419215
175.727,274.728100677
175.742,274.701715011
175.757,274.67526197
175.772,274.648741305
175.787,274.622152769
175.802,274.59549611
175.817,274.568771076
175.832,274.541977415
175.847,274.51511487
175.862,274.488183187
175.877,274.461182108
175.892,274.434111372
175.907,274.40697072
175.922,274.37975989
175.937,274.352478618
175.952,274.325126638
175.967,274.297703685
175.982,274.270209489
175.997,274.242643782
176.012,274.215006292
176.027,274.187296747
176.042,274.15951487
176.057,274.131660388
176.072,274.103733022
176.087,274.075732492
176.102,274.047658519
176.117,274.019510819
176.132,273.991289108
176.147,273.9629931
176.162,273.934622508
176.177,273.906177043
176.192,273.877656413
176.207,273.849060325
176.222,273.820388486
176.237,273.791640598
176.252,273.762816365
176.267,273.733915485
176.282,273.704937658
176.297,273.675882579
176.31,273.650638788
176.312,273.646749944
176.327,273.617539445
176.342,273.588250774
176.357,273.558883619
176.372,273.529437667
176.387,273.499912604
176.402,273.470308112
176.417,273.440623874
176.432,273.410859568
176.447,273.381014871
176.46,273.35508419
176.462,273.35108946
176.477,273.321083007
176.492,273.290995183
176.507,273.260825657
176.522,273.230574097
176.537,273.200240168
176.552,273.169823531
176.567,273.139323848
176.582,273.108740777
176.597,273.078073975
176.612,273.047323094
176.627,273.016487788
176.642,272.985567705
176.657,272.954562493
176.672,272.923471797
176.687,272.892295259
176.702,272.861032519
176.717,272.829683215
176.732,272.798246983
176.747,272.766723456
176.762,272.735112264
176.777,272.703413035
176.792,272.671625394
176.807,272.639748966
176.822,272.60778337
176.837,272.575728224
176.852,272.543583144
176.867,272.511347742
176.882,272.479021628
176.897,272.446604409
176.912,272.414095691
176.927,272.381495074
176.942,272.348802159
176.957,272.31601654
176.972,272.283137812
176.987,272.250165566
177.002,272.217099388
177.017,272.183938864
177.032,272.150683575
177.047,272.1173331
177.062,272.083887015
177.077,272.050344892
177.092,272.016706302
177.107,271.98297081
177.122,271.949137979
177.137,271.915207371
177.152,271.881178541
177.167,271.847051043
177.182,271.812824427
177.197,271.778498241
177.21,271.748667986
177.212,271.744072028
177.227,271.709545327
177.242,271.674917676
177.257,271.640188608
177.272,271.605357651
177.287,271.570424333
177.302,271.535388175
177.31,271.516660008
177.317,271.500248696
177.332,271.46500541
177.347,271.42965783
177.362,271.394205462
177.377,271.35864781
177.392,271.322984374
177.407,271.287214648
177.422,271.251338126
177.437,271.215354294
177.452,271.179262635
177.467,271.14306263
177.482,271.106753753
177.497,271.070335476
177.512,271.033807264
177.527,270.997168581
177.542,270.960418884
177.557,270.923557627
177.572,270.886584258
177.587,270.849498222
177.602,270.812298958
177.617,270.774985901
177.632,270.737558483
177.647,270.700016128
177.66,270.667386001
177.662,270.662358257
177.677,270.624584285
177.692,270.586693623
177.707,270.548685678
177.722,270.510559849
177.737,270.472315531
177.752,270.433952115
177.767,270.395468987
177.782,270.356865524
177.797,270.3181411
177.812,270.279295086
177.827,270.240326842
177.842,270.201235727
177.857,270.162021091
177.872,270.122682281
177.887,270.083218636
177.902,270.043629489
177.917,270.003914168
177.932,269.964071995
177.947,269.924102286
177.96,269.889358174
177.962,269.884004348
177.977,269.843777486
177.992,269.803420994
178.007,269.762934163
178.022,269.722316275
178.037,269.681566608
178.052,269.640684429
178.067,269.599669003
178.082,269.558519584
178.097,269.51723542
178.112,269.475815754
178.127,269.43425982
178.142,269.392566843
178.157,269.350736042
178.172,269.308766631
178.187,269.266657812
178.202,269.224408781
178.217,269.182018727
178.232,269.13948683
178.247,269.096812262
178.262,269.053994187
178.277,269.01103176
178.292,268.967924128
178.307,268.924670431
178.322,268.881269798
178.337,268.83772135
178.352,268.794024199
178.367,268.750177448
178.382,268.706180192
178.397,268.662031515
178.41,268.623646131
178.412,268.617730492
178.427,268.57327619
178.442,268.528667663
178.457,268.483903959
178.472,268.438984114
178.487,268.393907154
178.502,268.348672095
178.517,268.303277943
178.532,268.257723694
178.547,268.212008331
178.562,268.166130828
178.577,268.12009015
178.592,268.073885246
178.607,268.027515058
178.622,267.980978516
178.637,267.934274536
178.652,267.887402025
178.667,267.840359876
178.682,267.793146973
178.697,267.745762184
178.712,267.698204368
178.727,267.650472368
178.742,267.602565019
178.757,267.554481138
178.772,267.506219533
178.787,267.457778997
178.802,267.409158309
178.817,267.360356236
178.832,267.311371529
178.847,267.262202928
178.862,267.212849157
178.877,267.163308926
178.892,267.11358093
178.907,267.063663849
178.922,267.013556351
178.937,266.963257084
178.952,266.912764684
178.967,266.862077772
178.982,266.811194951
178.997,266.760114809
179.012,266.708835917
179.027,266.657356832
179.042,266.605676091
179.057,266.553792217
179.072,266.501703714
179.087,266.44940907
179.102,266.396906754
179.117,266.344195219
179.132,266.291272899
179.147,266.238138209
179.16,266.191915123
179.162,266.184789548
179.177,266.131225292
179.192,266.077443802
179.207,266.023443419
179.222,265.969222462
179.237,265.914779233
179.252,265.860112013
179.267,265.805219061
179.282,265.750098619
179.297,265.694748906
179.312,265.639168119
179.327,265.583354435
179.342,265.527306009
179.357,265.471020975
179.372,265.414497442
179.387,265.357733499
179.402,265.300727211
179.417,265.243476622
179.432,265.185979748
179.447,265.128234586
179.462,265.070239106
179.477,265.011991256
179.492,264.953488956
179.507,264.894730104
179.522,264.835712571
179.537,264.776434204
179.552,264.716892823
179.567,264.65708622
179.582,264.597012164
179.597,264.536668394
179.612,264.476052622
179.627,264.415162535
179.642,264.353995788
179.657,264.292550012
179.672,264.230822804
179.687,264.168811737
179.702,264.106514351
179.717,264.043928158
179.732,263.981050639
179.747,263.917879245
179.762,263.854411396
179.777,263.790644478
179.792,263.72657585
179.807,263.662202836
179.822,263.597522726
179.837,263.53253278
179.852,263.467230224
179.867,263.401612248
179.882,263.335676011
179.897,263.269418635
179.91,263.211733559
179.912,263.202837207
179.927,263.135928781
179.942,263.068690371
179.957,263.001118959
179.972,262.933211486
179.987,262.86496486
180.002,262.796375948
180.017,262.72744158
180.032,262.658158546
180.047,262.5885236
180.062,262.518533454
180.077,262.448184781
180.092,262.377474211
180.107,262.306398336
180.122,262.234953705
180.137,262.163136825
180.152,262.090944162
180.167,262.018372135
180.182,261.945417124
180.197,261.872075462
180.212,261.798343438
180.227,261.724217297
180.242,261.649693235
180.257,261.574767405
180.272,261.499435913
180.287,261.423694814
180.302,261.34754012
180.317,261.270967791
180.332,261.193973739
180.347,261.116553826
180.362,261.038703864
180.377,260.960419614
180.392,260.881696785
180.407,260.802531033
180.422,260.722917964
180.437,260.642853129
180.452,260.562332024
180.467,260.481350091
180.482,260.399902717
180.497,260.317985233
180.512,260.235592913
180.527,260.152720973
180.542,260.069364573
180.557,259.985518812
180.56,259.968690501
180.572,259.901178731
180.587,259.816339309
180.602,259.730995467
180.617,259.645142061
180.632,259.558773888
180.647,259.471885681
180.66,259.396157797
180.662,259.384472106
180.677,259.296527769
180.692,259.208047208
180.707,259.119024896
180.722,259.029455238
180.737,258.939332572
180.752,258.848651167
180.767,258.757405224
180.782,258.665588873
180.797,258.573196172
180.812,258.480221108
180.827,258.386657597
180.842,258.292499479
180.857,258.197740521
180.872,258.102374416
180.887,258.006394777
180.902,257.909795145
180.917,257.812568979
180.932,257.714709663
180.947,257.616210498
180.962,257.517064707
180.977,257.41726543
180.992,257.316805727
181.007,257.215678572
181.022,257.113876856
181.037,257.011393387
181.052,256.908220884
181.067,256.804351981
181.082,256.699779225
181.097,256.594495072
181.112,256.488491891
181.127,256.38176196
181.142,256.274297465
181.157,256.166090501
181.172,256.057133071
181.187,255.947417083
181.202,255.83693435
181.217,255.725676591
181.232,255.61363543
181.247,255.500802394
181.262,255.38716891
181.277,255.272726312
181.292,255.157465832
181.307,255.041378604
181.31,255.018061162
181.322,254.924455664
181.337,254.806687947
181.352,254.688066289
181.367,254.568581424
181.382,254.448223989
181.397,254.326984518
181.412,254.204853446
181.427,254.081821107
181.442,253.957877737
181.457,253.833013472
181.472,253.707218349
181.487,253.58048231
181.502,253.452795198
181.517,253.324146761
181.532,253.194526655
181.547,253.063924443
181.562,252.932329598
181.577,252.799731506
181.592,252.666119469
181.607,252.531482704
181.622,252.395810354
181.637,252.259091484
181.652,252.12131509
181.667,251.982470102
181.682,251.842545391
181.697,251.701529772
181.712,251.559412014
181.727,251.416180842
181.742,251.271824951
181.757,251.126333011
181.772,250.979693675
181.787,250.831895594
181.802,250.682927423
181.817,250.532777837
181.832,250.381435543
181.847,250.228889292
181.862,250.075127899
181.877,249.920140256
181.892,249.763915355
181.907,249.606442301
181.922,249.447710338
181.937,249.287708873
181.952,249.126427495
181.967,248.963856008
181.982,248.799984455
181.997,248.634803152
182.012,248.468302716
182.027,248.300474105
182.042,248.131308654
182.057,247.960798112
182.06,247.926533899
182.072,247.788934689
182.087,247.6157111
182.102,247.441120612
182.117,247.265157097
182.132,247.087815088
182.147,246.909089832
182.162,246.72897736
182.177,246.547474543
182.192,246.364579169
182.207,246.180290011
182.222,245.994606905
182.237,245.807530833
182.252,245.619064006
182.267,245.429209957
182.282,245.237973635
182.297,245.045361501
182.312,244.851381636
182.327,244.656043852
182.342,244.459359802
182.357,244.261343102
182.372,244.062009457
182.387,243.861376791
182.402,243.659465383
182.417,243.456298011
182.432,243.251900098
182.447,243.046299869
182.462,242.839528507
182.477,242.631620325
182.492,242.422612934
182.507,242.212547429
182.522,242.001468571
182.537,241.78942498
182.552,241.576469342
182.567,241.362658614
182.582,241.14805424
182.597,240.932722381
182.612,240.716734142
182.627,240.500165822
182.642,240.283099165
182.657,240.065621623
182.672,239.847826631
182.687,239.629813893
182.702,239.411689685
182.717,239.193567165
182.732,238.975566702
182.747,238.75781622
182.762,238.540451557
182.777,238.323616846
182.792,238.10746491
182.807,237.892157682
182.822,237.677866641
182.837,237.464773277
182.852,237.253069571
182.867,237.042958508
182.882,236.834654605
182.897,236.628384466
182.912,236.424387364
182.927,236.222915841
182.942,236.024236321
182.957,235.828629748
182.972,235.636392225
182.987,235.447835649
183.002,235.263288342
183.017,235.083095631
183.032,234.907620383
183.047,234.73724343
183.062,234.572363857
183.077,234.41339907
183.092,234.260784559
183.107,234.114973258
183.122,233.976434345
183.137,233.845651317
183.152,233.723119162
183.167,233.609340406
183.182,233.504819848
183.197,233.410057819
183.212,233.325541878
183.227,233.251737016
183.242,233.189074563
183.257,233.137940279
183.367,233.134770731
183.382,233.184911224
183.397,233.246493778
183.412,233.319120836
183.427,233.402352118
183.442,233.495716387
183.457,233.598722254
183.472,233.710867639
183.487,233.831647705
183.502,233.96056124
183.517,234.097115603
183.532,234.240830403
183.547,234.391240108
183.562,234.547895785
183.577,234.710366169
183.592,234.878238205
183.607,235.05111721
183.622,235.22862675
183.637,235.410408325
183.652,235.596120907
183.667,235.785440404
183.682,235.978059053
183.697,236.173684796
183.712,236.37204063
183.727,236.572863972
183.742,236.775906017
183.757,236.980931122
183.772,237.187716204
183.787,237.396050164
183.802,237.605733326
183.817,237.816576905
183.832,238.028402503
183.847,238.241041621
183.862,238.454335197
183.877,238.668133167
183.892,238.882294051
183.907,239.096684551
183.922,239.311179174
183.937,239.525659874
183.952,239.740015709
183.967,239.954142509
183.982,240.167942572
183.997,240.38132436
184.012,240.594202216
184.027,240.80649609
184.042,241.018131277
184.057,241.229038171
184.072,241.439152015
184.087,241.648412677
184.102,241.856764427
184.117,242.064155717
184.132,242.270538982
184.147,242.475870439
184.162,242.680109895
184.177,242.883220565
184.192,243.085168896
184.207,243.285924394
184.222,243.485459466
184.237,243.683749257
184.252,243.880771502
184.267,244.076506382
184.282,244.270936383
184.297,244.464046162
184.312,244.655822422
184.327,244.846253787
184.342,245.035330687
184.357,245.223045245
184.372,245.409391169
184.387,245.594363654
184.402,245.77795928
184.417,245.960175923
184.432,246.141012665
184.447,246.320469713
184.462,246.498548316
184.477,246.675250694
184.492,246.850579963
184.507,247.024540069
184.522,247.197135724
184.537,247.368372347
184.552,247.538256005
184.56,247.628309688
184.567,247.70679336
184.582,247.873991621
184.597,248.039858492
184.612,248.204402131
184.627,248.367631108
184.642,248.529554362
184.657,248.690181168
184.672,248.849521101
184.687,249.007584006
184.702,249.164379964
184.717,249.319919265
184.732,249.474212385
184.747,249.627269958
184.762,249.779102756
184.777,249.929721664
184.792,250.079137666
184.807,250.227361822
184.822,250.374405256
184.837,250.520279134
184.852,250.664994657
184.867,250.808563042
184.882,250.950995515
184.897,251.092303294
184.912,251.232497585
184.927,251.371589566
184.942,251.509590385
184.957,251.646511149
184.972,251.782362915
184.987,251.917156689
185.002,252.050903413
185.017,252.183613965
185.032,252.315299155
185.047,252.445969714
185.062,252.575636299
185.077,252.704309482
185.092,252.831999752
185.107,252.958717509
185.122,253.084473063
185.137,253.209276633
185.152,253.333138345
185.167,253.456068227
185.182,253.578076213
185.197,253.699172137
185.212,253.819365737
185.227,253.938666649
185.242,254.057084412
185.257,254.174628464
185.272,254.291308141
185.287,254.40713268
185.302,254.522111218
185.31,254.583090309
185.317,254.636252791
185.332,254.749566336
185.347,254.862060687
185.362,254.973744583
185.377,255.084626661
185.392,255.19471546
185.407,255.304019423
185.422,255.412546894
185.437,255.520306121
185.452,255.627305256
185.467,255.733552355
185.482,255.839055383
185.497,255.943822207
185.512,256.047860605
185.527,256.151178261
185.542,256.253782768
185.557,256.355681631
185.572,256.456882264
185.587,256.557391993
185.602,256.657218057
185.617,256.756367609
185.632,256.854847715
185.647,256.952665358
185.662,257.049827436
185.677,257.146340765
185.692,257.24221208
185.707,257.337448033
185.722,257.432055199
185.737,257.526040072
185.752,257.619409067
185.767,257.712168524
185.782,257.804324705
185.797,257.895883799
185.812,257.986851918
185.827,258.077235101
185.842,258.167039316
185.857,258.256270456
185.872,258.344934346
185.887,258.433036739
185.902,258.52058332
185.917,258.607579705
185.932,258.694031442
185.947,258.779944012
185.96,258.853969636
185.962,258.865322832
185.977,258.950173252
185.992,259.034500559
186.007,259.118309973
186.022,259.201606657
186.037,259.284395706
186.052,259.366682157
186.06,259.410364479
186.067,259.448470988
186.082,259.529767112
186.097,259.610575389
186.112,259.690900616
186.127,259.770747535
186.142,259.850120829
186.157,259.929025128
186.172,260.007465003
186.187,260.085444972
186.202,260.1629695
186.217,260.240042995
186.232,260.316669816
186.247,260.392854267
186.262,260.468600602
186.277,260.543913023
186.292,260.618795683
186.307,260.693252684
186.322,260.767288081
186.337,260.840905877
186.352,260.914110031
186.367,260.986904452
186.382,261.059293004
186.397,261.131279504
186.412,261.202867723
186.427,261.274061387
186.442,261.34486418
186.457,261.41527974
186.472,261.48531166
186.487,261.554963493
186.502,261.62423875
186.517,261.693140897
186.532,261.761673362
186.547,261.82983953
186.562,261.897642746
186.577,261.965086318
186.592,262.032173511
186.607,262.098907553
186.622,262.165291633
186.637,262.231328904
186.652,262.297022478
186.667,262.362375434
186.682,262.427390812
186.697,262.492071617
186.71,262.547859978
186.712,262.556420818
186.727,262.620441349
186.742,262.684136109
186.757,262.747507963
186.772,262.810559743
186.787,262.873294246
186.802,262.935714237
186.817,262.997822447
186.832,263.059621578
186.847,263.121114296
186.862,263.182303238
186.877,263.243191011
186.892,263.303780188
186.907,263.364073315
186.922,263.424072906
186.937,263.483781447
186.952,263.543201393
186.967,263.602335172
186.982,263.661185183
186.997,263.719753797
187.012,263.778043356
187.027,263.836056177
187.042,263.893794549
187.057,263.951260732
187.072,264.008456963
187.087,264.065385452
187.102,264.122048382
187.117,264.178447912
187.132,264.234586175
187.147,264.29046528
187.162,264.346087311
187.177,264.401454329
187.192,264.45656837
187.207,264.511431446
187.222,264.566045548
187.237,264.620412642
187.252,264.674534672
187.267,264.728413559
187.282,264.782051204
187.297,264.835449484
187.312,264.888610256
187.327,264.941535354
187.342,264.994226593
187.357,265.046685766
187.372,265.098914647
187.387,265.150914988
187.402,265.202688522
187.417,265.254236962
187.432,265.305562003
187.447,265.356665319
187.46,265.400776788
187.462,265.407548565
187.477,265.458213379
187.492,265.508661381
187.507,265.558894169
187.522,265.608913327
187.537,265.65872042
187.552,265.708316995
187.567,265.757704581
187.582,265.806884693
187.597,265.855858826
187.612,265.90462846
187.627,265.953195058
187.642,266.001560067
187.657,266.049724919
187.672,266.097691027
187.687,266.145459793
187.702,266.1930326
187.717,266.240410817
187.732,266.287595799
187.747,266.334588886
187.762,266.381391401
187.777,266.428004657
187.792,266.474429947
187.807,266.520668556
187.822,266.566721752
187.837,266.612590788
187.852,266.658276907
187.867,266.703781337
187.882,266.749105292
187.897,266.794249973
187.912,266.839216572
187.927,266.884006262
187.942,266.92862021
187.957,266.973059566
187.972,267.01732547
187.987,267.06141905
188.002,267.105341421
188.017,267.149093687
188.032,267.192676942
188.047,267.236092266
188.062,267.279340729
188.077,267.32242339
188.092,267.365341298
188.107,267.408095489
188.122,267.45068699
188.137,267.493116818
188.152,267.535385977
188.167,267.577495463
188.182,267.619446262
188.197,267.661239349
188.21,267.697333199
188.212,267.702875689
188.227,267.744356239
188.242,267.785681945
188.257,267.826853743
188.272,267.867872561
188.287,267.908739317
188.302,267.94945492
188.317,267.99002027
188.332,268.03043626
188.347,268.07070377
188.362,268.110823675
188.377,268.150796841
188.392,268.190624124
188.407,268.230306373
188.422,268.269844429
188.437,268.309239124
188.452,268.348491281
188.467,268.387601718
188.482,268.426571244
188.497,268.465400658
188.512,268.504090756
188.527,268.542642322
188.542,268.581056135
188.557,268.619332966
188.572,268.65747358
188.587,268.695478732
188.602,268.733349174
188.617,268.771085648
188.632,268.80868889
188.647,268.846159629
188.66,268.878527648
188.662,268.883498588
188.677,268.920706482
188.692,268.957784023
188.707,268.994731912
188.722,269.031550846
