# 48698 WSSS Singapore Observations at 12Z 07 Aug 2020
Frequency [GHz],TB
175.31,277.58402141
175.322,277.559402555
175.337,277.528549027
175.352,277.49760636
175.367,277.46657423
175.382,277.435452312
175.397,277.404240287
175.412,277.37293782
175.427,277.341544599
175.442,277.310060282
175.457,277.278484534
175.472,277.246817038
175.487,277.215057434
175.502,277.183205407
175.517,277.151260607
175.532,277.119222702
175.547,277.087091345
175.562,277.054866188
175.577,277.022546885
175.592,276.990133095
175.607,276.957624461
175.622,276.925020637
175.637,276.892321265
175.652,276.859525993
175.667,276.826634467
175.682,276.793646318
175.697,276.760561194
175.712,276.727378731
175.727,276.69409856
175.742,276.66072032
175.757,276.627243636
175.772,276.593668146
175.787,276.559993473
175.802,276.526219236
175.817,276.49234508
175.832,276.458370604
175.847,276.424295445
175.862,276.390119207
175.877,276.355841519
175.892,276.321461993
175.907,276.286980238
175.922,276.252395864
175.937,276.217708481
175.952,276.182917703
175.967,276.148023126
175.982,276.113024358
175.997,276.077920994
176.012,276.042712638
176.027,276.007398887
176.042,275.97197934
176.057,275.936453586
176.072,275.900821216
176.087,275.865081821
176.102,275.829234984
176.117,275.793280302
176.132,275.757217345
176.147,275.721045707
176.162,275.68476496
176.177,275.648374685
176.192,275.611874453
176.207,275.575263851
176.222,275.53854243
176.237,275.501709783
176.252,275.464765456
176.267,275.427709043
176.282,275.390540079
176.297,275.353258149
176.31,275.320855414
176.312,275.315862803
176.327,275.278353598
176.342,275.240730093
176.357,275.202991849
176.372,275.16513841
176.387,275.127169324
176.402,275.089084155
176.417,275.050882436
176.432,275.01256372
176.447,274.974127548
176.46,274.940720834
176.462,274.935573459
176.477,274.896900994
176.492,274.858109701
176.507,274.819199091
176.522,274.78016872
176.537,274.741018118
176.552,274.701746804
176.567,274.662354315
176.582,274.622840171
176.597,274.5832039
176.612,274.543445029
176.627,274.503563075
176.642,274.463557552
176.657,274.423427982
176.672,274.383173888
176.687,274.342794768
176.702,274.302290149
176.717,274.261659528
176.732,274.220902423
176.747,274.180018336
176.762,274.139006771
176.777,274.097867235
176.792,274.056599225
176.807,274.015202243
176.822,273.973675791
176.837,273.932019351
176.852,273.890232435
176.867,273.848314525
176.882,273.806265112
176.897,273.764083687
176.912,273.721769752
176.927,273.679322768
176.942,273.63674224
176.957,273.594027636
176.972,273.55117845
176.987,273.508194153
177.002,273.465074229
177.017,273.421818152
177.032,273.378425398
177.047,273.33489544
177.062,273.291227748
177.077,273.2474218
177.092,273.203477061
177.107,273.159393
177.122,273.115169078
177.137,273.070804772
177.152,273.026299532
177.167,272.981652832
177.182,272.936864128
177.197,272.891932877
177.21,272.852876743
177.212,272.846858546
177.227,272.801640586
177.242,272.756278455
177.257,272.710771606
177.272,272.665119491
177.287,272.619321566
177.302,272.573377287
177.31,272.548813632
177.317,272.527286095
177.332,272.481047443
177.347,272.434660784
177.362,272.388125556
177.377,272.341441207
177.392,272.294607191
177.407,272.247622941
177.422,272.200487905
177.437,272.15320153
177.452,272.105763246
177.467,272.058172497
177.482,272.010428733
177.497,271.962531384
177.512,271.91447989
177.527,271.866273689
177.542,271.817912216
177.557,271.769394912
177.572,271.720721201
177.587,271.671890531
177.602,271.62290233
177.617,271.573756039
177.632,271.524451073
177.647,271.474986889
177.66,271.431988687
177.662,271.425362904
177.677,271.375578553
177.692,271.325633272
177.707,271.27552649
177.722,271.225257637
177.737,271.174826147
177.752,271.124231449
177.767,271.073472976
177.782,271.022550151
177.797,270.971462421
177.812,270.9202092
177.827,270.868789923
177.842,270.817204027
177.857,270.765450942
177.872,270.713530092
177.887,270.66144091
177.902,270.609182834
177.917,270.556755296
177.932,270.504157718
177.947,270.451389542
177.96,270.405518686
177.962,270.398450198
177.977,270.34533911
177.992,270.292055739
178.007,270.238599492
178.022,270.184969816
178.037,270.131166146
178.052,270.077187917
178.067,270.023034575
178.082,269.968705544
178.097,269.91420028
178.112,269.859518209
178.127,269.80465878
178.142,269.749621432
178.157,269.694405608
178.172,269.639010757
178.187,269.583436324
178.202,269.527681747
178.217,269.471746492
178.232,269.415629988
178.247,269.359331704
178.262,269.30285109
178.277,269.246187591
178.292,269.189340671
178.307,269.13230978
178.322,269.075094388
178.337,269.01769395
178.352,268.960107931
178.367,268.902335793
178.382,268.844377008
178.397,268.78623104
178.41,268.735686049
178.412,268.72789736
178.427,268.669375445
178.442,268.610664766
178.457,268.55176481
178.472,268.492675048
178.487,268.433394967
178.502,268.373924045
178.517,268.314261777
178.532,268.254407652
178.547,268.194361162
178.562,268.134121801
178.577,268.07368907
178.592,268.01306246
178.607,267.95224149
178.622,267.891225661
178.637,267.83001448
178.652,267.768607462
178.667,267.707004119
178.682,267.64520398
178.697,267.583206557
178.712,267.521011382
178.727,267.458617985
178.742,267.396025901
178.757,267.333234652
178.772,267.270243793
178.787,267.207052856
178.802,267.143661403
178.817,267.08006897
178.832,267.016275118
178.847,266.952279406
178.862,266.888081395
178.877,266.823680649
178.892,266.759076742
178.907,266.694269249
178.922,266.629257743
178.937,266.564041811
178.952,266.498621039
178.967,266.432995021
178.982,266.367163344
178.997,266.301125619
179.012,266.234881438
179.027,266.168430422
179.042,266.101772172
179.057,266.034906317
179.072,265.967832469
179.087,265.900550261
179.102,265.833059323
179.117,265.765359293
179.132,265.697449813
179.147,265.629330522
179.16,265.570123822
179.162,265.561001074
179.177,265.49246112
179.192,265.423710328
179.207,265.354748357
179.222,265.285574883
179.237,265.216189568
179.252,265.146592103
179.267,265.076782172
179.282,265.006759457
179.297,264.936523655
179.312,264.866074466
179.327,264.795411596
179.342,264.724534745
179.357,264.653443634
179.372,264.582137984
179.387,264.510617504
179.402,264.438881942
179.417,264.366931017
179.432,264.294764472
179.447,264.222382052
179.462,264.149783498
179.477,264.076968561
179.492,264.003936995
179.507,263.930688575
179.522,263.85722305
179.537,263.783540202
179.552,263.709639806
179.567,263.635521627
179.582,263.561185461
179.597,263.486631085
179.612,263.41185829
179.627,263.336866882
179.642,263.261656648
179.657,263.186227392
179.672,263.110578922
179.687,263.034711049
179.702,262.958623582
179.717,262.882316341
179.732,262.805789136
179.747,262.729041793
179.762,262.652074136
179.777,262.574885996
179.792,262.497477189
179.807,262.419847559
179.822,262.341996933
179.837,262.263925139
179.852,262.185632026
179.867,262.107117422
179.882,262.028381168
179.897,261.949423094
179.91,261.880813223
179.912,261.870243051
179.927,261.790840872
179.942,261.711216396
179.957,261.631369462
179.972,261.551299906
179.987,261.471007565
180.002,261.390492273
180.017,261.309753862
180.032,261.228792168
180.047,261.147607009
180.062,261.066198221
180.077,260.98456562
180.092,260.902709018
180.107,260.820628236
180.122,260.738323081
180.137,260.655793354
180.152,260.573038859
180.167,260.490059372
180.182,260.406854695
180.197,260.323424593
180.212,260.239768838
180.227,260.155887191
180.242,260.071779403
180.257,259.98744522
180.272,259.902884364
180.287,259.818096557
180.302,259.733081517
180.317,259.647838924
180.332,259.562368487
180.347,259.476669848
180.362,259.390742675
180.377,259.304586601
180.392,259.21820126
180.407,259.131586251
180.422,259.044741155
180.437,258.957665555
180.452,258.870358996
180.467,258.782821011
180.482,258.695051104
180.497,258.607048766
180.512,258.518813453
180.527,258.430344617
180.542,258.341641662
180.557,258.25270398
180.56,258.234888221
180.572,258.163530931
180.587,258.074121845
180.602,257.984476037
180.617,257.894592767
180.632,257.804471289
180.647,257.714110807
180.66,257.635604425
180.662,257.623510493
180.677,257.532669489
180.692,257.441586911
180.707,257.350261818
180.722,257.258693236
180.737,257.166880164
180.752,257.074821547
180.767,256.982516293
180.782,256.88996327
180.797,256.797161297
180.812,256.704109144
180.827,256.610805537
180.842,256.517249173
180.857,256.423438659
180.872,256.329372584
180.887,256.235049482
180.902,256.140467819
180.917,256.045626016
180.932,255.95052244
180.947,255.855155401
180.962,255.759523137
180.977,255.663623845
180.992,255.567455657
181.007,255.471016636
181.022,255.374304791
181.037,255.27731806
181.052,255.180054325
181.067,255.082511383
181.082,254.98468699
181.097,254.886578814
181.112,254.788184463
181.127,254.689501474
181.142,254.590527312
181.157,254.49125936
181.172,254.391694954
181.187,254.291831335
181.202,254.191665682
181.217,254.091195095
181.232,253.9904166
181.247,253.889327144
181.262,253.787923607
181.277,253.6862028
181.292,253.584161423
181.307,253.481796155
181.31,253.461283933
181.322,253.379103552
181.337,253.276080133
181.352,253.172722303
181.367,253.069026431
181.382,252.964988781
181.397,252.860605574
181.412,252.755872931
181.427,252.650786925
181.442,252.545343539
181.457,252.439538712
181.472,252.333368295
181.487,252.226828088
181.502,252.119913812
181.517,252.012621151
181.532,251.904945711
181.547,251.796883047
181.562,251.68842867
181.577,251.579578033
181.592,251.470326537
181.607,251.360669545
181.622,251.250602391
181.637,251.140120354
181.652,251.029218696
181.667,250.917892636
181.682,250.806137385
181.697,250.693948128
181.712,250.58132005
181.727,250.468248309
181.742,250.354728076
181.757,250.240754527
181.772,250.126322839
181.787,250.011428212
181.802,249.896065886
181.817,249.780231107
181.832,249.66391917
181.847,249.547125438
181.862,249.429845295
181.877,249.312074219
181.892,249.19380775
181.907,249.075041513
181.922,248.955771225
181.937,248.835992701
181.952,248.715701878
181.967,248.594894807
181.982,248.473567683
181.997,248.351716831
182.012,248.229338757
182.027,248.106430112
182.042,247.982987745
182.057,247.859008692
182.06,247.834148231
182.072,247.734490193
182.087,247.609429715
182.102,247.483824953
182.117,247.357673854
182.132,247.230974616
182.147,247.103725736
182.162,246.975925968
182.177,246.847574395
182.192,246.718670416
182.207,246.589213759
182.222,246.459204516
182.237,246.328643125
182.252,246.197530441
182.267,246.065867675
182.282,245.933656482
182.297,245.80089896
182.312,245.667597623
182.327,245.533755477
182.342,245.399376006
182.357,245.264463189
182.372,245.129021526
182.387,244.993056053
182.402,244.856572358
182.417,244.719576603
182.432,244.58207553
182.447,244.444076491
182.462,244.305587461
182.477,244.166617041
182.492,244.027174497
182.507,243.88726975
182.522,243.746913429
182.537,243.606116818
182.552,243.464891936
182.567,243.323251494
182.582,243.181208929
182.597,243.03877838
182.612,242.89597471
182.627,242.752813467
182.642,242.609310869
182.657,242.465483778
182.672,242.321349641
182.687,242.176926431
182.702,242.032232555
182.717,241.887286725
182.732,241.742107834
182.747,241.596714702
182.762,241.451125893
182.777,241.305359332
182.792,241.159431909
182.807,241.01335898
182.822,240.867153683
182.837,240.720826121
182.852,240.574382329
182.867,240.427822954
182.882,240.281141596
182.897,240.134322735
182.912,239.987339108
182.927,239.840148313
182.942,239.692688598
182.957,239.544873405
182.972,239.396584353
182.987,239.247662219
183.002,239.09789517
183.017,238.947003327
183.032,238.794618397
183.047,238.64025651
183.062,238.483281594
183.077,238.322855583
183.092,238.157869771
183.107,237.98684915
183.122,237.807817225
183.137,237.618102483
183.152,237.41405754
183.167,237.190646702
183.182,236.940835349
183.197,236.654686993
183.212,236.318060516
183.227,235.910891836
183.242,235.405617293
183.257,234.768835392
183.367,234.932719138
183.382,235.529853354
183.397,236.004142386
183.412,236.388128868
183.427,236.707384119
183.442,236.980282418
183.457,237.219742428
183.472,237.434853381
183.487,237.632066895
183.502,237.816014927
183.517,237.99006198
183.532,238.156678702
183.547,238.31769694
183.562,238.474486154
183.577,238.628077043
183.592,238.779249322
183.607,238.928594953
183.622,239.076564099
183.637,239.223499068
183.652,239.369659518
183.667,239.515241442
183.682,239.660391548
183.697,239.805218267
183.712,239.949800208
183.727,240.094192732
183.742,240.238433067
183.757,240.382544299
183.772,240.526538546
183.787,240.670419409
183.802,240.814183973
183.817,240.957824336
183.832,241.101328861
183.847,241.244683154
183.862,241.387870825
183.877,241.530874134
183.892,241.673674463
183.907,241.816252692
183.922,241.958589538
183.937,242.10066575
183.952,242.242462315
183.967,242.383960599
183.982,242.525142454
183.997,242.665990298
184.012,242.806487172
184.027,242.94661679
184.042,243.086363558
184.057,243.225712605
184.072,243.364649764
184.087,243.503161614
184.102,243.641235456
184.117,243.778859289
184.132,243.916021849
184.147,244.052712539
184.162,244.188921457
184.177,244.324639375
184.192,244.459857697
184.207,244.594568472
184.222,244.728764363
184.237,244.862438623
184.252,244.995585095
184.267,245.128198184
184.282,245.260272831
184.297,245.39180451
184.312,245.522789208
184.327,245.653223394
184.342,245.783104015
184.357,245.912428479
184.372,246.041194625
184.387,246.169400727
184.402,246.297045455
184.417,246.424127876
184.432,246.550647424
184.447,246.676603903
184.462,246.801997449
184.477,246.926828541
184.492,247.051097941
184.507,247.174806745
184.522,247.29795631
184.537,247.420548268
184.552,247.542584505
184.56,247.607443995
184.567,247.664067156
184.582,247.784998565
184.597,247.905381325
184.612,248.025218198
184.627,248.144512161
184.642,248.26326636
184.657,248.3814841
184.672,248.499168858
184.687,248.616324241
184.702,248.732954001
184.717,248.849062011
184.732,248.964652251
184.747,249.079728814
184.762,249.194295871
184.777,249.308357693
184.792,249.42191863
184.807,249.534983084
184.822,249.647555526
184.837,249.75964048
184.852,249.871242513
184.867,249.982366233
184.882,250.093016254
184.897,250.203197251
184.912,250.312913887
184.927,250.422170853
184.942,250.530972825
184.957,250.639324508
184.972,250.747230569
184.987,250.854695693
185.002,250.961724532
185.017,251.068321713
185.032,251.174491864
185.047,251.280239562
185.062,251.385569356
185.077,251.490485773
185.092,251.594993279
185.107,251.699096316
185.122,251.802799281
185.137,251.906106511
185.152,252.009022307
185.167,252.111550908
185.182,252.213696504
185.197,252.315463224
185.212,252.416855142
185.227,252.517876276
185.242,252.618530578
185.257,252.718821941
185.272,252.818754195
185.287,252.918331097
185.302,253.017556347
185.31,253.070333949
185.317,253.116433581
185.332,253.214966361
185.347,253.313158188
185.362,253.411012492
185.377,253.508532639
185.392,253.605721921
185.407,253.702583563
185.422,253.799120734
185.437,253.895336512
185.452,253.991233932
185.467,254.086815945
185.482,254.18208544
185.497,254.277045238
185.512,254.3716981
185.527,254.46604672
185.542,254.560093715
185.557,254.65384165
185.572,254.74729302
185.587,254.840450269
185.602,254.933315749
185.617,255.025891795
185.632,255.118180643
185.647,255.210184485
185.662,255.301905458
185.677,255.393345631
185.692,255.484507029
185.707,255.575391603
185.722,255.666001265
185.737,255.756337872
185.752,255.846403219
185.767,255.936199056
185.782,256.025727083
185.797,256.114988946
185.812,256.203986249
185.827,256.292720548
185.842,256.381193334
185.857,256.46940608
185.872,256.557360208
185.887,256.64505708
185.902,256.732498031
185.917,256.819684366
185.932,256.906617318
185.947,256.99329811
185.96,257.068218405
185.962,257.079727918
185.977,257.165907873
185.992,257.251839083
186.007,257.337522623
186.022,257.422959513
186.037,257.508150765
186.052,257.593097356
186.06,257.638302478
186.067,257.677800206
186.082,257.762260244
186.097,257.846478342
186.112,257.930455362
186.127,258.014192128
186.142,258.097689434
186.157,258.180948067
186.172,258.263968776
186.187,258.346752289
186.202,258.42929931
186.217,258.511610528
186.232,258.593686598
186.247,258.67552818
186.262,258.757135886
186.277,258.838510328
186.292,258.919652095
186.307,259.000561758
186.322,259.081239861
186.337,259.16168696
186.352,259.241903572
186.367,259.321890208
186.382,259.401647364
186.397,259.481175523
186.412,259.560475156
186.427,259.639546725
186.442,259.718390672
186.457,259.797007445
186.472,259.875397461
186.487,259.953561142
186.502,260.031498895
186.517,260.10921112
186.532,260.186698212
186.547,260.26396055
186.562,260.340998511
186.577,260.417812469
186.592,260.494402786
186.607,260.570769821
186.622,260.646913922
186.637,260.722835434
186.652,260.798534707
186.667,260.874012078
186.682,260.949267877
186.697,261.024302437
186.71,261.089153679
186.712,261.099116085
186.727,261.173709143
186.742,261.248081932
186.757,261.32223477
186.772,261.396167975
186.787,261.469881864
186.802,261.543376749
186.817,261.616652939
186.832,261.689710742
186.847,261.762550479
186.862,261.835172447
186.877,261.907576959
186.892,261.97976432
186.907,262.051734842
186.922,262.123488831
186.937,262.195026602
186.952,262.266348448
186.967,262.337454696
186.982,262.408345654
186.997,262.479021621
187.012,262.549482923
187.027,262.619729865
187.042,262.68976277
187.057,262.759581942
187.072,262.829187713
187.087,262.898580397
187.102,262.967760316
187.117,263.03672779
187.132,263.10548315
187.147,263.17402672
187.162,263.242358839
187.177,263.310479824
187.192,263.37839002
187.207,263.446089766
187.222,263.513579392
187.237,263.580859247
187.252,263.647929676
187.267,263.71479102
187.282,263.781443631
187.297,263.847887866
187.312,263.914124079
187.327,263.980152621
187.342,264.045973864
187.357,264.11158816
187.372,264.176995884
187.387,264.242197405
187.402,264.307193086
187.417,264.371983313
187.432,264.436568461
187.447,264.500948914
187.46,264.556580019
187.462,264.565125049
187.477,264.629097256
187.492,264.69286592
187.507,264.756431447
187.522,264.819794223
187.537,264.882954652
187.552,264.945913133
187.567,265.008670061
187.582,265.07122586
187.597,265.133580934
187.612,265.195735698
187.627,265.257690563
187.642,265.319445949
187.657,265.381002279
187.672,265.442359983
187.687,265.503519484
187.702,265.56448121
187.717,265.6252456
187.732,265.685813084
187.747,265.746184096
187.762,265.806359092
187.777,265.866338506
187.792,265.926122782
187.807,265.985712373
187.822,266.045107737
187.837,266.104309311
187.852,266.16331756
187.867,266.222132945
187.882,266.280755926
187.897,266.339186969
187.912,266.39742653
187.927,266.455475081
187.942,266.513333103
187.957,266.57100106
187.972,266.628479422
187.987,266.685768672
188.002,266.742869286
188.017,266.799781747
188.032,266.856506541
188.047,266.913044143
188.062,266.969395051
188.077,267.025559739
188.092,267.081538718
188.107,267.137332461
188.122,267.192941474
188.137,267.248366243
188.152,267.303607278
188.167,267.358665068
188.182,267.413540114
188.197,267.468232922
188.21,267.515486336
188.212,267.522743996
188.227,267.577073835
188.242,267.631222957
188.257,267.685191857
188.272,267.738981054
188.287,267.792591054
188.302,267.846022364
188.317,267.899275504
188.332,267.95235099
188.347,268.00524933
188.362,268.057971045
188.377,268.110516647
188.392,268.162886666
188.407,268.215081606
188.422,268.267101998
188.437,268.318948356
188.452,268.370621212
188.467,268.422121081
188.482,268.473448488
188.497,268.524603951
188.512,268.575588012
188.527,268.62640118
188.542,268.67704398
188.557,268.727516953
188.572,268.777820613
188.587,268.8279555
188.602,268.877922131
188.617,268.927721039
188.632,268.977352751
188.647,269.026817795
188.66,269.0695531
188.662,269.07611671
188.677,269.125250014
188.692,269.174218243
188.707,269.223021928
188.722,269.271661597
188.737,269.320137781
188.752,269.368451006
