# 01004 ENAS Ny-Alesund Ii Observations at 12Z 07 Aug 2020
Frequency [GHz],TB
175.31,271.291636563
175.322,271.292949773
175.337,271.294427433
175.352,271.295722546
175.367,271.296834596
175.382,271.297763069
175.397,271.298507454
175.412,271.299067247
175.427,271.299441946
175.442,271.299631054
175.457,271.29963408
175.472,271.299450535
175.487,271.299079936
175.502,271.298521803
175.517,271.297775663
175.532,271.296841046
175.547,271.295717486
175.562,271.294404524
175.577,271.292901705
175.592,271.291208576
175.607,271.289324694
175.622,271.287249617
175.637,271.284982908
175.652,271.282524138
175.667,271.27987288
175.682,271.277028714
175.697,271.273991225
175.712,271.270760002
175.727,271.267334639
175.742,271.263714738
175.757,271.259899904
175.772,271.255889747
175.787,271.251683884
175.802,271.247281937
175.817,271.242683532
175.832,271.237888303
175.847,271.232895889
175.862,271.227705932
175.877,271.222318082
175.892,271.216731995
175.907,271.210947331
175.922,271.204963756
175.937,271.198780944
175.952,271.192398573
175.967,271.185816325
175.982,271.179033892
175.997,271.172050967
176.012,271.164867254
176.027,271.15748246
176.042,271.149896297
176.057,271.142108486
176.072,271.134118751
176.087,271.125926824
176.102,271.117532443
176.117,271.10893535
176.132,271.100135295
176.147,271.091132034
176.162,271.081925328
176.177,271.072514946
176.192,271.06290066
176.207,271.053082251
176.222,271.043059505
176.237,271.032832215
176.252,271.022400178
176.267,271.0117632
176.282,271.00092109
176.297,270.989873667
176.31,270.98013302
176.312,270.978620752
176.327,270.967162176
176.342,270.955497772
176.357,270.943627384
176.372,270.931550859
176.387,270.919268049
176.402,270.906778816
176.417,270.894083026
176.432,270.881180549
176.447,270.868071265
176.46,270.856542512
176.462,270.854755058
176.477,270.841231818
176.492,270.827501441
176.507,270.81356383
176.522,270.799418893
176.537,270.785066545
176.552,270.770506705
176.567,270.7557393
176.582,270.740764262
176.597,270.725581529
176.612,270.710191044
176.627,270.694592757
176.642,270.678786623
176.657,270.662772602
176.672,270.646550663
176.687,270.630120776
176.702,270.613482919
176.717,270.596637076
176.732,270.579583235
176.747,270.562321391
176.762,270.544851542
176.777,270.527173694
176.792,270.509287857
176.807,270.491194046
176.822,270.472892281
176.837,270.454382587
176.852,270.435664996
176.867,270.416739542
176.882,270.397606265
176.897,270.378265211
176.912,270.35871643
176.927,270.338959974
176.942,270.318995905
176.957,270.298824284
176.972,270.27844518
176.987,270.257858664
177.002,270.237064814
177.017,270.216063709
177.032,270.194855433
177.047,270.173440077
177.062,270.151817731
177.077,270.129988492
177.092,270.107952459
177.107,270.085709736
177.122,270.063260431
177.137,270.040604651
177.152,270.017742513
177.167,269.994674131
177.182,269.971399626
177.197,269.947919119
177.21,269.927402812
177.212,269.924232737
177.227,269.900340608
177.242,269.876242862
177.257,269.851939632
177.272,269.827431053
177.287,269.802717264
177.302,269.777798405
177.31,269.764424544
177.317,269.752674616
177.332,269.727346042
177.347,269.701812828
177.362,269.676075121
177.377,269.65013307
177.392,269.623986824
177.407,269.597636533
177.422,269.571082351
177.437,269.54432443
177.452,269.517362923
177.467,269.490197985
177.482,269.462829772
177.497,269.435258437
177.512,269.407484137
177.527,269.379507027
177.542,269.351327262
177.557,269.322944998
177.572,269.29436039
177.587,269.265573591
177.602,269.236584756
177.617,269.207394038
177.632,269.178001587
177.647,269.148407556
177.66,269.122596455
177.662,269.118612094
177.677,269.088615348
177.692,269.058417465
177.707,269.028018591
177.722,268.997418867
177.737,268.966618436
177.752,268.935617434
177.767,268.904416
177.782,268.873014266
177.797,268.841412365
177.812,268.809610423
177.827,268.777608568
177.842,268.74540692
177.857,268.713005599
177.872,268.680404721
177.887,268.647604397
177.902,268.614604736
177.917,268.581405843
177.932,268.548007817
177.947,268.514410754
177.96,268.485132372
177.962,268.480614747
177.977,268.446619882
177.992,268.412426242
178.007,268.378033905
178.022,268.343442944
178.037,268.308653426
178.052,268.273665414
178.067,268.238478965
178.082,268.20309413
178.097,268.167510955
178.112,268.13172948
178.127,268.095749739
178.142,268.05957176
178.157,268.023195565
178.172,267.986621168
178.187,267.949848579
178.202,267.912877798
178.217,267.875708823
178.232,267.83834164
178.247,267.800776231
178.262,267.76301257
178.277,267.725050623
178.292,267.686890351
178.307,267.648531703
178.322,267.609974626
178.337,267.571219054
178.352,267.532264916
178.367,267.493112132
178.382,267.453760614
178.397,267.414210266
178.41,267.379772386
178.412,267.374460984
178.427,267.334512654
178.442,267.294365154
178.457,267.254018355
178.472,267.213472118
178.487,267.172726294
178.502,267.131780726
178.517,267.090635249
178.532,267.049289687
178.547,267.007743856
178.562,266.965997562
178.577,266.924050603
178.592,266.881902765
178.607,266.839553826
178.622,266.797003554
178.637,266.754251709
178.652,266.711298038
178.667,266.66814228
178.682,266.624784165
178.697,266.581223411
178.712,266.537459726
178.727,266.493492811
178.742,266.449322352
178.757,266.404948029
178.772,266.36036951
178.787,266.315586452
178.802,266.270598502
178.817,266.225405298
178.832,266.180006466
178.847,266.134401622
178.862,266.08859037
178.877,266.042572307
178.892,265.996347015
178.907,265.949914069
178.922,265.903273031
178.937,265.856423452
178.952,265.809364875
178.967,265.762096829
178.982,265.714618835
178.997,265.6669304
179.012,265.619031022
179.027,265.570920188
179.042,265.522597374
179.057,265.474062045
179.072,265.425313655
179.087,265.376351646
179.102,265.327175451
179.117,265.277784489
179.132,265.228178171
179.147,265.178355894
179.16,265.135001428
179.162,265.128317047
179.177,265.078061005
179.192,265.027587132
179.207,264.976894784
179.222,264.925983302
179.237,264.874852017
179.252,264.823500249
179.267,264.771927306
179.282,264.720132486
179.297,264.668115073
179.312,264.615874344
179.327,264.563409559
179.342,264.51071997
179.357,264.457804818
179.372,264.40466333
179.387,264.351294722
179.402,264.2976982
179.417,264.243872956
179.432,264.189818171
179.447,264.135533016
179.462,264.081016648
179.477,264.026268212
179.492,263.971286842
179.507,263.91607166
179.522,263.860621776
179.537,263.804936285
179.552,263.749014274
179.567,263.692854815
179.582,263.636456969
179.597,263.579819782
179.612,263.52294229
179.627,263.465823516
179.642,263.408462468
179.657,263.350858144
179.672,263.293009526
179.687,263.234915586
179.702,263.17657528
179.717,263.117987553
179.732,263.059151334
179.747,263.00006554
179.762,262.940729074
179.777,262.881140825
179.792,262.821299668
179.807,262.761204462
179.822,262.700854054
179.837,262.640247277
179.852,262.579382945
179.867,262.518259862
179.882,262.456876815
179.897,262.395232573
179.91,262.341595326
179.912,262.333325894
179.927,262.271155518
179.942,262.208720168
179.957,262.146018554
179.972,262.083049366
179.987,262.019811281
180.002,261.956302956
180.017,261.892523032
180.032,261.828470135
180.047,261.764142869
180.062,261.699539824
180.077,261.634659571
180.092,261.56950066
180.107,261.504061627
180.122,261.438340985
180.137,261.37233723
180.152,261.306048838
180.167,261.239474264
180.182,261.172611945
180.197,261.105460296
180.212,261.038017712
180.227,260.970282567
180.242,260.902253213
180.257,260.83392798
180.272,260.765305176
180.287,260.696383089
180.302,260.627159982
180.317,260.557634094
180.332,260.487803642
180.347,260.417666819
180.362,260.347221795
180.377,260.276466714
180.392,260.205399694
180.407,260.134018829
180.422,260.06232219
180.437,259.990307817
180.452,259.917973727
180.467,259.845317909
180.482,259.772338326
180.497,259.699032911
180.512,259.625399573
180.527,259.551436189
180.542,259.47714061
180.557,259.402510656
180.56,259.387544346
180.572,259.327544119
180.587,259.252238761
180.602,259.176592314
180.617,259.10060248
180.632,259.024266928
180.647,258.9475833
180.66,258.880840751
180.662,258.870549202
180.677,258.793162211
180.692,258.715419873
180.707,258.637319698
180.722,258.558859166
180.737,258.480035724
180.752,258.400846785
180.767,258.321289729
180.782,258.241361902
180.797,258.161060615
180.812,258.080383149
180.827,257.999326745
180.842,257.917888614
180.857,257.836065931
180.872,257.753855835
180.887,257.671255433
180.902,257.588261796
180.917,257.504871958
180.932,257.421082922
180.947,257.336891654
180.962,257.252295085
180.977,257.167290113
180.992,257.081873601
181.007,256.996042378
181.022,256.909793238
181.037,256.823122942
181.052,256.73602822
181.067,256.648505767
181.082,256.560552244
181.097,256.472164285
181.112,256.383338489
181.127,256.294071426
181.142,256.204359637
181.157,256.114199632
181.172,256.023587896
181.187,255.932520884
181.202,255.840995029
181.217,255.749006736
181.232,255.656552389
181.247,255.56362835
181.262,255.470230959
181.277,255.376356539
181.292,255.282001396
181.307,255.187161822
181.31,255.168135448
181.322,255.091834094
181.337,254.996014481
181.352,254.899699243
181.367,254.802884633
181.382,254.705566904
181.397,254.607742306
181.412,254.509407094
181.427,254.41055753
181.442,254.311189885
181.457,254.211300443
181.472,254.110885508
181.487,254.009941405
181.502,253.908464485
181.517,253.806451131
181.532,253.703897762
181.547,253.600800838
181.562,253.497156869
181.577,253.392962415
181.592,253.288214098
181.607,253.182908606
181.622,253.0770427
181.637,252.970613224
181.652,252.863617108
181.667,252.756051382
181.682,252.64791318
181.697,252.539199754
181.712,252.429908478
181.727,252.320036866
181.742,252.209582573
181.757,252.098543417
181.772,251.986917382
181.787,251.874702638
181.802,251.761897547
181.817,251.648500685
181.832,251.53451085
181.847,251.41992708
181.862,251.304748672
181.877,251.188975194
181.892,251.072606507
181.907,250.95564278
181.922,250.838084514
181.937,250.71993256
181.952,250.601188141
181.967,250.481852875
181.982,250.361928799
181.997,250.241418394
182.012,250.120324611
182.027,249.998650897
182.042,249.876401227
182.057,249.753580129
182.06,249.728947778
182.072,249.63019272
182.087,249.506244736
182.102,249.381742566
182.117,249.25669329
182.132,249.131104713
182.147,249.004985406
182.162,248.878344746
182.177,248.751192957
182.192,248.623541155
182.207,248.495401395
182.222,248.366786714
182.237,248.237711186
182.252,248.108189968
182.267,247.978239358
182.282,247.847876846
182.297,247.717121173
182.312,247.58599239
182.327,247.454511921
182.342,247.322702621
182.357,247.190588845
182.372,247.058196514
182.387,246.925553186
182.402,246.792688119
182.417,246.659632354
182.432,246.526418781
182.447,246.393082216
182.462,246.25965948
182.477,246.126189476
182.492,245.992713265
182.507,245.85927415
182.522,245.725917752
182.537,245.592692091
182.552,245.459647668
182.567,245.326837539
182.582,245.194317395
182.597,245.062145637
182.612,244.930383452
182.627,244.799094875
182.642,244.668346866
182.657,244.538209362
182.672,244.408755337
182.687,244.280060852
182.702,244.152205093
182.717,244.02527041
182.732,243.899342334
182.747,243.774509591
182.762,243.650864106
182.777,243.52850098
182.792,243.407518468
182.807,243.288017928
182.822,243.170103756
182.837,243.053883305
182.852,242.939466771
182.867,242.82696707
182.882,242.716499679
182.897,242.608182455
182.912,242.502135429
182.927,242.398480563
182.942,242.297341488
182.957,242.198843198
182.972,242.103111723
182.987,242.010273766
183.002,241.920456303
183.017,241.833786157
183.032,241.750389539
183.047,241.670391554
183.062,241.593915688
183.077,241.52108326
183.092,241.452012853
183.107,241.386819733
183.122,241.325615241
183.137,241.268506184
183.152,241.215594223
183.167,241.166975258
183.182,241.122738828
183.197,241.082967527
183.212,241.047736448
183.227,241.017112658
183.242,240.991154719
183.257,240.969912255
183.367,240.960574404
183.382,240.979258097
183.397,241.002648732
183.412,241.030695029
183.427,241.063336867
183.442,241.100505727
183.457,241.142125182
183.472,241.188111431
183.487,241.238373857
183.502,241.292815621
183.517,241.35133426
183.532,241.413822304
183.547,241.480167885
183.562,241.550255349
183.577,241.623965849
183.592,241.701177932
183.607,241.781768097
183.622,241.865611332
183.637,241.952581627
183.652,242.042552457
183.667,242.13539723
183.682,242.23098971
183.697,242.329204406
183.712,242.429916924
183.727,242.533004291
183.742,242.638345248
183.757,242.745820511
183.772,242.855313001
183.787,242.966708044
183.802,243.079893549
183.817,243.194760156
183.832,243.311201359
183.847,243.429113611
183.862,243.548396399
183.877,243.668952312
183.892,243.790687078
183.907,243.913509592
183.922,244.03733193
183.937,244.162069343
183.952,244.287640245
183.967,244.413966187
183.982,244.540971825
183.997,244.668584871
184.012,244.796736049
184.027,244.925359035
184.042,245.054390395
184.057,245.18376952
184.072,245.313438553
184.087,245.44334232
184.102,245.573428252
184.117,245.703646306
184.132,245.833948892
184.147,245.964290789
184.162,246.094629067
184.177,246.22492301
184.192,246.355134035
184.207,246.485225614
184.222,246.615163198
184.237,246.74491414
184.252,246.874447622
184.267,247.00373458
184.282,247.132747633
184.297,247.261461015
184.312,247.389850505
184.327,247.517893362
184.342,247.645568262
184.357,247.772855231
184.372,247.899735592
184.387,248.026191902
184.402,248.152207896
184.417,248.277768435
184.432,248.402859451
184.447,248.527467899
184.462,248.651581705
184.477,248.775189725
184.492,248.898281694
184.507,249.020848185
184.522,249.142880571
184.537,249.264370978
184.552,249.385312254
184.56,249.449587474
184.567,249.50569793
184.582,249.625522182
184.597,249.744779802
184.612,249.863466162
184.627,249.981577187
184.642,250.099109323
184.657,250.216059509
184.672,250.332425152
184.687,250.448204098
184.702,250.563394611
184.717,250.677995349
184.732,250.792005339
184.747,250.905423959
184.762,251.018250913
184.777,251.13048622
184.792,251.242130185
184.807,251.353183389
184.822,251.463646671
184.837,251.573521109
184.852,251.682808006
184.867,251.791508878
184.882,251.899625436
184.897,252.007159579
184.912,252.114113373
184.927,252.220489047
184.942,252.326288977
184.957,252.431515677
184.972,252.53617179
184.987,252.640260075
185.002,252.743783401
185.017,252.846744737
185.032,252.949147143
185.047,253.050993764
185.062,253.15228782
185.077,253.253032603
185.092,253.353231466
185.107,253.452887819
185.122,253.552005124
185.137,253.650586885
185.152,253.748636648
185.167,253.846157994
185.182,253.943154533
185.197,254.0396299
185.212,254.135587751
185.227,254.231031761
185.242,254.325965617
185.257,254.420393016
185.272,254.514317662
185.287,254.607743263
185.302,254.700673527
185.31,254.750035075
185.317,254.793112158
185.332,254.885062859
185.347,254.976529323
185.362,255.067515234
185.377,255.158024266
185.392,255.248060077
185.407,255.337626312
185.422,255.426726598
185.437,255.515364543
185.452,255.603543735
185.467,255.691267742
185.482,255.778540106
185.497,255.865364349
185.512,255.951743965
185.527,256.037682424
185.542,256.123183168
185.557,256.208249613
185.572,256.292885144
185.587,256.37709312
185.602,256.460876867
185.617,256.544239683
185.632,256.627184836
185.647,256.709715561
185.662,256.791835063
185.677,256.873546513
185.692,256.954853053
185.707,257.035757791
185.722,257.116263801
185.737,257.196374129
185.752,257.276091783
185.767,257.355419741
185.782,257.434360949
185.797,257.512918318
185.812,257.591094728
185.827,257.668893024
185.842,257.74631602
185.857,257.823366498
185.872,257.900047206
185.887,257.97636086
185.902,258.052310145
185.917,258.127897712
185.932,258.203126182
185.947,258.277998145
185.96,258.342600781
185.962,258.352516156
185.977,258.426682744
185.992,258.500500403
186.007,258.573971598
186.022,258.647098763
186.037,258.719884305
186.052,258.792330597
186.06,258.830830715
186.067,258.864439984
186.082,258.936214784
186.097,259.007657284
186.112,259.078769743
186.127,259.149554392
186.142,259.220013434
186.157,259.290149044
186.172,259.359963371
186.187,259.429458537
186.202,259.498636636
186.217,259.567499738
186.232,259.636049886
186.247,259.704289098
186.262,259.772219366
186.277,259.839842658
186.292,259.907160917
186.307,259.974176063
186.322,260.040889992
186.337,260.107304575
186.352,260.173421662
186.367,260.239243079
186.382,260.304770631
186.397,260.370006099
186.412,260.434951243
186.427,260.499607803
186.442,260.563977496
186.457,260.628062019
186.472,260.69186305
186.487,260.755382243
186.502,260.818621237
186.517,260.881581648
186.532,260.944265074
186.547,261.006673095
186.562,261.068807271
186.577,261.130669143
186.592,261.192260237
186.607,261.253582058
186.622,261.314636095
186.637,261.375423821
186.652,261.43594669
186.667,261.49620614
186.682,261.556203593
186.697,261.615940454
186.71,261.667502686
186.712,261.675418114
186.727,261.734637945
186.742,261.793601308
186.757,261.852309544
186.772,261.910763984
186.787,261.96896594
186.802,262.026916712
186.817,262.084617584
186.832,262.142069829
186.847,262.199274702
186.862,262.256233448
186.877,262.312947296
186.892,262.369417463
186.907,262.425645153
186.922,262.481631556
186.937,262.537377851
186.952,262.592885203
186.967,262.648154765
186.982,262.703187678
186.997,262.757985072
187.012,262.812548062
187.027,262.866877756
187.042,262.920975245
187.057,262.974841614
187.072,263.028477932
187.087,263.081885261
187.102,263.135064649
187.117,263.188017133
187.132,263.240743743
187.147,263.293245493
187.162,263.345523392
187.177,263.397578434
187.192,263.449411605
187.207,263.501023881
187.222,263.552416227
187.237,263.603589599
187.252,263.654544943
187.267,263.705283194
187.282,263.755805279
187.297,263.806112114
187.312,263.856204607
187.327,263.906083656
187.342,263.95575015
187.357,264.005204967
187.372,264.054448979
187.387,264.103483046
187.402,264.152308021
187.417,264.200924746
187.432,264.249334058
187.447,264.297536781
187.46,264.339145998
187.462,264.345533732
187.477,264.39332572
187.492,264.440913545
187.507,264.488297999
187.522,264.535479863
187.537,264.582459913
187.552,264.629238915
187.567,264.675817626
187.582,264.722196797
187.597,264.768377169
187.612,264.814359475
187.627,264.860144441
187.642,264.905732784
187.657,264.951125214
187.672,264.996322431
187.687,265.04132513
187.702,265.086133996
187.717,265.130749707
187.732,265.175172933
187.747,265.219404338
187.762,265.263444575
187.777,265.307294292
187.792,265.35095413
187.807,265.394424719
187.822,265.437706685
187.837,265.480800646
187.852,265.52370721
187.867,265.566426982
187.882,265.608960555
187.897,265.651308519
187.912,265.693471454
187.927,265.735449934
187.942,265.777244525
187.957,265.818855787
187.972,265.860284272
187.987,265.901530526
188.002,265.942595088
188.017,265.983478488
188.032,266.024181253
188.047,266.064703899
188.062,266.105046938
188.077,266.145210874
188.092,266.185196206
188.107,266.225003424
188.122,266.264633013
188.137,266.304085452
188.152,266.343361211
188.167,266.382460757
188.182,266.421384547
188.197,266.460133035
188.21,266.493573603
188.212,266.498706667
188.227,266.537105882
188.242,266.575331115
188.257,266.613382794
188.272,266.65126134
188.287,266.688967169
188.302,266.72650069
188.317,266.763862309
188.332,266.801052422
188.347,266.838071422
188.362,266.874919696
188.377,266.911597625
188.392,266.948105584
188.407,266.984443943
188.422,267.020613067
188.437,267.056613314
188.452,267.092445038
188.467,267.128108589
188.482,267.163604308
188.497,267.198932535
188.512,267.234093602
188.527,267.269087837
188.542,267.303915563
188.557,267.3385771
188.572,267.373072759
188.587,267.40740285
188.602,267.441567678
188.617,267.475567541
188.632,267.509402735
188.647,267.543073549
188.66,267.57212218
188.662,267.576580272
188.677,267.609923183
188.692,267.643102562
188.707,267.676118681
188.722,267.708971811
188.737,267.741662216
