# 78954 TBPB Grantley Adams Observations at 12Z 05 Mar 2019
Frequency [GHz],TB
175.31,283.570834428
175.322,283.557359473
175.337,283.540443439
175.352,283.523446963
175.367,283.50636998
175.382,283.489212421
175.397,283.471974216
175.412,283.454655298
175.427,283.437255595
175.442,283.419775034
175.457,283.402213545
175.472,283.384571054
175.487,283.366847485
175.502,283.349042763
175.517,283.331156812
175.532,283.313189555
175.547,283.29514091
175.562,283.2770108
175.577,283.258799141
175.592,283.240505852
175.607,283.222130848
175.622,283.203674043
175.637,283.185135351
175.652,283.166514682
175.667,283.147811947
175.682,283.129027055
175.697,283.110159911
175.712,283.091210422
175.727,283.07217849
175.742,283.053064017
175.757,283.033866903
175.772,283.014587047
175.787,282.995224343
175.802,282.975778687
175.817,282.95624997
175.832,282.936638083
175.847,282.916942914
175.862,282.897164349
175.877,282.87730227
175.892,282.857356561
175.907,282.8373271
175.922,282.817213763
175.937,282.797016426
175.952,282.776734961
175.967,282.756369236
175.982,282.73591912
175.997,282.715384475
176.012,282.694765165
176.027,282.674061048
176.042,282.653271979
176.057,282.632397813
176.072,282.6114384
176.087,282.590393588
176.102,282.569263221
176.117,282.54804714
176.132,282.526745184
176.147,282.505357189
176.162,282.483882985
176.177,282.462322402
176.192,282.440675265
176.207,282.418941396
176.222,282.397120613
176.237,282.375212731
176.252,282.353217562
176.267,282.331134912
176.282,282.308964586
176.297,282.286706385
176.31,282.267344704
176.312,282.264360103
176.327,282.241925534
176.342,282.219402465
176.357,282.196790681
176.372,282.174089963
176.387,282.151300085
176.402,282.12842082
176.417,282.105451936
176.432,282.082393194
176.447,282.059244354
176.46,282.039108957
176.462,282.03600517
176.477,282.012675391
176.492,281.989254761
176.507,281.965743022
176.522,281.942139908
176.537,281.918445149
176.552,281.894658471
176.567,281.870779594
176.582,281.846808234
176.597,281.8227441
176.612,281.798586898
176.627,281.774336327
176.642,281.749992081
176.657,281.72555385
176.672,281.701021315
176.687,281.676394156
176.702,281.651672043
176.717,281.626854643
176.732,281.601941616
176.747,281.576932616
176.762,281.551827292
176.777,281.526625286
176.792,281.501326234
176.807,281.475929766
176.822,281.450435506
176.837,281.42484307
176.852,281.39915207
176.867,281.373362109
176.882,281.347472784
176.897,281.321483687
176.912,281.295394402
176.927,281.269204505
176.942,281.242913566
176.957,281.216521148
176.972,281.190026807
176.987,281.163430092
177.002,281.136730544
177.017,281.109927695
177.032,281.083021074
177.047,281.056010197
177.062,281.028894577
177.077,281.001673716
177.092,280.97434711
177.107,280.946914245
177.122,280.919374602
177.137,280.891727651
177.152,280.863972855
177.167,280.836109669
177.182,280.808137538
177.197,280.780055901
177.21,280.755629462
177.212,280.751864186
177.227,280.723561813
177.242,280.695148195
177.257,280.666622732
177.272,280.637984819
177.287,280.60923384
177.302,280.580369169
177.31,280.564927973
177.317,280.551390174
177.332,280.522296209
177.347,280.493086623
177.362,280.463760751
177.377,280.434317921
177.392,280.404757452
177.407,280.375078649
177.422,280.345280811
177.437,280.315363226
177.452,280.285325169
177.467,280.255165908
177.482,280.224884699
177.497,280.194480787
177.512,280.163953407
177.527,280.133301783
177.542,280.102525127
177.557,280.071622642
177.572,280.040593518
177.587,280.009436934
177.602,279.978152057
177.617,279.946738045
177.632,279.915194042
177.647,279.883519179
177.66,279.855961102
177.662,279.851712579
177.677,279.819773349
177.692,279.787700586
177.707,279.755493374
177.722,279.723150784
177.737,279.690671876
177.752,279.658055695
177.767,279.625301276
177.782,279.592407638
177.797,279.559373789
177.812,279.526198722
177.827,279.492881418
177.842,279.459420844
177.857,279.425815953
177.872,279.392065684
177.887,279.358168962
177.902,279.324124699
177.917,279.289931791
177.932,279.255589121
177.947,279.221095557
177.96,279.19107819
177.962,279.18644995
177.977,279.15165114
177.992,279.116697948
178.007,279.081589183
178.022,279.046323637
178.037,279.010900085
178.052,278.97531729
178.067,278.939573995
178.082,278.90366893
178.097,278.867600807
178.112,278.831368322
178.127,278.794970154
178.142,278.758404966
178.157,278.721671403
178.172,278.684768094
178.187,278.64769365
178.202,278.610446663
178.217,278.573025711
178.232,278.53542935
178.247,278.49765612
178.262,278.459704542
178.277,278.421573119
178.292,278.383260335
178.307,278.344764655
178.322,278.306084525
178.337,278.267218371
178.352,278.2281646
178.367,278.188921599
178.382,278.149487736
178.397,278.109861356
178.41,278.075361477
178.412,278.070040787
178.427,278.030024334
178.442,277.989810282
178.457,277.949396894
178.472,277.908782413
178.487,277.867965059
178.502,277.82694303
178.517,277.785714505
178.532,277.744277636
178.547,277.702630555
178.562,277.660771371
178.577,277.61869817
178.592,277.576409015
178.607,277.533901942
178.622,277.491174969
178.637,277.448226084
178.652,277.405053254
178.667,277.361654421
178.682,277.318027501
178.697,277.274170386
178.712,277.23008094
178.727,277.185757004
178.742,277.141196391
178.757,277.096396889
178.772,277.051356258
178.787,277.006072232
178.802,276.960542517
178.817,276.914764792
178.832,276.868736706
178.847,276.822455884
178.862,276.775919919
178.877,276.729126375
178.892,276.682072789
178.907,276.634756667
178.922,276.587175485
178.937,276.539326691
178.952,276.491207699
178.967,276.442815895
178.982,276.394148633
178.997,276.345203234
179.012,276.295976991
179.027,276.24646716
179.042,276.196670968
179.057,276.146585607
179.072,276.096208237
179.087,276.045535983
179.102,275.994565939
179.117,275.943295161
179.132,275.891720672
179.147,275.83983946
179.16,275.794625283
179.162,275.787648477
179.177,275.735144641
179.192,275.68232483
179.207,275.629185889
179.222,275.575724625
179.237,275.521937807
179.252,275.467822167
179.267,275.413374398
179.282,275.358591156
179.297,275.303469056
179.312,275.248004676
179.327,275.192194552
179.342,275.136035182
179.357,275.079523024
179.372,275.022654491
179.387,274.965425961
179.402,274.907833764
179.417,274.849874194
179.432,274.791543497
179.447,274.732837881
179.462,274.673753507
179.477,274.614286496
179.492,274.554432922
179.507,274.494188816
179.522,274.433550164
179.537,274.372512907
179.552,274.311072941
179.567,274.249226115
179.582,274.186968234
179.597,274.124295053
179.612,274.061202283
179.627,273.997685587
179.642,273.93374058
179.657,273.869362827
179.672,273.804547849
179.687,273.739291115
179.702,273.673588046
179.717,273.607434014
179.732,273.54082434
179.747,273.473754297
179.762,273.406219107
179.777,273.338213941
179.792,273.26973392
179.807,273.200774112
179.822,273.131329538
179.837,273.061395163
179.852,272.990965902
179.867,272.92003662
179.882,272.848602126
179.897,272.776657179
179.91,272.713887903
179.912,272.704196487
179.927,272.631214703
179.942,272.557706428
179.957,272.483666211
179.972,272.409088546
179.987,272.333967878
180.002,272.258298595
180.017,272.182075036
180.032,272.105291483
180.047,272.027942168
180.062,271.95002127
180.077,271.871522914
180.092,271.792441175
180.107,271.712770073
180.122,271.632503578
180.137,271.551635606
180.152,271.470160025
180.167,271.388070648
180.182,271.30536124
180.197,271.222025514
180.212,271.138057133
180.227,271.053449713
180.242,270.968196818
180.257,270.882291966
180.272,270.795728626
180.287,270.708500221
180.302,270.620600127
180.317,270.532021676
180.332,270.442758156
180.347,270.352802809
180.362,270.262148837
180.377,270.170789401
180.392,270.07871762
180.407,269.985926576
180.422,269.892409312
180.437,269.798158836
180.452,269.70316812
180.467,269.607430105
180.482,269.510937698
180.497,269.41368378
180.512,269.315661199
180.527,269.216862782
180.542,269.11728133
180.557,269.016909622
180.56,268.996739812
180.572,268.915740417
180.587,268.813766459
180.602,268.710980475
180.617,268.607375181
180.632,268.502943285
180.647,268.397677485
180.66,268.305766944
180.662,268.291570477
180.677,268.184614959
180.692,268.076803627
180.707,267.968129186
180.722,267.858584349
180.737,267.748161843
180.752,267.636854412
180.767,267.524654819
180.782,267.411555854
180.797,267.297550333
180.812,267.182631109
180.827,267.066791071
180.842,266.950023149
180.857,266.832320324
180.872,266.713675626
180.887,266.594082145
180.902,266.473533032
180.917,266.35202151
180.932,266.229540872
180.947,266.106084494
180.962,265.981645839
180.977,265.856218459
180.992,265.72979601
181.007,265.60237225
181.022,265.47394105
181.037,265.344496403
181.052,265.214032427
181.067,265.082543375
181.082,264.950023641
181.097,264.81646777
181.112,264.681870465
181.127,264.546226592
181.142,264.409531195
181.157,264.271779499
181.172,264.13296692
181.187,263.993089077
181.202,263.852141795
181.217,263.710121121
181.232,263.567023329
181.247,263.42284493
181.262,263.277582684
181.277,263.131233607
181.292,262.983794985
181.307,262.835264379
181.31,262.805427025
181.322,262.685639639
181.337,262.534918913
181.352,262.383100658
181.367,262.23018365
181.382,262.076166995
181.397,261.92105014
181.412,261.764832884
181.427,261.607515386
181.442,261.449098179
181.457,261.289582182
181.472,261.128968704
181.487,260.967259462
181.502,260.80445659
181.517,260.640562644
181.532,260.475580622
181.547,260.309513965
181.562,260.142366574
181.577,259.974142815
181.592,259.804847533
181.607,259.634486057
181.622,259.463064214
181.637,259.290588335
181.652,259.117065263
181.667,258.942502364
181.682,258.766907533
181.697,258.5902892
181.712,258.412656341
181.727,258.234018479
181.742,258.054385696
181.757,257.873768633
181.772,257.692178498
181.787,257.509627068
181.802,257.326126694
181.817,257.141690303
181.832,256.956331398
181.847,256.770064065
181.862,256.582902964
181.877,256.394863339
181.892,256.205961006
181.907,256.016212361
181.922,255.825634367
181.937,255.634244557
181.952,255.442061025
181.967,255.249102421
181.982,255.055387942
181.997,254.860937325
182.012,254.665770837
182.027,254.469909266
182.042,254.273373903
182.057,254.076186537
182.06,254.036672775
182.072,253.878369435
182.087,253.679945329
182.102,253.480937397
182.117,253.281369248
182.132,253.0812649
182.147,252.880648763
182.162,252.679545612
182.177,252.477980567
182.192,252.275979067
182.207,252.073566847
182.222,251.870769903
182.237,251.667614472
182.252,251.464126993
182.267,251.260334077
182.282,251.056262475
182.297,250.851939034
182.312,250.647390666
182.327,250.442644297
182.342,250.23772683
182.357,250.032665091
182.372,249.827485777
182.387,249.622215405
182.402,249.416880241
182.417,249.211506241
182.432,249.006118971
182.447,248.800743529
182.462,248.595404452
182.477,248.390125613
182.492,248.184930113
182.507,247.979840144
182.522,247.774876852
182.537,247.570060172
182.552,247.365408637
182.567,247.160939166
182.582,246.956666822
182.597,246.752604528
182.612,246.548762746
182.627,246.3451491
182.642,246.141767949
182.657,245.938619883
182.672,245.735701142
182.687,245.533002944
182.702,245.330510697
182.717,245.128203082
182.732,244.926050983
182.747,244.724016234
182.762,244.522050148
182.777,244.320091799
182.792,244.118065988
182.807,243.915880864
182.822,243.713425098
182.837,243.510564556
182.852,243.307138351
182.867,243.102954152
182.882,242.897782604
182.897,242.691350673
182.912,242.483333681
182.927,242.273345768
182.942,242.060928421
182.957,241.845536665
182.972,241.626522374
182.987,241.403114086
183.002,241.174392496
183.017,240.939260677
183.032,240.696407786
183.047,240.44426481
183.062,240.180950491
183.077,239.904205268
183.092,239.611310572
183.107,239.298990423
183.122,238.963291921
183.137,238.599441309
183.152,238.201673673
183.167,237.763039268
183.182,237.275204528
183.197,236.728309332
183.212,236.111065485
183.227,235.411626022
183.242,234.620681757
183.257,233.740499183
183.367,233.952686329
183.382,234.80708082
183.397,235.56977186
183.412,236.242857443
183.427,236.83679974
183.442,237.363452682
183.457,237.833762934
183.472,238.257183027
183.487,238.641664929
183.502,238.993827489
183.517,239.319157232
183.532,239.622196705
183.547,239.90670784
183.562,240.175809193
183.577,240.432089583
183.592,240.677701533
183.607,240.914437857
183.622,241.143794343
183.637,241.367021061
183.652,241.585164385
183.667,241.799101443
183.682,242.009568429
183.697,242.217183887
183.712,242.422467927
183.727,242.625858103
183.742,242.827722577
183.757,243.028371045
183.772,243.228063846
183.787,243.427019557
183.802,243.625421357
183.817,243.823422359
183.832,244.021150094
183.847,244.218710294
183.862,244.416190076
183.877,244.613660646
183.892,244.811179588
183.907,245.008792802
183.922,245.206536164
183.937,245.404436928
183.952,245.602514933
183.967,245.800783631
183.982,245.99925096
183.997,246.197920109
184.012,246.396790153
184.027,246.595856622
184.042,246.795111972
184.057,246.994545999
184.072,247.194146203
184.087,247.393898087
184.102,247.593785433
184.117,247.793790533
184.132,247.993894388
184.147,248.194076892
184.162,248.39431698
184.177,248.594592771
184.192,248.794881682
184.207,248.99516054
184.222,249.195405675
184.237,249.395593001
184.252,249.595698096
184.267,249.795696271
184.282,249.995562628
184.297,250.195272117
184.312,250.394799592
184.327,250.594119854
184.342,250.793207694
184.357,250.992037937
184.372,251.19058548
184.387,251.388825322
184.402,251.586732603
184.417,251.784282632
184.432,251.981450916
184.447,252.178213189
184.462,252.374545438
184.477,252.570423925
184.492,252.765825213
184.507,252.960726188
184.522,253.155104076
184.537,253.348936466
184.552,253.542201328
184.56,253.645036379
184.567,253.734877028
184.582,253.926942346
184.597,254.118376488
184.612,254.309159103
184.627,254.499270296
184.642,254.688690636
184.657,254.87740117
184.672,255.06538343
184.687,255.252619446
184.702,255.439091748
184.717,255.624783377
184.732,255.809677889
184.747,255.99375936
184.762,256.177012392
184.777,256.359422113
184.792,256.54097418
184.807,256.721654782
184.822,256.90145064
184.837,257.080349008
184.852,257.258337669
184.867,257.435404935
184.882,257.611539648
184.897,257.786731172
184.912,257.960969393
184.927,258.134244714
184.942,258.306548051
184.957,258.477870825
184.972,258.648204962
184.987,258.81754288
185.002,258.985877489
185.017,259.15320218
185.032,259.319510821
185.047,259.484797743
185.062,259.649057742
185.077,259.812286062
185.092,259.97447839
185.107,260.135630849
185.122,260.295739987
185.137,260.454802766
185.152,260.612816559
185.167,260.769779133
185.182,260.925688646
185.197,261.080543634
185.212,261.234343002
185.227,261.387086014
185.242,261.538772284
185.257,261.689401767
185.272,261.838974747
185.287,261.987491829
185.302,262.13495393
185.31,262.213169421
185.317,262.281362265
185.332,262.426718345
185.347,262.57102396
185.362,262.714281173
185.377,262.856492311
185.392,262.997659955
185.407,263.137786931
185.422,263.276876301
185.437,263.414931352
185.452,263.551955593
185.467,263.687952737
185.482,263.822926704
185.497,263.956881602
185.512,264.089821726
185.527,264.221751546
185.542,264.352675701
185.557,264.482598991
185.572,264.611526368
185.587,264.739462932
185.602,264.866413919
185.617,264.992384698
185.632,265.117380761
185.647,265.24140772
185.662,265.364471296
185.677,265.486577317
185.692,265.607731707
185.707,265.727940486
185.722,265.847209756
185.737,265.965545704
185.752,266.082954591
185.767,266.199442748
185.782,266.31501657
185.797,266.429682513
185.812,266.543447087
185.827,266.656316851
185.842,266.768298411
185.857,266.879398414
185.872,266.989623543
185.887,267.098980513
185.902,267.207476068
185.917,267.315116977
185.932,267.421910029
185.947,267.527862031
185.96,267.619012054
185.962,267.632979803
185.977,267.737270176
185.992,267.840739989
186.007,267.943396084
186.022,268.045245304
186.037,268.146294491
186.052,268.246550483
186.06,268.299698376
186.067,268.346020111
186.082,268.444710194
186.097,268.542627544
186.112,268.639778953
186.127,268.736171202
186.142,268.831811049
186.157,268.926705235
186.172,269.020860477
186.187,269.114283467
186.202,269.206980873
186.217,269.298959335
186.232,269.390225461
186.247,269.480785833
186.262,269.570646997
186.277,269.659815468
186.292,269.748297725
186.307,269.836100213
186.322,269.923229338
186.337,270.009691469
186.352,270.095492936
186.367,270.180640028
186.382,270.265138996
186.397,270.348996047
186.412,270.432217346
186.427,270.514809015
186.442,270.596777133
186.457,270.678127734
186.472,270.758866808
186.487,270.839000299
186.502,270.918534104
186.517,270.997474075
186.532,271.075826019
186.547,271.153595692
186.562,271.230788807
186.577,271.307411025
186.592,271.383467964
186.607,271.45896519
186.622,271.533908222
186.637,271.608302532
186.652,271.682153542
186.667,271.755466626
186.682,271.82824711
186.697,271.900500269
186.71,271.96269717
186.712,271.972231333
186.727,272.04344548
186.742,272.114147842
186.757,272.1843435
186.772,272.254037489
186.787,272.323234793
186.802,272.391940351
186.817,272.460159051
186.832,272.527895734
186.847,272.595155194
186.862,272.661942176
186.877,272.728261378
186.892,272.794117451
186.907,272.859514999
186.922,272.924458579
186.937,272.988952701
186.952,273.05300183
186.967,273.116610384
186.982,273.179782735
186.997,273.24252321
187.012,273.30483609
187.027,273.366725612
187.042,273.428195968
187.057,273.489251306
187.072,273.549895729
187.087,273.610133298
187.102,273.669968028
187.117,273.729403894
187.132,273.788444827
187.147,273.847094713
187.162,273.905357401
187.177,273.963236695
187.192,274.020736357
187.207,274.077860111
187.222,274.134611639
187.237,274.19099458
187.252,274.247012538
187.267,274.302669073
187.282,274.357967709
187.297,274.412911929
187.312,274.467505179
187.327,274.521750865
187.342,274.575652357
187.357,274.629212987
187.372,274.682436049
187.387,274.735324802
187.402,274.787882468
187.417,274.840112231
187.432,274.892017243
187.447,274.943600618
187.46,274.988048422
187.462,274.994865436
187.477,275.045814741
187.492,275.096451547
187.507,275.146778829
187.522,275.196799531
187.537,275.246516565
187.552,275.295932807
187.567,275.345051103
187.582,275.393874266
187.597,275.442405077
187.612,275.490646287
187.627,275.538600615
187.642,275.586270747
187.657,275.633659342
187.672,275.680769027
187.687,275.7276024
187.702,275.77416203
187.717,275.820450454
187.732,275.866470184
187.747,275.912223702
187.762,275.95771346
187.777,276.002941884
187.792,276.047911373
187.807,276.092624298
187.822,276.137083002
187.837,276.181289803
187.852,276.225246991
187.867,276.268956832
187.882,276.312421565
187.897,276.355643403
187.912,276.398624535
187.927,276.441367124
187.942,276.48387331
187.957,276.526145207
187.972,276.568184905
187.987,276.609994472
188.002,276.651575951
188.017,276.692931361
188.032,276.734062701
188.047,276.774971944
188.062,276.815661042
188.077,276.856131925
188.092,276.8963865
188.107,276.936426655
188.122,276.976254253
188.137,277.015871139
188.152,277.055279133
188.167,277.09448004
188.182,277.133475639
188.197,277.172267692
188.21,277.205724172
188.212,277.21085794
188.227,277.249248105
188.242,277.287439888
188.257,277.325434972
188.272,277.36323502
188.287,277.400841678
188.302,277.43825657
188.317,277.475481304
188.332,277.51251747
188.347,277.549366638
188.362,277.586030363
188.377,277.62251018
188.392,277.658807608
188.407,277.694924147
188.422,277.730861283
188.437,277.766620482
188.452,277.802203195
188.467,277.837610858
188.482,277.872844887
188.497,277.907906686
188.512,277.942797641
188.527,277.977519122
188.542,278.012072484
188.557,278.046459068
188.572,278.080680198
188.587,278.114737184
188.602,278.148631321
188.617,278.182363889
188.632,278.215936154
188.647,278.249349368
188.66,278.278179789
188.662,278.282604768
188.677,278.315703579
188.692,278.348647008
188.707,278.381436254
188.722,278.414072499
188.737,278.446556911
