# 01004 ENAS Ny-Alesund Ii Observations at 12Z 07 Jul 2019
Frequency [GHz],TB
175.31,270.625320339
175.322,270.608824163
175.337,270.588112044
175.352,270.567297739
175.367,270.546381168
175.382,270.52536225
175.397,270.504240903
175.412,270.483017047
175.427,270.461690601
175.442,270.440261484
175.457,270.418729617
175.472,270.397094918
175.487,270.375357306
175.502,270.353516702
175.517,270.331573023
175.532,270.30952619
175.547,270.287376121
175.562,270.265122736
175.577,270.242765952
175.592,270.220305689
175.607,270.197741865
175.622,270.175074398
175.637,270.152303206
175.652,270.129428207
175.667,270.106449317
175.682,270.083366455
175.697,270.060179536
175.712,270.036888477
175.727,270.013493195
175.742,269.989993604
175.757,269.966389621
175.772,269.942681159
175.787,269.918868132
175.802,269.894950456
175.817,269.870928042
175.832,269.846800804
175.847,269.822568653
175.862,269.798231502
175.877,269.773789261
175.892,269.74924184
175.907,269.72458915
175.922,269.699831099
175.937,269.674967595
175.952,269.649998546
175.967,269.624923859
175.982,269.59974344
175.997,269.574457194
176.012,269.549065025
176.027,269.523566837
176.042,269.497962533
176.057,269.472252014
176.072,269.446435181
176.087,269.420511934
176.102,269.394482173
176.117,269.368345794
176.132,269.342102696
176.147,269.315752774
176.162,269.289295923
176.177,269.262732036
176.192,269.236061006
176.207,269.209282726
176.222,269.182397085
176.237,269.155403972
176.252,269.128303276
176.267,269.101094884
176.282,269.073778681
176.297,269.046354551
176.31,269.022499581
176.312,269.018822378
176.327,268.991182043
176.342,268.963433426
176.357,268.935576408
176.372,268.907610865
176.387,268.879536674
176.402,268.85135371
176.417,268.823061847
176.432,268.794660956
176.447,268.766150908
176.46,268.741353803
176.462,268.737531572
176.477,268.708802816
176.492,268.679964507
176.507,268.651016507
176.522,268.621958681
176.537,268.59279089
176.552,268.563512994
176.567,268.534124851
176.582,268.504626317
176.597,268.475017248
176.612,268.445297496
176.627,268.415466913
176.642,268.38552535
176.657,268.355472653
176.672,268.325308671
176.687,268.295033246
176.702,268.264646223
176.717,268.234147443
176.732,268.203536743
176.747,268.172813964
176.762,268.141978938
176.777,268.111031502
176.792,268.079971487
176.807,268.048798722
176.822,268.017513037
176.837,267.986114258
176.852,267.954602209
176.867,267.922976712
176.882,267.891237589
176.897,267.859384659
176.912,267.827417738
176.927,267.79533664
176.942,267.76314118
176.957,267.730831168
176.972,267.698406412
176.987,267.66586672
177.002,267.633211898
177.017,267.600441747
177.032,267.567556069
177.047,267.534554663
177.062,267.501437326
177.077,267.468203852
177.092,267.434854036
177.107,267.401387666
177.122,267.367804533
177.137,267.334104424
177.152,267.300287121
177.167,267.26635241
177.182,267.232300069
177.197,267.198129878
177.21,267.168420211
177.212,267.163841612
177.227,267.129435047
177.242,267.094909955
177.257,267.060266105
177.272,267.025503265
177.287,266.990621203
177.302,266.955619681
177.31,266.936903275
177.317,266.920498462
177.332,266.885257305
177.347,266.849895967
177.362,266.814414205
177.377,266.778811772
177.392,266.743088419
177.407,266.707243895
177.422,266.671277948
177.437,266.635190322
177.452,266.59898076
177.467,266.562649004
177.482,266.526194791
177.497,266.489617858
177.512,266.452917941
177.527,266.41609477
177.542,266.379148078
177.557,266.34207759
177.572,266.304883035
177.587,266.267564135
177.602,266.230120612
177.617,266.192552187
177.632,266.154858576
177.647,266.117039495
177.66,266.084161246
177.662,266.079094658
177.677,266.041023776
177.692,266.002826558
177.707,265.96450271
177.722,265.926051939
177.737,265.887473946
177.752,265.848768432
177.767,265.809935097
177.782,265.770973635
177.797,265.731883742
177.812,265.69266511
177.827,265.653317429
177.842,265.613840386
177.857,265.574233667
177.872,265.534496956
177.887,265.494629935
177.902,265.454632281
177.917,265.414503674
177.932,265.374243786
177.947,265.333852292
177.96,265.298739621
177.962,265.293328862
177.977,265.252673164
177.992,265.211884863
178.007,265.170963625
178.022,265.129909111
178.037,265.088720979
178.052,265.047398888
178.067,265.005942492
178.082,264.964351444
178.097,264.922625394
178.112,264.88076399
178.127,264.838766878
178.142,264.796633701
178.157,264.7543641
178.172,264.711957715
178.187,264.66941418
178.202,264.626733129
178.217,264.583914195
178.232,264.540957006
178.247,264.497861189
178.262,264.454626366
178.277,264.41125216
178.292,264.36773819
178.307,264.324084071
178.322,264.280289417
178.337,264.236353839
178.352,264.192276946
178.367,264.148058342
178.382,264.10369763
178.397,264.059194411
178.41,264.02050937
178.412,264.014548281
178.427,263.969758834
178.442,263.924825663
178.457,263.879748355
178.472,263.834526495
178.487,263.789159667
178.502,263.743647449
178.517,263.697989417
178.532,263.652185144
178.547,263.6062342
178.562,263.560136152
178.577,263.513890562
178.592,263.46749699
178.607,263.420954993
178.622,263.374264122
178.637,263.327423928
178.652,263.280433955
178.667,263.233293746
178.682,263.186002839
178.697,263.138560767
178.712,263.090967061
178.727,263.043221247
178.742,262.995322848
178.757,262.947271381
178.772,262.899066361
178.787,262.850707298
178.802,262.802193696
178.817,262.753525056
178.832,262.704700875
178.847,262.655720645
178.862,262.606583852
178.877,262.557289979
178.892,262.507838503
178.907,262.458228895
178.922,262.408460625
178.937,262.358533152
178.952,262.308445935
178.967,262.258198425
178.982,262.207790066
178.997,262.157220301
179.012,262.106488562
179.027,262.055594279
179.042,262.004536874
179.057,261.953315764
179.072,261.90193036
179.087,261.850380065
179.102,261.798664277
179.117,261.746782388
179.132,261.694733781
179.147,261.642517834
179.16,261.597128168
179.162,261.590133918
179.177,261.537581395
179.192,261.484859623
179.207,261.43196795
179.222,261.378905718
179.237,261.325672258
179.252,261.272266899
179.267,261.218688956
179.282,261.164937739
179.297,261.111012551
179.312,261.056912682
179.327,261.002637418
179.342,260.948186033
179.357,260.893557794
179.372,260.838751957
179.387,260.783767771
179.402,260.728604473
179.417,260.673261291
179.432,260.617737444
179.447,260.562032141
179.462,260.506144579
179.477,260.450073946
179.492,260.393819418
179.507,260.337380162
179.522,260.280755333
179.537,260.223944073
179.552,260.166945515
179.567,260.109758778
179.582,260.052382972
179.597,259.994817191
179.612,259.93706052
179.627,259.879112029
179.642,259.820970775
179.657,259.762635805
179.672,259.704106148
179.687,259.645380824
179.702,259.586458834
179.717,259.52733917
179.732,259.468020805
179.747,259.408502701
179.762,259.348783803
179.777,259.288863042
179.792,259.228739331
179.807,259.16841157
179.822,259.107878642
179.837,259.047139413
179.852,258.986192733
179.867,258.925037434
179.882,258.863672332
179.897,258.802096225
179.91,258.748558644
179.912,258.740307894
179.927,258.678306098
179.942,258.616089583
179.957,258.553657071
179.972,258.491007269
179.987,258.42813886
180.002,258.365050512
180.017,258.30174087
180.032,258.238208557
180.047,258.174452177
180.062,258.110470314
180.077,258.046261527
180.092,257.981824355
180.107,257.917157314
180.122,257.852258897
180.137,257.787127573
180.152,257.72176179
180.167,257.656159969
180.182,257.590320507
180.197,257.524241778
180.212,257.457922128
180.227,257.391359879
180.242,257.324553327
180.257,257.25750074
180.272,257.19020036
180.287,257.1226504
180.302,257.054849047
180.317,256.986794459
180.332,256.918484763
180.347,256.849918059
180.362,256.781092416
180.377,256.712005873
180.392,256.642656438
180.407,256.573042086
180.422,256.503160762
180.437,256.433010379
180.452,256.362588814
180.467,256.291893914
180.482,256.22092349
180.497,256.149675317
180.512,256.078147138
180.527,256.006336658
180.542,255.934241547
180.557,255.861859437
180.56,255.847348364
180.572,255.789187922
180.587,255.71622456
180.602,255.642966869
180.617,255.569412327
180.632,255.495558373
180.647,255.421402406
180.66,255.356887565
180.662,255.346941784
180.677,255.272173821
180.692,255.19709579
180.707,255.121704922
180.722,255.045998403
180.737,254.969973375
180.752,254.893626934
180.767,254.816956132
180.782,254.739957974
180.797,254.662629418
180.812,254.584967372
180.827,254.506968701
180.842,254.428630214
180.857,254.349948677
180.872,254.2709208
180.887,254.191543244
180.902,254.11181262
180.917,254.031725484
180.932,253.951278338
180.947,253.870467633
180.962,253.789289763
180.977,253.707741068
180.992,253.62581783
181.007,253.543516277
181.022,253.460832577
181.037,253.377762841
181.052,253.294303122
181.067,253.210449414
181.082,253.126197647
181.097,253.041543697
181.112,252.956483372
181.127,252.871012422
181.142,252.785126535
181.157,252.698821335
181.172,252.612092381
181.187,252.524935171
181.202,252.437345138
181.217,252.349317648
181.232,252.260848005
181.247,252.171931446
181.262,252.082563143
181.277,251.992738201
181.292,251.902451661
181.307,251.811698497
181.31,251.793491423
181.322,251.720473617
181.337,251.628771863
181.352,251.536588011
181.367,251.443916774
181.382,251.350752796
181.397,251.257090659
181.412,251.162924882
181.427,251.068249919
181.442,250.973060162
181.457,250.877349943
181.472,250.781113533
181.487,250.684345145
181.502,250.587038935
181.517,250.489189004
181.532,250.3907894
181.547,250.291834121
181.562,250.192317114
181.577,250.092232284
181.592,249.991573492
181.607,249.89033456
181.622,249.788509276
181.637,249.686091396
181.652,249.58307465
181.667,249.479452746
181.682,249.375219377
181.697,249.270368224
181.712,249.164892966
181.727,249.058787281
181.742,248.952044863
181.757,248.844659418
181.772,248.736624683
181.787,248.62793443
181.802,248.518582477
181.817,248.408562698
181.832,248.297869036
181.847,248.186495515
181.862,248.074436252
181.877,247.961685475
181.892,247.84823753
181.907,247.734086908
181.922,247.619228253
181.937,247.503656386
181.952,247.387366322
181.967,247.270353291
181.982,247.152612764
181.997,247.034140469
182.012,246.914932424
182.027,246.794984959
182.042,246.674294744
182.057,246.552858823
182.06,246.528481922
182.072,246.43067464
182.087,246.307740076
182.102,246.184053482
182.117,246.05961372
182.132,245.934420197
182.147,245.80847291
182.162,245.681772487
182.177,245.554320234
182.192,245.426118183
182.207,245.29716914
182.222,245.167476742
182.237,245.037045506
182.252,244.90588089
182.267,244.773989353
182.282,244.641378417
182.297,244.508056729
182.312,244.374034133
182.327,244.239321736
182.342,244.103931981
182.357,243.967878725
182.372,243.831177309
182.387,243.693844642
182.402,243.555899279
182.417,243.417361507
182.432,243.278253425
182.447,243.138599029
182.462,242.998424302
182.477,242.857757297
182.492,242.716628224
182.507,242.575069536
182.522,242.433116015
182.537,242.290804851
182.552,242.148175727
182.567,242.005270891
182.582,241.862135231
182.597,241.718816336
182.612,241.575364562
182.627,241.431833076
182.642,241.288277898
182.657,241.14475793
182.672,241.001334969
182.687,240.858073706
182.702,240.715041707
182.717,240.572309372
182.732,240.42994987
182.747,240.288039052
182.762,240.146655331
182.777,240.005879534
182.792,239.865794716
182.807,239.726485939
182.822,239.588040008
182.837,239.450545173
182.852,239.314090776
182.867,239.178766865
182.882,239.044663761
182.897,238.911871585
182.912,238.78047976
182.927,238.650576489
182.942,238.522248238
182.957,238.395579247
182.972,238.27065111
182.987,238.147542491
183.002,238.026329062
183.017,237.907083774
183.032,237.789877649
183.047,237.674781306
183.062,237.561867567
183.077,237.451215545
183.092,237.342916799
183.107,237.237084272
183.122,237.133864899
183.137,237.033456878
183.152,236.936132589
183.167,236.842267782
183.182,236.752376729
183.197,236.667151076
183.212,236.587496786
183.227,236.514558762
183.242,236.449717364
183.257,236.394537746
183.367,236.394549704
183.382,236.448912616
183.397,236.512528565
183.412,236.583872146
183.427,236.661621259
183.442,236.744693939
183.457,236.832242895
183.472,236.923626417
183.487,237.018370151
183.502,237.116128796
183.517,237.216652344
183.532,237.319758503
183.547,237.425311295
183.562,237.53320507
183.577,237.643352926
183.592,237.755678555
183.607,237.870110683
183.622,237.9865794
183.637,238.105013877
183.652,238.225341047
183.667,238.347484967
183.682,238.471366646
183.697,238.596904176
183.712,238.724013059
183.727,238.852606645
183.742,238.982596637
183.757,239.11389361
183.772,239.24640753
183.787,239.380048246
183.802,239.514725956
183.817,239.650351627
183.832,239.786837376
183.847,239.924096806
183.862,240.062045303
183.877,240.200600283
183.892,240.339681411
183.907,240.479210774
183.922,240.619113024
183.937,240.759315492
183.952,240.89974827
183.967,241.040344273
183.982,241.18103927
183.997,241.321771907
184.012,241.462483699
184.027,241.603119018
184.042,241.743625064
184.057,241.88395182
184.072,242.024052001
184.087,242.163881
184.102,242.303396815
184.117,242.442559984
184.132,242.581333504
184.147,242.719682752
184.162,242.857575406
184.177,242.99498136
184.192,243.131872637
184.207,243.268223306
184.222,243.404009396
184.237,243.539208811
184.252,243.673801246
184.267,243.807768106
184.282,243.941092421
184.297,244.073758772
184.312,244.205753208
184.327,244.337063175
184.342,244.467677439
184.357,244.59758602
184.372,244.726780116
184.387,244.855252046
184.402,244.982995178
184.417,245.110003872
184.432,245.236273422
184.447,245.361799997
184.462,245.486580588
184.477,245.610612956
184.492,245.733895584
184.507,245.856427629
184.522,245.978208878
184.537,246.099239702
184.552,246.219521021
184.56,246.283365067
184.567,246.339054261
184.582,246.45784132
184.597,246.575884532
184.612,246.693186632
184.627,246.809750732
184.642,246.925580283
184.657,247.040679052
184.672,247.155051096
184.687,247.268700736
184.702,247.381632532
184.717,247.493851266
184.732,247.605361914
184.747,247.716169635
184.762,247.826279745
184.777,247.935697706
184.792,248.044429106
184.807,248.152479645
184.822,248.259855121
184.837,248.366561418
184.852,248.472604493
184.867,248.577990362
184.882,248.682725093
184.897,248.786814794
184.912,248.890265604
184.927,248.993083685
184.942,249.095275213
184.957,249.196846372
184.972,249.297803345
184.987,249.398152309
185.002,249.497899429
185.017,249.597050854
185.032,249.695612708
185.047,249.793591091
185.062,249.890992069
185.077,249.987821674
185.092,250.084085901
185.107,250.179790701
185.122,250.274941981
185.137,250.369545601
185.152,250.463607373
185.167,250.557133054
185.182,250.650128351
185.197,250.742598914
185.212,250.834550335
185.227,250.92598815
185.242,251.016917835
185.257,251.107344807
185.272,251.19727442
185.287,251.286711967
185.302,251.375662681
185.31,251.422905788
185.317,251.464131729
185.332,251.552124217
185.347,251.639645188
185.362,251.726699619
185.377,251.813292427
185.392,251.899428462
185.407,251.985112515
185.422,252.070349308
185.437,252.155143506
185.452,252.239499707
185.467,252.323422448
185.482,252.406916203
185.497,252.489985386
185.512,252.572634349
185.527,252.654867382
185.542,252.736688715
185.557,252.81810252
185.572,252.899112907
185.587,252.97972393
185.602,253.059939583
185.617,253.139763803
185.632,253.219200471
185.647,253.29825341
185.662,253.376926388
185.677,253.45522312
185.692,253.533147264
185.707,253.610702426
185.722,253.687892157
185.737,253.764719959
185.752,253.84118928
185.767,253.917303517
185.782,253.993066018
185.797,254.068480081
185.812,254.143548954
185.827,254.218275838
185.842,254.292663886
185.857,254.366716204
185.872,254.440435853
185.887,254.513825846
185.902,254.586889154
185.917,254.6596287
185.932,254.732047368
185.947,254.804147995
185.96,254.866380108
185.962,254.875933378
185.977,254.947406272
185.992,255.01856939
186.007,255.089425405
186.022,255.15997695
186.037,255.230226621
186.052,255.300176971
186.06,255.337362306
186.067,255.369830518
186.082,255.439189743
186.097,255.508257089
186.112,255.577034961
186.127,255.645525732
186.142,255.713731736
186.157,255.781655276
186.172,255.849298619
186.187,255.916663997
186.202,255.983753612
186.217,256.050569632
186.232,256.117114192
186.247,256.183389398
186.262,256.249397323
186.277,256.315140011
186.292,256.380619475
186.307,256.445837698
186.322,256.510796636
186.337,256.575498214
186.352,256.639944331
186.367,256.704136858
186.382,256.768077637
186.397,256.831768485
186.412,256.895211193
186.427,256.958407525
186.442,257.02135922
186.457,257.084067992
186.472,257.14653553
186.487,257.2087635
186.502,257.270753544
186.517,257.332507278
186.532,257.394026298
186.547,257.455312176
186.562,257.516366463
186.577,257.577190685
186.592,257.637786351
186.607,257.698154945
186.622,257.758297933
186.637,257.818216758
186.652,257.877912844
186.667,257.937387595
186.682,257.996642397
186.697,258.055678615
186.71,258.106667569
186.712,258.114497597
186.727,258.173100669
186.742,258.231489144
186.757,258.289664313
186.772,258.34762745
186.787,258.405379815
186.802,258.462922647
186.817,258.52025717
186.832,258.577384593
186.847,258.634306105
186.862,258.691022884
186.877,258.74753609
186.892,258.803846866
186.907,258.859956343
186.922,258.915865637
186.937,258.971575847
186.952,259.02708806
186.967,259.082403348
186.982,259.13752277
186.997,259.192447371
187.012,259.247178181
187.027,259.301716221
187.042,259.356062496
187.057,259.410217999
187.072,259.46418371
187.087,259.517960599
187.102,259.571549622
187.117,259.624951724
187.132,259.678167839
187.147,259.731198888
187.162,259.784045782
187.177,259.836709421
187.192,259.889190695
187.207,259.941490482
187.222,259.99360965
187.237,260.045549057
187.252,260.097309552
187.267,260.148891973
187.282,260.200297148
187.297,260.251525896
187.312,260.302579027
187.327,260.353457342
187.342,260.404161633
187.357,260.454692681
187.372,260.505051262
187.387,260.55523814
187.402,260.605254074
187.417,260.655099811
187.432,260.704776094
187.447,260.754283655
187.46,260.797054291
187.462,260.803623219
187.477,260.852795504
187.492,260.901801221
187.507,260.950641071
187.522,260.999315751
187.537,261.047825948
187.552,261.096172345
187.567,261.144355615
187.582,261.192376428
187.597,261.240235443
187.612,261.287933316
187.627,261.335470695
187.642,261.382848223
187.657,261.430066535
187.672,261.477126261
187.687,261.524028026
187.702,261.570772447
187.717,261.617360137
187.732,261.663791703
187.747,261.710067747
187.762,261.756188864
187.777,261.802155646
187.792,261.847968677
187.807,261.893628538
187.822,261.939135804
187.837,261.984491046
187.852,262.02969483
187.867,262.074747715
187.882,262.119650259
187.897,262.164403012
187.912,262.209006522
187.927,262.253461331
187.942,262.297767978
187.957,262.341926996
187.972,262.385938915
187.987,262.429804261
188.002,262.473523555
188.017,262.517097315
188.032,262.560526054
188.047,262.603810283
188.062,262.646950506
188.077,262.689947228
188.092,262.732800945
188.107,262.775512154
188.122,262.818081345
188.137,262.860509008
188.152,262.902795626
188.167,262.94494168
188.182,262.98694765
188.197,263.028814009
188.21,263.064985622
188.212,263.070541229
188.227,263.112129779
188.242,263.153580124
188.257,263.194892726
188.272,263.236068045
188.287,263.277106536
188.302,263.318008655
188.317,263.35877485
188.332,263.399405571
188.347,263.439901262
188.362,263.480262365
188.377,263.520489321
188.392,263.560582567
188.407,263.600542536
188.422,263.640369662
188.437,263.680064372
188.452,263.719627095
188.467,263.759058255
188.482,263.798358274
188.497,263.837527572
188.512,263.876566566
188.527,263.91547567
188.542,263.954255299
188.557,263.992905863
188.572,264.031427769
188.587,264.069821424
188.602,264.108087233
188.617,264.146225596
188.632,264.184236914
188.647,264.222121584
188.66,264.254852826
188.662,264.259880002
188.677,264.297512561
188.692,264.335019654
188.707,264.372401669
188.722,264.409658995
188.737,264.446792016
