# 78954 TBPB Grantley Adams Observations at 12Z 06 Jun 2019
Frequency [GHz],TB
175.31,271.09287672
175.322,271.069918737
175.337,271.041155338
175.352,271.012318464
175.367,270.983407868
175.382,270.954423301
175.397,270.92536451
175.412,270.896231245
175.427,270.867023253
175.442,270.837740279
175.457,270.808382067
175.472,270.77894836
175.487,270.749438901
175.502,270.719853429
175.517,270.690191684
175.532,270.660453403
175.547,270.630638324
175.562,270.60074618
175.577,270.570776706
175.592,270.540729634
175.607,270.510604695
175.622,270.48040162
175.637,270.450120136
175.652,270.41975997
175.667,270.389320848
175.682,270.358802493
175.697,270.32820463
175.712,270.297526978
175.727,270.266769258
175.742,270.235931189
175.757,270.205012487
175.772,270.174012867
175.787,270.142932045
175.802,270.111769731
175.817,270.080525639
175.832,270.049199477
175.847,270.017790953
175.862,269.986299774
175.877,269.954725645
175.892,269.92306827
175.907,269.89132735
175.922,269.859502586
175.937,269.827593678
175.952,269.795600321
175.967,269.763522213
175.982,269.731359047
175.997,269.699110516
176.012,269.666776311
176.027,269.634356121
176.042,269.601849634
176.057,269.569256535
176.072,269.53657651
176.087,269.503809241
176.102,269.470954409
176.117,269.438011693
176.132,269.404980772
176.147,269.371861321
176.162,269.338653013
176.177,269.305355523
176.192,269.271968521
176.207,269.238491675
176.222,269.204924652
176.237,269.171267119
176.252,269.137518739
176.267,269.103679174
176.282,269.069748084
176.297,269.035725126
176.31,269.006163987
176.312,269.001609958
176.327,268.967402234
176.342,268.933101606
176.357,268.898707726
176.372,268.864220241
176.387,268.8296388
176.402,268.794963046
176.417,268.760192624
176.432,268.725327173
176.447,268.690366334
176.46,268.659989501
176.462,268.655309744
176.477,268.620157037
176.492,268.584907847
176.507,268.549561805
176.522,268.51411854
176.537,268.478577679
176.552,268.442938847
176.567,268.407201667
176.582,268.37136576
176.597,268.335430744
176.612,268.299396236
176.627,268.26326185
176.642,268.227027198
176.657,268.190691891
176.672,268.154255537
176.687,268.11771774
176.702,268.081078104
176.717,268.044336231
176.732,268.007491719
176.747,267.970544165
176.762,267.933493163
176.777,267.896338304
176.792,267.859079179
176.807,267.821715375
176.822,267.784246477
176.837,267.746672066
176.852,267.708991723
176.867,267.671205026
176.882,267.63331155
176.897,267.595310867
176.912,267.557202547
176.927,267.518986158
176.942,267.480661266
176.957,267.442227432
176.972,267.403684217
176.987,267.365031177
177.002,267.326267868
177.017,267.287393841
177.032,267.248408646
177.047,267.20931183
177.062,267.170102936
177.077,267.130781506
177.092,267.091347078
177.107,267.051799187
177.122,267.012137366
177.137,266.972361146
177.152,266.932470054
177.167,266.892463613
177.182,266.852341345
177.197,266.812102767
177.21,266.777134879
177.212,266.771747397
177.227,266.731274745
177.242,266.690684321
177.257,266.649975632
177.272,266.60914818
177.287,266.568201466
177.302,266.527134986
177.31,266.505183718
177.317,266.485948234
177.332,266.444640701
177.347,266.403211874
177.362,266.361661237
177.377,266.319988271
177.392,266.278192452
177.407,266.236273256
177.422,266.194230152
177.437,266.152062609
177.452,266.109770089
177.467,266.067352053
177.482,266.024807957
177.497,265.982137256
177.512,265.939339397
177.527,265.896413828
177.542,265.853359991
177.557,265.810177324
177.572,265.766865261
177.587,265.723423234
177.602,265.679850671
177.617,265.636146993
177.632,265.592311622
177.647,265.548343971
177.66,265.51013122
177.662,265.504243453
177.677,265.460009475
177.692,265.415641441
177.707,265.371138749
177.722,265.326500795
177.737,265.28172697
177.752,265.236816659
177.767,265.191769247
177.782,265.146584109
177.797,265.101260621
177.812,265.055798151
177.827,265.010196064
177.842,264.96445372
177.857,264.918570475
177.872,264.872545678
177.887,264.826378678
177.902,264.780068814
177.917,264.733615424
177.932,264.687017839
177.947,264.640275386
177.96,264.599647555
177.962,264.593387388
177.977,264.54635316
177.992,264.499172015
178.007,264.451843259
178.022,264.404366194
178.037,264.356740116
178.052,264.308964315
178.067,264.261038077
178.082,264.212960682
178.097,264.164731404
178.112,264.116349512
178.127,264.06781427
178.142,264.019124934
178.157,263.970280756
178.172,263.921280983
178.187,263.872124852
178.202,263.8228116
178.217,263.773340452
178.232,263.723710631
178.247,263.673921352
178.262,263.623971823
178.277,263.573861248
178.292,263.523588821
178.307,263.473153733
178.322,263.422555166
178.337,263.371792296
178.352,263.320864292
178.367,263.269770316
178.382,263.218509524
178.397,263.167081064
178.41,263.122373443
178.412,263.115484076
178.427,263.063717694
178.442,263.011781044
178.457,262.959673244
178.472,262.907393406
178.487,262.854940633
178.502,262.80231402
178.517,262.749512655
178.532,262.696535617
178.547,262.643381978
178.562,262.590050801
178.577,262.53654114
178.592,262.482852042
178.607,262.428982545
178.622,262.374931676
178.637,262.320698457
178.652,262.266281898
178.667,262.211681001
178.682,262.15689476
178.697,262.101922156
178.712,262.046762165
178.727,261.991413749
178.742,261.935875865
178.757,261.880147455
178.772,261.824227454
178.787,261.768114787
178.802,261.711808367
178.817,261.655307097
178.832,261.59860987
178.847,261.541715568
178.862,261.484623061
178.877,261.427331208
178.892,261.369838858
178.907,261.312144847
178.922,261.254248
178.937,261.19614713
178.952,261.137841038
178.967,261.079328513
178.982,261.020608331
178.997,260.961679255
179.012,260.902540036
179.027,260.843189413
179.042,260.783626108
179.057,260.723848835
179.072,260.663856289
179.087,260.603647154
179.102,260.543220101
179.117,260.482573783
179.132,260.421706842
179.147,260.360617903
179.16,260.307493511
179.162,260.299305577
179.177,260.23776846
179.192,260.176005132
179.207,260.114014156
179.222,260.051794081
179.237,259.989343439
179.252,259.926660745
179.267,259.863744498
179.282,259.800593179
179.297,259.737205252
179.312,259.673579164
179.327,259.609713344
179.342,259.5456062
179.357,259.481256126
179.372,259.416661493
179.387,259.351820655
179.402,259.286731947
179.417,259.221393681
179.432,259.155804153
179.447,259.089961635
179.462,259.023864381
179.477,258.957510621
179.492,258.890898565
179.507,258.824026401
179.522,258.756892294
179.537,258.689494386
179.552,258.621830798
179.567,258.553899625
179.582,258.485698939
179.597,258.417226787
179.612,258.348481193
179.627,258.279460155
179.642,258.210161643
179.657,258.140583604
179.672,258.070723957
179.687,258.000580594
179.702,257.93015138
179.717,257.859434151
179.732,257.788426716
179.747,257.717126853
179.762,257.645532313
179.777,257.573640814
179.792,257.501450045
179.807,257.428957664
179.822,257.356161297
179.837,257.283058538
179.852,257.209646946
179.867,257.13592405
179.882,257.061887342
179.897,256.987534281
179.91,256.922837076
179.912,256.91286229
179.927,256.837868755
179.942,256.762551028
179.957,256.68690642
179.972,256.610932208
179.987,256.534625627
180.002,256.457983874
180.017,256.381004106
180.032,256.303683437
180.047,256.226018943
180.062,256.148007654
180.077,256.06964656
180.092,255.990932603
180.107,255.911862683
180.122,255.832433654
180.137,255.752642322
180.152,255.672485446
180.167,255.591959739
180.182,255.51106186
180.197,255.429788423
180.212,255.348135985
180.227,255.266101057
180.242,255.183680092
180.257,255.100869491
180.272,255.017665599
180.287,254.934064706
180.302,254.850063042
180.317,254.765656782
180.332,254.680842039
180.347,254.595614865
180.362,254.509971251
180.377,254.423907125
180.392,254.33741835
180.407,254.250500725
180.422,254.163149978
180.437,254.075361774
180.452,253.987131706
180.467,253.898455294
180.482,253.80932799
180.497,253.719745169
180.512,253.629702132
180.527,253.539194103
180.542,253.44821623
180.557,253.356763578
180.56,253.338415634
180.572,253.264831132
180.587,253.172413796
180.602,253.079506387
180.617,252.986103638
180.632,252.892200192
180.647,252.797790605
180.66,252.715555272
180.662,252.702869338
180.677,252.607430764
180.692,252.511469157
180.707,252.414978695
180.722,252.317953459
180.737,252.220387427
180.752,252.122274477
180.767,252.023608379
180.782,251.9243828
180.797,251.824591296
180.812,251.724227312
180.827,251.62328418
180.842,251.521755119
180.857,251.419633227
180.872,251.316911484
180.887,251.213582749
180.902,251.109639753
180.917,251.005075104
180.932,250.899881278
180.947,250.79405062
180.962,250.68757534
180.977,250.580447513
180.992,250.472659071
181.007,250.364201808
181.022,250.255067368
181.037,250.145247252
181.052,250.034732807
181.067,249.923515229
181.082,249.811585557
181.097,249.698934669
181.112,249.585553285
181.127,249.471431956
181.142,249.356561067
181.157,249.24093083
181.172,249.124531285
181.187,249.007352291
181.202,248.88938353
181.217,248.770614497
181.232,248.6510345
181.247,248.530632658
181.262,248.409397894
181.277,248.287318932
181.292,248.164384298
181.307,248.040582311
181.31,248.015716789
181.322,247.915901082
181.337,247.790328509
181.352,247.663852274
181.367,247.536459842
181.382,247.408138451
181.397,247.278875112
181.412,247.148656607
181.427,247.017469478
181.442,246.88530003
181.457,246.752134325
181.472,246.617958174
181.487,246.482757135
181.502,246.346516512
181.517,246.209221344
181.532,246.070856405
181.547,245.931406197
181.562,245.790854946
181.577,245.649186597
181.592,245.506384808
181.607,245.362432946
181.622,245.217314079
181.637,245.071010974
181.652,244.923506088
181.667,244.774781565
181.682,244.624819228
181.697,244.473600571
181.712,244.321106756
181.727,244.167318606
181.742,244.012216593
181.757,243.855780837
181.772,243.697991097
181.787,243.538826759
181.802,243.378266835
181.817,243.216289948
181.832,243.052874328
181.847,242.887997803
181.862,242.721637787
181.877,242.553771273
181.892,242.384374825
181.907,242.213424565
181.922,242.040896163
181.937,241.866764831
181.952,241.69100531
181.967,241.51359186
181.982,241.334498249
181.997,241.153697745
182.012,240.971163106
182.027,240.786866567
182.042,240.600779836
182.057,240.412874083
182.06,240.375072075
182.072,240.223119933
182.087,240.031487458
182.102,239.837946179
182.117,239.642465053
182.132,239.445012482
182.147,239.245556312
182.162,239.044063835
182.177,238.840501807
182.192,238.634836455
182.207,238.427033506
182.222,238.217058207
182.237,238.004875367
182.252,237.790449404
182.267,237.573744398
182.282,237.354724169
182.297,237.133352362
182.312,236.909592553
182.327,236.683408383
182.342,236.454763711
182.357,236.223622801
182.372,235.989950544
182.387,235.753712723
182.402,235.514876326
182.417,235.273409916
182.432,235.029284068
182.447,234.782471888
182.462,234.532949614
182.477,234.280697333
182.492,234.025699822
182.507,233.767947527
182.522,233.507437722
182.537,233.244175864
182.552,232.978177182
182.567,232.709468536
182.582,232.438090607
182.597,232.164100454
182.612,231.887574508
182.627,231.608612091
182.642,231.32733953
182.657,231.043914979
182.672,230.758534059
182.687,230.471436468
182.702,230.1829137
182.717,229.893318076
182.732,229.60307327
182.747,229.312686576
182.762,229.022763167
182.777,228.734022617
182.792,228.447317966
182.807,228.163657616
182.822,227.884230306
182.837,227.610433338
182.852,227.343904097
182.867,227.086554681
182.882,226.840609055
182.897,226.608641591
182.912,226.393614945
182.927,226.19891393
182.942,226.028370198
182.957,225.886269916
182.972,225.777333135
182.987,225.706648981
183.002,225.679545255
183.017,225.701364953
183.032,225.777116848
183.047,225.910965527
183.062,226.105533254
183.077,226.361010848
183.092,226.674130231
183.107,227.037152159
183.122,227.437175391
183.137,227.8562518
183.152,228.272892255
183.167,228.665346476
183.182,229.016241664
183.197,229.316747329
183.212,229.567354687
183.227,229.773730308
183.242,229.940603229
183.257,230.069302652
183.367,230.040801704
183.382,229.902809542
183.397,229.726741348
183.412,229.5105576
183.427,229.248921875
183.442,228.936884973
183.457,228.575966448
183.472,228.177140293
183.487,227.759018285
183.502,227.343397626
183.517,226.950909735
183.532,226.598208455
183.547,226.296855371
183.562,226.053438065
183.577,225.870355168
183.592,225.746832826
183.607,225.679911012
183.622,225.665276264
183.637,225.697904831
183.652,225.772526339
183.667,225.883937549
183.682,226.027200104
183.697,226.197753369
183.712,226.391467928
183.727,226.604659461
183.742,226.834077444
183.757,227.076878977
183.772,227.330594733
183.787,227.593091736
183.802,227.862535911
183.817,228.137356225
183.832,228.416211411
183.847,228.697959764
183.862,228.981632142
183.877,229.266408107
183.892,229.551595016
183.907,229.836609822
183.922,230.120963309
183.937,230.404246477
183.952,230.686118831
183.967,230.966298322
183.982,231.244552719
183.997,231.520692222
184.012,231.794563142
184.027,232.066042491
184.042,232.335033367
184.057,232.601460999
184.072,232.865269379
184.087,233.126418373
184.102,233.384881263
184.117,233.640642645
184.132,233.89369663
184.147,234.144045308
184.162,234.391697444
184.177,234.636667357
184.192,234.878973965
184.207,235.118639972
184.222,235.355691179
184.237,235.590155886
184.252,235.822064394
184.267,236.051448579
184.282,236.278341527
184.297,236.50277723
184.312,236.724790322
184.327,236.944415865
184.342,237.161689164
184.357,237.37664561
184.372,237.589320554
184.387,237.799749201
184.402,238.007966519
184.417,238.214007168
184.432,238.417905442
184.447,238.619695221
184.462,238.819409934
184.477,239.01708253
184.492,239.212745455
184.507,239.406430639
184.522,239.59816948
184.537,239.787992841
184.552,239.975931046
184.56,240.075404241
184.567,240.162013878
184.582,240.346270583
184.597,240.52872987
184.612,240.709419922
184.627,240.888368396
184.642,241.065602438
184.657,241.241148683
184.672,241.415033273
184.687,241.587281857
184.702,241.757919608
184.717,241.926971229
184.732,242.094460964
184.747,242.260412607
184.762,242.424849514
184.777,242.587794607
184.792,242.749270392
184.807,242.909298961
184.822,243.067902002
184.837,243.225100814
184.852,243.380916306
184.867,243.535369015
184.882,243.688479107
184.897,243.840266386
184.912,243.990750306
184.927,244.139949975
184.942,244.287884159
184.957,244.434571297
184.972,244.580029501
184.987,244.724276563
185.002,244.867329966
185.017,245.009206885
185.032,245.149924194
185.047,245.289498475
185.062,245.427946019
185.077,245.565282835
185.092,245.701524651
185.107,245.836686926
185.122,245.970784847
185.137,246.103833339
185.152,246.235847069
185.167,246.36684045
185.182,246.496827643
185.197,246.625822568
185.212,246.7538389
185.227,246.880890079
185.242,247.006989314
185.257,247.132149583
185.272,247.256383642
185.287,247.379704023
185.302,247.502123045
185.31,247.567048822
185.317,247.623652811
185.332,247.744305218
185.347,247.864091953
185.362,247.983024504
185.377,248.101114159
185.392,248.218372013
185.407,248.334808966
185.422,248.450435731
185.437,248.565262838
185.452,248.679300632
185.467,248.79255928
185.482,248.905048776
185.497,249.016778939
185.512,249.12775942
185.527,249.237999702
185.542,249.347509107
185.557,249.456296796
185.572,249.564371772
185.587,249.671742882
185.602,249.778418825
185.617,249.884408147
185.632,249.989719249
185.647,250.09436039
185.662,250.198339685
185.677,250.301665113
185.692,250.404344516
185.707,250.506385602
185.722,250.607795948
185.737,250.708583006
185.752,250.808754097
185.767,250.90831642
185.782,251.007277055
185.797,251.105642959
185.812,251.203420975
185.827,251.300617829
185.842,251.397240137
185.857,251.493294402
185.872,251.58878702
185.887,251.683724281
185.902,251.77811237
185.917,251.87195737
185.932,251.965265262
185.947,252.058041932
185.96,252.138023155
185.962,252.150293167
185.977,252.242024659
185.992,252.333242008
186.007,252.423950723
186.022,252.514156222
186.037,252.603863837
186.052,252.693078814
186.06,252.740460485
186.067,252.781806312
186.082,252.870051411
186.097,252.957819107
186.112,253.045114316
186.127,253.131941878
186.142,253.218306556
186.157,253.304213035
186.172,253.389665928
186.187,253.474669778
186.202,253.559229052
186.217,253.643348152
186.232,253.727031409
186.247,253.810283086
186.262,253.893107384
186.277,253.975508435
186.292,254.057490311
186.307,254.13905702
186.322,254.22021251
186.337,254.300960669
186.352,254.381305324
186.367,254.461250249
186.382,254.540799156
186.397,254.619955707
186.412,254.698723504
186.427,254.777106101
186.442,254.855106995
186.457,254.932729634
186.472,255.009977414
186.487,255.086853683
186.502,255.16336174
186.517,255.239504835
186.532,255.315286171
186.547,255.390708907
186.562,255.465776154
186.577,255.540490981
186.592,255.614856412
186.607,255.688875429
186.622,255.762550972
186.637,255.835885938
186.652,255.908883185
186.667,255.981545532
186.682,256.053875758
186.697,256.125876602
186.71,256.18801299
186.712,256.197550767
186.727,256.26890092
186.742,256.33992969
186.757,256.410639671
186.772,256.48103342
186.787,256.551113463
186.802,256.620882289
186.817,256.690342356
186.832,256.759496088
186.847,256.828345877
186.862,256.896894084
186.877,256.965143038
186.892,257.033095039
186.907,257.100752356
186.922,257.168117229
186.937,257.235191869
186.952,257.301978458
186.967,257.368479152
186.982,257.434696076
186.997,257.500631333
187.012,257.566286995
187.027,257.63166511
187.042,257.6967677
187.057,257.761596762
187.072,257.826154268
187.087,257.890442166
187.102,257.95446238
187.117,258.01821681
187.132,258.081707334
187.147,258.144935805
187.162,258.207904056
187.177,258.270613897
187.192,258.333067116
187.207,258.395265481
187.222,258.457210737
187.237,258.518904611
187.252,258.580348807
187.267,258.641545012
187.282,258.702494891
187.297,258.763200091
187.312,258.823662239
187.327,258.883882944
187.342,258.943863797
187.357,259.003606371
187.372,259.06311222
187.387,259.122382882
187.402,259.181419877
187.417,259.240224708
187.432,259.298798861
187.447,259.357143806
187.46,259.407525147
187.462,259.415260998
187.477,259.473151875
187.492,259.530817859
187.507,259.588260356
187.522,259.64548076
187.537,259.702480446
187.552,259.759260777
187.567,259.815823102
187.582,259.872168752
187.597,259.928299049
187.612,259.984215297
187.627,260.039918789
187.642,260.095410803
187.657,260.150692606
187.672,260.205765449
187.687,260.260630572
187.702,260.315289203
187.717,260.369742555
187.732,260.423991833
187.747,260.478038225
187.762,260.531882911
187.777,260.585527058
187.792,260.638971821
187.807,260.692218343
187.822,260.745267759
187.837,260.798121189
187.852,260.850779744
187.867,260.903244526
187.882,260.955516622
187.897,261.007597114
187.912,261.059487069
187.927,261.111187547
187.942,261.162699596
187.957,261.214024256
187.972,261.265162557
187.987,261.316115518
188.002,261.366884149
188.017,261.417469452
188.032,261.467872419
188.047,261.518094033
188.062,261.568135269
188.077,261.617997091
188.092,261.667680456
188.107,261.717186312
188.122,261.7665156
188.137,261.81566925
188.152,261.864648186
188.167,261.913453324
188.182,261.962085569
188.197,262.010545822
188.21,262.052406275
188.212,262.058834974
188.227,262.106953909
188.242,262.154903504
188.257,262.202684626
188.272,262.250298139
188.287,262.297744895
188.302,262.345025742
188.317,262.39214152
188.332,262.439093062
188.347,262.485881194
188.362,262.532506736
188.377,262.578970499
188.392,262.62527329
188.407,262.671415908
188.422,262.717399146
188.437,262.76322379
188.452,262.808890621
188.467,262.854400413
188.482,262.899753933
188.497,262.944951943
188.512,262.989995199
188.527,263.03488445
188.542,263.079620441
188.557,263.12420391
188.572,263.168635588
188.587,263.212916203
188.602,263.257046476
188.617,263.301027123
188.632,263.344858853
188.647,263.388542372
188.66,263.426282076
188.662,263.432078379
188.677,263.475467568
188.692,263.518710628
188.707,263.561808244
188.722,263.604761093
188.737,263.647569851
