# 48698 WSSS Singapore Observations at 12Z 06 Oct 2019
Frequency [GHz],TB
175.31,274.039327313
175.322,274.021118605
175.337,273.998311145
175.352,273.97545178
175.367,273.952540305
175.382,273.929576567
175.397,273.906560359
175.412,273.883491504
175.427,273.860369826
175.442,273.837195128
175.457,273.813967218
175.472,273.790685915
175.487,273.767351025
175.502,273.743962354
175.517,273.72051971
175.532,273.697022885
175.547,273.673471706
175.562,273.64986595
175.577,273.626205435
175.592,273.60248995
175.607,273.57871929
175.622,273.554893266
175.637,273.531011648
175.652,273.507074249
175.667,273.483080843
175.682,273.459031229
175.697,273.434925202
175.712,273.410762531
175.727,273.386543015
175.742,273.362266427
175.757,273.337932545
175.772,273.313541164
175.787,273.289092049
175.802,273.264584982
175.817,273.24001973
175.832,273.215396066
175.847,273.190713772
175.862,273.165972604
175.877,273.141172344
175.892,273.116312737
175.907,273.091393564
175.922,273.066414571
175.937,273.041375532
175.952,273.016276198
175.967,272.991116326
175.982,272.965895668
175.997,272.940613983
176.012,272.915271009
176.027,272.889866504
176.042,272.864400213
176.057,272.838871881
176.072,272.813281238
176.087,272.787628043
176.102,272.761912014
176.117,272.7361329
176.132,272.710290435
176.147,272.68438434
176.162,272.658414354
176.177,272.632380195
176.192,272.606281598
176.207,272.580118277
176.222,272.553889961
176.237,272.527596357
176.252,272.501237188
176.267,272.47481217
176.282,272.448321
176.297,272.421763407
176.31,272.398692856
176.312,272.39513908
176.327,272.368447731
176.342,272.34168906
176.357,272.314862754
176.372,272.287968529
176.387,272.26100607
176.402,272.233975064
176.417,272.206875203
176.432,272.179706177
176.447,272.152467661
176.46,272.128804494
176.462,272.125159341
176.477,272.097780897
176.492,272.070331991
176.507,272.042812305
176.522,272.015221515
176.537,271.987559276
176.552,271.959825257
176.567,271.932019122
176.582,271.904140519
176.597,271.876189108
176.612,271.848164547
176.627,271.820066477
176.642,271.79189455
176.657,271.763648404
176.672,271.735327678
176.687,271.706932015
176.702,271.67846104
176.717,271.649914394
176.732,271.621291685
176.747,271.59259256
176.762,271.563816625
176.777,271.534963502
176.792,271.506032801
176.807,271.477024134
176.822,271.447937114
176.837,271.41877133
176.852,271.389526393
176.867,271.360201894
176.882,271.330797433
176.897,271.301312577
176.912,271.271746937
176.927,271.242100082
176.942,271.212371593
176.957,271.18256104
176.972,271.152667989
176.987,271.122692015
177.002,271.092632676
177.017,271.062489532
177.032,271.032262126
177.047,271.001950028
177.062,270.971552766
177.077,270.941069888
177.092,270.910500926
177.107,270.879845414
177.122,270.849102889
177.137,270.818272869
177.152,270.787354872
177.167,270.756348411
177.182,270.725252998
177.197,270.694068147
177.21,270.666968541
177.212,270.662793355
177.227,270.631428109
177.242,270.599971921
177.257,270.568424255
177.272,270.536784606
177.287,270.50505245
177.302,270.47322726
177.31,270.456215604
177.317,270.441308501
177.332,270.409295634
177.347,270.377188123
177.362,270.344985413
177.377,270.312686953
177.392,270.280292183
177.407,270.247800536
177.422,270.215211455
177.437,270.182524345
177.452,270.149738642
177.467,270.116853755
177.482,270.083869086
177.497,270.050784045
177.512,270.017598025
177.527,269.984310415
177.542,269.950920608
177.557,269.917427964
177.572,269.883831869
177.587,269.85013169
177.602,269.816326786
177.617,269.782416501
177.632,269.7484002
177.647,269.714277198
177.66,269.684617119
177.662,269.68004685
177.677,269.645708472
177.692,269.611261396
177.707,269.576704923
177.722,269.542038366
177.737,269.507261027
177.752,269.472372194
177.767,269.437371155
177.782,269.40225719
177.797,269.367029565
177.812,269.33168755
177.827,269.296230401
177.842,269.260657366
177.857,269.224967674
177.872,269.189160579
177.887,269.153235289
177.902,269.11719103
177.917,269.081027012
177.932,269.044742434
177.947,269.008336487
177.96,268.97668587
177.962,268.971808361
177.977,268.935157231
177.992,268.898382262
178.007,268.861482615
178.022,268.824457436
178.037,268.787305876
178.052,268.750027054
178.067,268.71262011
178.082,268.675084147
178.097,268.637418273
178.112,268.59962159
178.127,268.561693168
178.142,268.523632104
178.157,268.485437451
178.172,268.447108269
178.187,268.408643609
178.202,268.370042501
178.217,268.331303978
178.232,268.292427055
178.247,268.253410735
178.262,268.214254024
178.277,268.174955893
178.292,268.135515324
178.307,268.095931276
178.322,268.056202699
178.337,268.016328545
178.352,267.976307727
178.367,267.936139175
178.382,267.895821794
178.397,267.855354476
178.41,267.820160647
178.412,267.814736094
178.427,267.773965534
178.442,267.733041646
178.457,267.691963274
178.472,267.650729256
178.487,267.609338408
178.502,267.567789544
178.517,267.526081451
178.532,267.484212922
178.547,267.442182711
178.562,267.399989581
178.577,267.357632268
178.592,267.315109505
178.607,267.272420001
178.622,267.229562464
178.637,267.186535571
178.652,267.143337997
178.667,267.09996839
178.682,267.056425404
178.697,267.012707651
178.712,266.968813762
178.727,266.924742308
178.742,266.880491887
178.757,266.836061061
178.772,266.791448371
178.787,266.746652358
178.802,266.701671537
178.817,266.656504407
178.832,266.61114945
178.847,266.565605129
178.862,266.519869903
178.877,266.473942196
178.892,266.427820432
178.907,266.381502994
178.922,266.334988269
178.937,266.288274624
178.952,266.241360395
178.967,266.194243909
178.982,266.146923473
178.997,266.099397367
179.012,266.051663863
179.027,266.003721215
179.042,265.955567639
179.057,265.907201365
179.072,265.858620557
179.087,265.809823398
179.102,265.760808033
179.117,265.711572592
179.132,265.66211518
179.147,265.612433884
179.16,265.569194169
179.162,265.562526758
179.177,265.512391868
179.192,265.46202721
179.207,265.411430787
179.222,265.36060058
179.237,265.309534548
179.252,265.258230605
179.267,265.206686674
179.282,265.154900621
179.297,265.102870325
179.312,265.050593613
179.327,264.998068297
179.342,264.945292161
179.357,264.892262971
179.372,264.838978469
179.387,264.785436364
179.402,264.731634336
179.417,264.677570055
179.432,264.623241157
179.447,264.568645244
179.462,264.513779899
179.477,264.458642679
179.492,264.403231115
179.507,264.347542695
179.522,264.29157491
179.537,264.235325195
179.552,264.17879096
179.567,264.121969608
179.582,264.064858487
179.597,264.007454926
179.612,263.949756233
179.627,263.891759672
179.642,263.833462483
179.657,263.774861885
179.672,263.715955055
179.687,263.656739131
179.702,263.597211238
179.717,263.537368468
179.732,263.477207866
179.747,263.416726458
179.762,263.355921229
179.777,263.294789152
179.792,263.233327135
179.807,263.171532072
179.822,263.109400825
179.837,263.046930219
179.852,262.984117031
179.867,262.920958037
179.882,262.857449935
179.897,262.793589424
179.91,262.737956001
179.912,262.729373155
179.927,262.664797738
179.942,262.599859753
179.957,262.534555748
179.972,262.468882222
179.987,262.402835645
180.002,262.336412454
180.017,262.269609043
180.032,262.202421775
180.047,262.134846962
180.062,262.066880891
180.077,261.998519814
180.092,261.929759922
180.107,261.860597394
180.122,261.791028353
180.137,261.721048883
180.152,261.650655045
180.167,261.579842842
180.182,261.508608242
180.197,261.436947184
180.212,261.364855549
180.227,261.292329193
180.242,261.219363909
180.257,261.145955488
180.272,261.072099634
180.287,260.997792041
180.302,260.923028362
180.317,260.847804185
180.332,260.772115074
180.347,260.695956552
180.362,260.619324083
180.377,260.542213122
180.392,260.46461904
180.407,260.3865372
180.422,260.307962902
180.437,260.228891414
180.452,260.14931796
180.467,260.069237711
180.482,259.988645814
180.497,259.907537358
180.512,259.825907387
180.527,259.743750928
180.542,259.661062932
180.557,259.577838327
180.56,259.561128565
180.572,259.494072001
180.587,259.409758777
180.602,259.324893468
180.617,259.239470814
180.632,259.153485535
180.647,259.066932301
180.66,258.991455928
180.662,258.979805737
180.677,258.89210043
180.692,258.803810924
180.707,258.714931732
180.722,258.625457306
180.737,258.535382073
180.752,258.444700413
180.767,258.353406677
180.782,258.261495155
180.797,258.168960123
180.812,258.075795803
180.827,257.981996372
180.842,257.887555997
180.857,257.792468774
180.872,257.69672879
180.887,257.600330074
180.902,257.503266647
180.917,257.405532463
180.932,257.307121454
180.947,257.208027543
180.962,257.108244586
180.977,257.007766421
180.992,256.906586857
181.007,256.804699673
181.022,256.702098616
181.037,256.598777413
181.052,256.494729761
181.067,256.389949313
181.082,256.284429734
181.097,256.178164635
181.112,256.071147617
181.127,255.963372271
181.142,255.854832146
181.157,255.74552079
181.172,255.635431739
181.187,255.524558496
181.202,255.412894577
181.217,255.300433466
181.232,255.187168652
181.247,255.073093615
181.262,254.958201822
181.277,254.842486748
181.292,254.725941868
181.307,254.608560658
181.31,254.58498348
181.322,254.490336602
181.337,254.371263182
181.352,254.251333909
181.367,254.13054229
181.382,254.008881859
181.397,253.886346167
181.412,253.762928799
181.427,253.638623347
181.442,253.513423458
181.457,253.387322798
181.472,253.260315073
181.487,253.132394036
181.502,253.003553492
181.517,252.873787297
181.532,252.743089365
181.547,252.611453659
181.562,252.478874232
181.577,252.3453452
181.592,252.210860761
181.607,252.075415198
181.622,251.939002892
181.637,251.801618318
181.652,251.663256052
181.667,251.523910812
181.682,251.383577406
181.697,251.242250792
181.712,251.099926062
181.727,250.956598456
181.742,250.812263374
181.757,250.66691639
181.772,250.520553241
181.787,250.373169878
181.802,250.224762429
181.817,250.075327246
181.832,249.924860922
181.847,249.773360256
181.862,249.620822333
181.877,249.467244488
181.892,249.312624332
181.907,249.156959797
181.922,249.000249112
181.937,248.842490847
181.952,248.683683918
181.967,248.523827609
181.982,248.362921597
181.997,248.200965962
182.012,248.037961224
182.027,247.873908346
182.042,247.708808787
182.057,247.54266448
182.06,247.509310457
182.072,247.375477908
182.087,247.207252096
182.102,247.037990652
182.117,246.867697795
182.132,246.696378393
182.147,246.524037985
182.162,246.350682803
182.177,246.176319841
182.192,246.000956845
182.207,245.824602412
182.222,245.647265958
182.237,245.468957815
182.252,245.289689257
182.267,245.10947254
182.282,244.928320947
182.297,244.746248857
182.312,244.563271774
182.327,244.379406394
182.342,244.19467067
182.357,244.009083854
182.372,243.822666571
182.387,243.635440886
182.402,243.447430379
182.417,243.258660201
182.432,243.069157161
182.447,242.878949822
182.462,242.68806856
182.477,242.496545675
182.492,242.304415466
182.507,242.111714357
182.522,241.91848098
182.537,241.724756287
182.552,241.53058369
182.567,241.336009132
182.582,241.141081274
182.597,240.945851594
182.612,240.750374534
182.627,240.554707653
182.642,240.35891177
182.657,240.163051147
182.672,239.967193611
182.687,239.771410805
182.702,239.57577828
182.717,239.380375764
182.732,239.185287278
182.747,238.9906014
182.762,238.796411434
182.777,238.602815634
182.792,238.409917408
182.807,238.21782554
182.822,238.026654427
182.837,237.836524255
182.852,237.647561276
182.867,237.459898029
182.882,237.273673542
182.897,237.089033623
182.912,236.906131086
182.927,236.725126014
182.942,236.54618607
182.957,236.369486824
182.972,236.195212158
182.987,236.023554668
183.002,235.854716324
183.017,235.68890914
183.032,235.526356121
183.047,235.367292537
183.062,235.21196754
183.077,235.060646377
183.092,234.913613413
183.107,234.771176179
183.122,234.63367103
183.137,234.501470909
183.152,234.374996227
183.167,234.254729998
183.182,234.141238798
183.197,234.035200972
183.212,233.937442635
183.227,233.848978711
183.242,233.77104898
183.257,233.705126544
183.367,233.706085191
183.382,233.771406424
183.397,233.848359707
183.412,233.935529646
183.427,234.031735776
183.442,234.136014402
183.457,234.247579813
183.472,234.365784099
183.487,234.490083119
183.502,234.62001024
183.517,234.755157114
183.532,234.895159705
183.547,235.039688368
183.562,235.188440704
183.577,235.341136361
183.592,235.497513294
183.607,235.657324967
183.622,235.820338358
183.637,235.986332387
183.652,236.155096784
183.667,236.326431194
183.682,236.500144521
183.697,236.676054355
183.712,236.853986553
183.727,237.033774844
183.742,237.215260535
183.757,237.398292209
183.772,237.582725455
183.787,237.768422609
183.802,237.955252544
183.817,238.143090385
183.832,238.331817329
183.847,238.521320362
183.862,238.711492087
183.877,238.90223046
183.892,239.093438592
183.907,239.285024527
183.922,239.476901029
183.937,239.668985394
183.952,239.861199209
183.967,240.053468206
183.982,240.245722039
183.997,240.437894115
184.012,240.629921416
184.027,240.821744332
184.042,241.0133065
184.057,241.204554654
184.072,241.395438452
184.087,241.585910371
184.102,241.775925551
184.117,241.96544167
184.132,242.154418819
184.147,242.342819392
184.162,242.530607973
184.177,242.717751229
184.192,242.904217811
184.207,243.089978259
184.222,243.275004922
184.237,243.459271852
184.252,243.642754733
184.267,243.825430821
184.282,244.00727884
184.297,244.188278924
184.312,244.368412572
184.327,244.547662548
184.342,244.726012842
184.357,244.903448621
184.372,245.079956152
184.387,245.255522766
184.402,245.430136808
184.417,245.603787574
184.432,245.776465285
184.447,245.948161052
184.462,246.118866785
184.477,246.288575217
184.492,246.457279825
184.507,246.624974813
184.522,246.79165507
184.537,246.957316133
184.552,247.121954168
184.56,247.209341672
184.567,247.285565932
184.582,247.448148744
184.597,247.609700458
184.612,247.770219453
184.627,247.929704561
184.642,248.0881551
184.657,248.245570828
184.672,248.401951903
184.687,248.557298878
184.702,248.7116127
184.717,248.864894649
184.732,249.017146351
184.747,249.168369751
184.762,249.318567094
184.777,249.467740913
184.792,249.615894011
184.807,249.763029438
184.822,249.909150505
184.837,250.05426072
184.852,250.198363844
184.867,250.341463818
184.882,250.483564774
184.897,250.624671025
184.912,250.764787057
184.927,250.903917517
184.942,251.042067195
184.957,251.17924102
184.972,251.315444065
184.987,251.450681502
185.002,251.584958645
185.017,251.718280889
185.032,251.850653741
185.047,251.982082806
185.062,252.112573763
185.077,252.242132374
185.092,252.370764473
185.107,252.498475974
185.122,252.625272823
185.137,252.751161054
185.152,252.876146734
185.167,253.000235991
185.182,253.12343498
185.197,253.245749901
185.212,253.367186986
185.227,253.487752499
185.242,253.607452733
185.257,253.726293992
185.272,253.844282609
185.287,253.961424933
185.302,254.077727321
185.31,254.139414019
185.317,254.193196144
185.332,254.30783777
185.347,254.421658585
185.362,254.534664975
185.377,254.646863308
185.392,254.758259967
185.407,254.868861332
185.422,254.978673765
185.437,255.087703611
185.452,255.195957227
185.467,255.303440945
185.482,255.41016107
185.497,255.516123917
185.512,255.621335761
185.527,255.725802864
185.542,255.829531472
185.557,255.932527811
185.572,256.03479807
185.587,256.136348421
185.602,256.237185013
185.617,256.337313973
185.632,256.436741376
185.647,256.535473302
185.662,256.633515778
185.677,256.730874806
185.692,256.82755636
185.707,256.923566375
185.722,257.018910758
185.737,257.113595382
185.752,257.207626092
185.767,257.301008681
185.782,257.393748921
185.797,257.485852537
185.812,257.57732524
185.827,257.668172664
185.842,257.758400451
185.857,257.848014173
185.872,257.937019372
185.887,258.025421558
185.902,258.113226192
185.917,258.200438707
185.932,258.287064488
185.947,258.373108881
185.96,258.447214512
185.962,258.458577194
185.977,258.543474693
185.992,258.627806609
186.007,258.711578121
186.022,258.794794378
186.037,258.877460479
186.052,258.959581495
186.06,259.003158224
186.067,259.041162447
186.082,259.122208305
186.097,259.202724017
186.112,259.282714487
186.127,259.362184562
186.142,259.44113906
186.157,259.519582769
186.172,259.597520393
186.187,259.674956651
186.202,259.751896185
186.217,259.828343597
186.232,259.904303464
186.247,259.979780325
186.262,260.054778636
186.277,260.12930287
186.292,260.203357417
186.307,260.276946652
186.322,260.350074894
186.337,260.422746427
186.352,260.4949655
186.367,260.566736309
186.382,260.638063032
186.397,260.708949784
186.412,260.779400647
186.427,260.849419674
186.442,260.919010871
186.457,260.988178208
186.472,261.05692561
186.487,261.125256975
186.502,261.193176153
186.517,261.260686959
186.532,261.327793166
186.547,261.394498526
186.562,261.460806731
186.577,261.526721459
186.592,261.592246327
186.607,261.657384931
186.622,261.722140827
186.637,261.786517539
186.652,261.850518553
186.667,261.914147313
186.682,261.977407238
186.697,262.040301704
186.71,262.094517208
186.712,262.102834049
186.727,262.1650076
186.742,262.226825613
186.757,262.288291347
186.772,262.349407999
186.787,262.410178747
186.802,262.470606733
186.817,262.530695072
186.832,262.59044683
186.847,262.649865056
186.862,262.708952765
186.877,262.767712928
186.892,262.826148514
186.907,262.884262423
186.922,262.94205755
186.937,262.999536748
186.952,263.056702845
186.967,263.11355864
186.982,263.1701069
186.997,263.226350358
187.012,263.282291728
187.027,263.337933685
187.042,263.393278874
187.057,263.44832993
187.072,263.503089442
187.087,263.557559973
187.102,263.611744064
187.117,263.665644234
187.132,263.719262953
187.147,263.772602693
187.162,263.825665872
187.177,263.878454908
187.192,263.930972176
187.207,263.98322003
187.222,264.035200799
187.237,264.086916778
187.252,264.138370263
187.267,264.189563488
187.282,264.240498697
187.297,264.291178085
187.312,264.341603846
187.327,264.391778127
187.342,264.441703066
187.357,264.491380777
187.372,264.540813348
187.387,264.590002842
187.402,264.638951309
187.417,264.687660758
187.432,264.736133199
187.447,264.784370608
187.46,264.825987761
187.462,264.832374942
187.477,264.880148136
187.492,264.927692108
187.507,264.975008746
187.522,265.022099925
187.537,265.068967499
187.552,265.115613298
187.567,265.162039142
187.582,265.208246822
187.597,265.254238107
187.612,265.30001476
187.627,265.345578516
187.642,265.390931082
187.657,265.436074168
187.672,265.481009457
187.687,265.525738599
187.702,265.570263247
187.717,265.614585028
187.732,265.658705551
187.747,265.702626406
187.762,265.746349168
187.777,265.789875397
187.792,265.833206635
187.807,265.876344406
187.822,265.919290216
187.837,265.962045558
187.852,266.004611912
187.867,266.046990736
187.882,266.089183479
187.897,266.131191561
187.912,266.173016408
187.927,266.214659412
187.942,266.25612196
187.957,266.297405419
187.972,266.338511152
187.987,266.37944049
188.002,266.420194765
188.017,266.460775293
188.032,266.501183363
188.047,266.541420264
188.062,266.581487271
188.077,266.621385644
188.092,266.661116618
188.107,266.700681431
188.122,266.740081298
188.137,266.779317437
188.152,266.818391024
188.167,266.857303247
188.182,266.89605528
188.197,266.934648271
188.21,266.967967777
188.212,266.973083378
188.227,267.011361711
188.242,267.04948441
188.257,267.087452574
188.272,267.125267306
188.287,267.162929682
188.302,267.200440792
188.317,267.237801686
188.332,267.275013424
188.347,267.312077045
188.362,267.348993585
188.377,267.38576406
188.392,267.422389482
188.407,267.458870848
188.422,267.495209152
188.437,267.531405363
188.452,267.567460467
188.467,267.603375412
188.482,267.639151152
188.497,267.674788625
188.512,267.710288763
188.527,267.745652489
188.542,267.780880712
188.557,267.815974338
188.572,267.850934254
188.587,267.885761349
188.602,267.920456505
188.617,267.95502058
188.632,267.989454439
188.647,268.023758921
188.66,268.053385484
188.662,268.057934887
188.677,268.091983149
188.692,268.125904545
188.707,268.159699889
188.722,268.193369989
188.737,268.226915641
