# 78954 TBPB Grantley Adams Observations at 12Z 19 Mar 2019
Frequency [GHz],TB
175.31,286.896233602
175.322,286.889198646
175.337,286.880349619
175.352,286.871439242
175.367,286.862467656
175.382,286.853435006
175.397,286.844341436
175.412,286.835187092
175.427,286.825972124
175.442,286.81669668
175.457,286.807360912
175.472,286.797964974
175.487,286.788509018
175.502,286.778993201
175.517,286.76941768
175.532,286.759782614
175.547,286.750088162
175.562,286.740334486
175.577,286.730521748
175.592,286.720650114
175.607,286.710719746
175.622,286.700730814
175.637,286.690683483
175.652,286.680577924
175.667,286.670414305
175.682,286.6601928
175.697,286.64991358
175.712,286.639576819
175.727,286.629182691
175.742,286.618731372
175.757,286.60822304
175.772,286.597657871
175.787,286.587036045
175.802,286.57635774
175.817,286.565623139
175.832,286.554832421
175.847,286.543985769
175.862,286.533083366
175.877,286.522125396
175.892,286.511112043
175.907,286.500043493
175.922,286.488919931
175.937,286.477741544
175.952,286.466508518
175.967,286.455221042
175.982,286.443879303
175.997,286.432483491
176.012,286.421033793
176.027,286.4095304
176.042,286.397973501
176.057,286.386363287
176.072,286.374699947
176.087,286.362983673
176.102,286.351214655
176.117,286.339393084
176.132,286.327519151
176.147,286.315593048
176.162,286.303614966
176.177,286.291585096
176.192,286.279503629
176.207,286.267370757
176.222,286.25518667
176.237,286.242951559
176.252,286.230665615
176.267,286.218329028
176.282,286.205941988
176.297,286.193504685
176.31,286.182685178
176.312,286.181017308
176.327,286.168480046
176.342,286.155893087
176.357,286.143256618
176.372,286.130570828
176.387,286.117835903
176.402,286.105052028
176.417,286.092219388
176.432,286.079338169
176.447,286.066408553
176.46,286.055163879
176.462,286.053430723
176.477,286.040404861
176.492,286.027331148
176.507,286.014209763
176.522,286.001040884
176.537,285.987824691
176.552,285.974561358
176.567,285.96125106
176.582,285.947893973
176.597,285.934490267
176.612,285.921040115
176.627,285.907543685
176.642,285.894001146
176.657,285.880412665
176.672,285.866778405
176.687,285.853098532
176.702,285.839373206
176.717,285.825602587
176.732,285.811786833
176.747,285.7979261
176.762,285.784020543
176.777,285.770070314
176.792,285.756075562
176.807,285.742036436
176.822,285.727953082
176.837,285.713825644
176.852,285.699654263
176.867,285.685439077
176.882,285.671180225
176.897,285.65687784
176.912,285.642532054
176.927,285.628142995
176.942,285.613710792
176.957,285.599235568
176.972,285.584717443
176.987,285.570156537
177.002,285.555552965
177.017,285.54090684
177.032,285.526218271
177.047,285.511487365
177.062,285.496714226
177.077,285.481898954
177.092,285.467041646
177.107,285.452142398
177.122,285.437201298
177.137,285.422218434
177.152,285.407193891
177.167,285.392127749
177.182,285.377020083
177.197,285.361870968
177.21,285.348708261
177.212,285.346680473
177.227,285.331448663
177.242,285.316175601
177.257,285.300861344
177.272,285.285505946
177.287,285.270109457
177.302,285.254671924
177.31,285.246421805
177.317,285.239193387
177.332,285.223673885
177.347,285.208113451
177.362,285.192512114
177.377,285.176869898
177.392,285.161186823
177.407,285.145462906
177.422,285.129698157
177.437,285.113892582
177.452,285.098046183
177.467,285.082158957
177.482,285.066230896
177.497,285.050261986
177.512,285.03425221
177.527,285.018201545
177.542,285.002109962
177.557,284.985977429
177.572,284.969803906
177.587,284.95358935
177.602,284.93733371
177.617,284.921036933
177.632,284.904698956
177.647,284.888319716
177.66,284.87409094
177.662,284.871899138
177.677,284.855437147
177.692,284.838933658
177.707,284.822388582
177.722,284.805801823
177.737,284.78917328
177.752,284.772502846
177.767,284.755790405
177.782,284.739035839
177.797,284.72223902
177.812,284.705399815
177.827,284.688518084
177.842,284.671593682
177.857,284.654626454
177.872,284.637616241
177.887,284.620562877
177.902,284.603466187
177.917,284.58632599
177.932,284.569142099
177.947,284.551914318
177.96,284.536947916
177.962,284.534642444
177.977,284.517326268
177.992,284.499965572
178.007,284.48256013
178.022,284.46510971
178.037,284.447614071
178.052,284.430072964
178.067,284.412486133
178.082,284.394853312
178.097,284.377174229
178.112,284.359448603
178.127,284.341676144
178.142,284.323856553
178.157,284.305989524
178.172,284.288074741
178.187,284.270111879
178.202,284.252100605
178.217,284.234040577
178.232,284.215931443
178.247,284.19777284
178.262,284.1795644
178.277,284.161305742
178.292,284.142996476
178.307,284.124636202
178.322,284.106224512
178.337,284.087760984
178.352,284.069245189
178.367,284.050676688
178.382,284.032055028
178.397,284.01337975
178.41,283.997150772
178.412,283.99465038
178.427,283.975866435
178.442,283.957027422
178.457,283.938132835
178.472,283.919182156
178.487,283.900174859
178.502,283.881110402
178.517,283.861988234
178.532,283.84280779
178.547,283.823568495
178.562,283.80426976
178.577,283.784910984
178.592,283.765491553
178.607,283.74601084
178.622,283.726468205
178.637,283.706862996
178.652,283.687194546
178.667,283.667462173
178.682,283.647665185
178.697,283.627802873
178.712,283.607874514
178.727,283.58787937
178.742,283.567816691
178.757,283.54768571
178.772,283.527485643
178.787,283.507215695
178.802,283.486875052
178.817,283.466462885
178.832,283.445978349
178.847,283.425420582
178.862,283.404788708
178.877,283.38408183
178.892,283.363299037
178.907,283.3424394
178.922,283.32150197
178.937,283.300485784
178.952,283.279389858
178.967,283.258213189
178.982,283.236954759
178.997,283.215613525
179.012,283.19418843
179.027,283.172678394
179.042,283.151082319
179.057,283.129399085
179.072,283.107627551
179.087,283.085766557
179.102,283.06381492
179.117,283.041771436
179.132,283.019634878
179.147,282.997403998
179.16,282.978059957
179.162,282.975077524
179.177,282.952654161
179.192,282.93013259
179.207,282.90751147
179.222,282.884789433
179.237,282.861965088
179.252,282.839037017
179.267,282.81600378
179.282,282.792863907
179.297,282.769615903
179.312,282.746258247
179.327,282.722789389
179.342,282.699207752
179.357,282.675511732
179.372,282.651699694
179.387,282.627769975
179.402,282.603720881
179.417,282.57955069
179.432,282.555257647
179.447,282.530839967
179.462,282.506295832
179.477,282.481623393
179.492,282.456820767
179.507,282.431886038
179.522,282.406817257
179.537,282.381612437
179.552,282.35626956
179.567,282.33078657
179.582,282.305161373
179.597,282.279391841
179.612,282.253475807
179.627,282.227411064
179.642,282.201195369
179.657,282.174826437
179.672,282.148301944
179.687,282.121619524
179.702,282.094776769
179.717,282.06777123
179.732,282.040600413
179.747,282.013261781
179.762,281.985752752
179.777,281.958070699
179.792,281.930212948
179.807,281.902176778
179.822,281.87395942
179.837,281.845558057
179.852,281.816969822
179.867,281.788191797
179.882,281.759221014
179.897,281.730054452
179.91,281.704616027
179.912,281.700689037
179.927,281.671121641
179.942,281.641349081
179.957,281.611368119
179.972,281.581175459
179.987,281.550767747
180.002,281.520141572
180.017,281.489293463
180.032,281.458219886
180.047,281.426917246
180.062,281.395381888
180.077,281.36361009
180.092,281.331598064
180.107,281.29934196
180.122,281.266837856
180.137,281.234081766
180.152,281.201069631
180.167,281.167797322
180.182,281.13426064
180.197,281.100455311
180.212,281.066376985
180.227,281.032021241
180.242,280.997383576
180.257,280.962459413
180.272,280.927244091
180.287,280.891732873
180.302,280.855920936
180.317,280.819803374
180.332,280.783375198
180.347,280.74663133
180.362,280.709566607
180.377,280.672175772
180.392,280.634453482
180.407,280.596394299
180.422,280.557992691
180.437,280.519243033
180.452,280.480139599
180.467,280.440676568
180.482,280.400848017
180.497,280.360647921
180.512,280.320070151
180.527,280.279108475
180.542,280.237756552
180.557,280.196007931
180.56,280.187610028
180.572,280.153856054
180.587,280.111294248
180.602,280.068315725
180.617,280.024913585
180.632,279.981080805
180.647,279.936810245
180.66,279.898082702
180.662,279.892094644
180.677,279.846926615
180.692,279.801298645
180.707,279.755203096
180.722,279.708632197
180.737,279.661578047
180.752,279.614032611
180.767,279.565987715
180.782,279.517435049
180.797,279.468366163
180.812,279.418772461
180.827,279.368645204
180.842,279.317975506
180.857,279.266754328
180.872,279.214972481
180.887,279.162620622
180.902,279.109689248
180.917,279.056168698
180.932,279.002049149
180.947,278.947320611
180.962,278.891972928
180.977,278.835995773
180.992,278.779378647
181.007,278.722110875
181.022,278.664181601
181.037,278.605579791
181.052,278.546294225
181.067,278.486313494
181.082,278.425626001
181.097,278.364219955
181.112,278.302083368
181.127,278.239204053
181.142,278.175569617
181.157,278.111167465
181.172,278.04598479
181.187,277.980008572
181.202,277.913225574
181.217,277.84562234
181.232,277.777185189
181.247,277.707900214
181.262,277.637753274
181.277,277.566729997
181.292,277.494815768
181.307,277.421995732
181.31,277.407321703
181.322,277.348254783
181.337,277.273577569
181.352,277.197948476
181.367,277.121351636
181.382,277.043770912
181.397,276.9651899
181.412,276.885591922
181.427,276.804960021
181.442,276.723276957
181.457,276.640525199
181.472,276.556686927
181.487,276.471744017
181.502,276.385678042
181.517,276.298470267
181.532,276.210101639
181.547,276.120552783
181.562,276.029803997
181.577,275.937835244
181.592,275.844626149
181.607,275.750155985
181.622,275.654403676
181.637,275.557347783
181.652,275.458966498
181.667,275.359237639
181.682,275.258138639
181.697,275.15564654
181.712,275.051737986
181.727,274.946389212
181.742,274.839576035
181.757,274.731273847
181.772,274.621457605
181.787,274.510101821
181.802,274.397180551
181.817,274.282667386
181.832,274.166535438
181.847,274.048757334
181.862,273.929305199
181.877,273.808150645
181.892,273.685264762
181.907,273.560618098
181.922,273.434180648
181.937,273.305921843
181.952,273.175810528
181.967,273.043814949
181.982,272.909902737
181.997,272.774040889
182.012,272.636195747
182.027,272.496332983
182.042,272.354417571
182.057,272.210413773
182.06,272.18135921
182.072,272.064285107
182.087,271.915994327
182.102,271.765503394
182.117,271.612773447
182.132,271.457764772
182.147,271.300436771
182.162,271.140747923
182.177,270.978655744
182.192,270.814116752
182.207,270.647086412
182.222,270.477519094
182.237,270.305368014
182.252,270.130585178
182.267,269.953121313
182.282,269.772925798
182.297,269.589946583
182.312,269.404130101
182.327,269.215421171
182.342,269.023762888
182.357,268.829096502
182.372,268.631361282
182.387,268.430494364
182.402,268.226430576
182.417,268.019102247
182.432,267.808438989
182.447,267.594367447
182.462,267.376811017
182.477,267.15568953
182.492,266.930918886
182.507,266.702410637
182.522,266.470071516
182.537,266.23380289
182.552,265.993500141
182.567,265.749051947
182.582,265.500339458
182.597,265.247235352
182.612,264.989602741
182.627,264.727293903
182.642,264.460148825
182.657,264.187993511
182.672,263.910638016
182.687,263.627874168
182.702,263.339472917
182.717,263.045181247
182.732,262.744718578
182.747,262.437772564
182.762,262.123994178
182.777,261.802991963
182.792,261.474325291
182.807,261.137496452
182.822,260.79194135
182.837,260.437018565
182.852,260.07199645
182.867,259.696037922
182.882,259.308182483
182.897,258.907324972
182.912,258.492190413
182.927,258.061304237
182.942,257.612957002
182.957,257.145162628
182.972,256.655608978
182.987,256.141599527
183.002,255.599984714
183.017,255.02708163
183.032,254.418580856
183.047,253.769439842
183.062,253.073763481
183.077,252.324674896
183.092,251.514183976
183.107,250.633069061
183.122,249.670800951
183.137,248.615561675
183.152,247.45444901
183.167,246.174019643
183.182,244.761419538
183.197,243.206489532
183.212,241.505422893
183.227,239.666788585
183.242,237.721049513
183.257,235.735308923
183.367,236.208236859
183.382,238.18435455
183.397,240.099089762
183.412,241.896551255
183.427,243.553028802
183.442,245.063831946
183.457,246.434814202
183.472,247.677056851
183.487,248.803679968
183.502,249.828034474
183.517,250.762752746
183.532,251.619310802
183.547,252.407882213
183.562,253.137349643
183.577,253.815394847
183.592,254.448621873
183.607,255.042688536
183.622,255.60243322
183.637,256.131990876
183.652,256.634895936
183.667,257.1141719
183.682,257.572408379
183.697,258.011826842
183.712,258.434336445
183.727,258.841581295
183.742,259.234980397
183.757,259.615761386
183.772,259.984989014
183.787,260.34358921
183.802,260.692369418
183.817,261.032035806
183.832,261.363207834
183.847,261.686430614
183.862,262.002185404
183.877,262.310898517
183.892,262.612948924
183.907,262.908674713
183.922,263.198378621
183.937,263.482332749
183.952,263.760782601
183.967,264.033950546
183.982,264.302038789
183.997,264.565231919
184.012,264.823699108
184.027,265.077596
184.042,265.327066341
184.057,265.572243389
184.072,265.813251132
184.087,266.050205344
184.102,266.283214497
184.117,266.51238056
184.132,266.737799688
184.147,266.959562824
184.162,267.177756225
184.177,267.392461921
184.192,267.603758116
184.207,267.811719542
184.222,268.016417767
184.237,268.217921469
184.252,268.416296673
184.267,268.611606967
184.282,268.803913688
184.297,268.99327609
184.312,269.179751491
184.327,269.363395404
184.342,269.544261659
184.357,269.722402508
184.372,269.897868715
184.387,270.070709651
184.402,270.240973362
184.417,270.408706646
184.432,270.573955113
184.447,270.736763245
184.462,270.897174447
184.477,271.055231098
184.492,271.210974594
184.507,271.36444539
184.522,271.515683034
184.537,271.664726211
184.552,271.811612767
184.56,271.889083266
184.567,271.956379741
184.582,272.0990634
184.597,272.239699254
184.612,272.378322093
184.627,272.514966003
184.642,272.649664387
184.657,272.782449992
184.672,272.913354925
184.687,273.042410669
184.702,273.169648107
184.717,273.295097533
184.732,273.41878867
184.747,273.540750687
184.762,273.661012211
184.777,273.779601342
184.792,273.896545667
184.807,274.011872271
184.822,274.12560775
184.837,274.237778224
184.852,274.348409345
184.867,274.457526312
184.882,274.565153879
184.897,274.671316364
184.912,274.776037661
184.927,274.87934125
184.942,274.9812502
184.957,275.081787187
184.972,275.180974495
184.987,275.278834027
185.002,275.375387313
185.017,275.470655516
185.032,275.564659441
185.047,275.657419543
185.062,275.748955932
185.077,275.839288379
185.092,275.928436325
185.107,276.016418888
185.122,276.103254864
185.137,276.188962739
185.152,276.273560692
185.167,276.3570666
185.182,276.439498045
185.197,276.520872319
185.212,276.601206429
185.227,276.680517103
185.242,276.758820793
185.257,276.836133682
185.272,276.912471687
185.287,276.987850465
185.302,277.062285418
185.31,277.101603381
185.317,277.135791695
185.332,277.208384198
185.347,277.280077585
185.362,277.350886277
185.377,277.420824459
185.392,277.489906085
185.407,277.558144882
185.422,277.625554354
185.437,277.692147785
185.452,277.757938243
185.467,277.822938583
185.482,277.887161453
185.497,277.950619292
185.512,278.013324341
185.527,278.075288638
185.542,278.136524028
185.557,278.197042163
185.572,278.256854504
185.587,278.315972328
185.602,278.374406726
185.617,278.432168611
185.632,278.489268716
185.647,278.545717601
185.662,278.601525653
185.677,278.656703091
185.692,278.711259967
185.707,278.765206166
185.722,278.818551417
185.737,278.871305287
185.752,278.923477187
185.767,278.975076374
185.782,279.026111955
185.797,279.076592887
185.812,279.126527981
185.827,279.175925902
185.842,279.224795176
185.857,279.273144188
185.872,279.320981183
185.887,279.368314274
185.902,279.41515144
185.917,279.461500527
185.932,279.507369255
185.947,279.552765214
185.96,279.591731736
185.962,279.597695871
185.977,279.642168569
185.992,279.686190531
186.007,279.72976886
186.022,279.772910541
186.037,279.815622447
186.052,279.857911332
186.06,279.880294736
186.067,279.899783844
186.082,279.941246517
186.097,279.982305779
186.112,280.02296795
186.127,280.063239247
186.142,280.103125783
186.157,280.142633569
186.172,280.181768518
186.187,280.220536442
186.202,280.258943059
186.217,280.296993991
186.232,280.334694766
186.247,280.37205082
186.262,280.409067501
186.277,280.445750064
186.292,280.48210368
186.307,280.51813343
186.322,280.553844314
186.337,280.589241246
186.352,280.624329059
186.367,280.659112505
186.382,280.693596258
186.397,280.727784911
186.412,280.761682983
186.427,280.795294915
186.442,280.828625077
186.457,280.861677761
186.472,280.894457192
186.487,280.926967522
186.502,280.959212832
186.517,280.991197138
186.532,281.022924387
186.547,281.054398458
186.562,281.085623168
186.577,281.116602268
186.592,281.147339446
186.607,281.177838331
186.622,281.208102487
186.637,281.238135421
186.652,281.267940579
186.667,281.297521352
186.682,281.326881071
186.697,281.356023012
186.71,281.381105696
186.712,281.384950398
186.727,281.413666395
186.742,281.442174117
186.757,281.470476626
186.772,281.498576932
186.787,281.526477995
186.802,281.554182724
186.817,281.581693981
186.832,281.609014577
186.847,281.636147279
186.862,281.663094806
186.877,281.689859831
186.892,281.716444982
186.907,281.742852843
186.922,281.769085956
186.937,281.795146818
186.952,281.821037885
186.967,281.846761571
186.982,281.872320252
186.997,281.897716261
187.012,281.922951893
187.027,281.948029404
187.042,281.972951013
187.057,281.997718901
187.072,282.022335212
187.087,282.046802055
187.102,282.071121503
187.117,282.095295594
187.132,282.119326331
187.147,282.143215686
187.162,282.166965594
187.177,282.190577962
187.192,282.21405466
187.207,282.237397531
187.222,282.260608384
187.237,282.283688999
187.252,282.306641126
187.267,282.329466486
187.282,282.352166769
187.297,282.37474364
187.312,282.397198732
187.327,282.419533655
187.342,282.441749988
187.357,282.463849285
187.372,282.485833076
187.387,282.507702861
187.402,282.529460119
187.417,282.551106301
187.432,282.572642835
187.447,282.594071125
187.46,282.612555821
187.462,282.615392552
187.477,282.636608473
187.492,282.657720222
187.507,282.67872911
187.522,282.699636428
187.537,282.720443444
187.552,282.741151403
187.567,282.761761534
187.582,282.782275039
187.597,282.802693105
187.612,282.823016896
187.627,282.843247557
187.642,282.863386215
187.657,282.883433977
187.672,282.90339193
187.687,282.923261146
187.702,282.943042676
187.717,282.962737553
187.732,282.982346796
187.747,283.001871403
187.762,283.021312358
187.777,283.040670625
187.792,283.059947156
187.807,283.079142883
187.822,283.098258725
187.837,283.117295584
187.852,283.136254346
187.867,283.155135884
187.882,283.173941054
187.897,283.192670699
187.912,283.211325648
187.927,283.229906714
187.942,283.248414697
187.957,283.266850385
187.972,283.285214549
187.987,283.303507951
188.002,283.321731336
188.017,283.339885438
188.032,283.35797098
188.047,283.37598867
188.062,283.393939205
188.077,283.41182327
188.092,283.429641537
188.107,283.447394669
188.122,283.465083315
188.137,283.482708113
188.152,283.500269691
188.167,283.517768667
188.182,283.535205644
188.197,283.552581221
188.21,283.567590838
188.212,283.569895979
188.227,283.587150496
188.242,283.604345334
188.257,283.62148105
188.272,283.638558186
188.287,283.65557728
188.302,283.672538856
188.317,283.689443431
188.332,283.706291512
188.347,283.723083597
188.362,283.739820176
188.377,283.756501728
188.392,283.773128727
188.407,283.789701635
188.422,283.806220906
188.437,283.822686989
188.452,283.839100321
188.467,283.855461332
188.482,283.871770447
188.497,283.888028079
188.512,283.904234635
188.527,283.920390517
188.542,283.936496115
188.557,283.952551815
188.572,283.968557995
188.587,283.984515026
188.602,284.000423271
188.617,284.016283087
188.632,284.032094825
188.647,284.047858827
188.66,284.061482611
188.662,284.063575431
188.677,284.079244967
188.692,284.09486776
188.707,284.110444126
188.722,284.125974377
188.737,284.14145882
