# 01004 ENAS Ny-Alesund Ii Observations at 12Z 19 Mar 2019
Frequency [GHz],TB
175.31,229.577073779
175.322,229.646442455
175.337,229.733243789
175.352,229.820144752
175.367,229.907144351
175.382,229.994241576
175.397,230.081435407
175.412,230.168724806
175.427,230.256108715
175.442,230.343586071
175.457,230.431155789
175.472,230.518816768
175.487,230.606567895
175.502,230.694408038
175.517,230.782336052
175.532,230.870350771
175.547,230.958451021
175.562,231.046635604
175.577,231.134903309
175.592,231.223252909
175.607,231.311683156
175.622,231.400192794
175.637,231.48878054
175.652,231.577445099
175.667,231.666185159
175.682,231.75499939
175.697,231.843886445
175.712,231.932844958
175.727,232.021873544
175.742,232.110970808
175.757,232.200135323
175.772,232.28936566
175.787,232.378660357
175.802,232.468017944
175.817,232.557436929
175.832,232.646915798
175.847,232.736453026
175.862,232.82604706
175.877,232.915696334
175.892,233.005399259
175.907,233.095154233
175.922,233.184959626
175.937,233.274813793
175.952,233.364715071
175.967,233.454661773
175.982,233.544652197
175.997,233.634684614
176.012,233.724757281
176.027,233.81486843
176.042,233.905016276
176.057,233.995199015
176.072,234.085414815
176.087,234.175661827
176.102,234.265938188
176.117,234.356241997
176.132,234.44657135
176.147,234.53692431
176.162,234.627298925
176.177,234.717693214
176.192,234.80810518
176.207,234.898532806
176.222,234.988974047
176.237,235.079426839
176.252,235.169889094
176.267,235.260358706
176.282,235.350833542
176.297,235.441311449
176.31,235.519726436
176.312,235.531790249
176.327,235.622267743
176.342,235.712741706
176.357,235.803209899
176.372,235.893670049
176.387,235.984119864
176.402,236.074557032
176.417,236.164979211
176.432,236.255384042
176.447,236.345769138
176.46,236.424085064
176.462,236.436132091
176.477,236.526470466
176.492,236.616781807
176.507,236.707063632
176.522,236.797313439
176.537,236.887528696
176.552,236.97770685
176.567,237.067845324
176.582,237.157941517
176.597,237.247992801
176.612,237.337996524
176.627,237.42795001
176.642,237.517850563
176.657,237.607695454
176.672,237.697481934
176.687,237.787207229
176.702,237.876868538
176.717,237.966463039
176.732,238.055987879
176.747,238.145440187
176.762,238.234817059
176.777,238.324115574
176.792,238.413332782
176.807,238.502465706
176.822,238.591511344
176.837,238.680466675
176.852,238.769328646
176.867,238.85809418
176.882,238.946760177
176.897,239.035323511
176.912,239.123781027
176.927,239.212129551
176.942,239.300365878
176.957,239.388486783
176.972,239.476489011
176.987,239.564369285
177.002,239.652124299
177.017,239.739750729
177.032,239.827245219
177.047,239.91460439
177.062,240.001824838
177.077,240.088903136
177.092,240.175835827
177.107,240.262619436
177.122,240.349250459
177.137,240.435725367
177.152,240.522040608
177.167,240.608192605
177.182,240.694177755
177.197,240.779992434
177.21,240.854224442
177.212,240.86563299
177.227,240.951095751
177.242,241.036377018
177.257,241.121473067
177.272,241.206380153
177.287,241.291094508
177.302,241.375612338
177.31,241.420606841
177.317,241.459929828
177.332,241.544043137
177.347,241.627948403
177.362,241.711641742
177.377,241.795119245
177.392,241.878376984
177.407,241.961411004
177.422,242.044217333
177.437,242.126791975
177.452,242.20913091
177.467,242.291230103
177.482,242.373085492
177.497,242.454692996
177.512,242.536048514
177.527,242.617147926
177.542,242.697987089
177.557,242.778561843
177.572,242.858868008
177.587,242.938901382
177.602,243.018657749
177.617,243.098132871
177.632,243.177322494
177.647,243.256222343
177.66,243.324364504
177.662,243.33482813
177.677,243.413135547
177.692,243.491140272
177.707,243.568837962
177.722,243.646224263
177.737,243.723294803
177.752,243.800045195
177.767,243.876471039
177.782,243.952567919
177.797,244.028331405
177.812,244.103757056
177.827,244.178840416
177.842,244.253577018
177.857,244.327962383
177.872,244.401992021
177.887,244.475661429
177.902,244.548966095
177.917,244.621901498
177.932,244.694463109
177.947,244.766646387
177.96,244.828895684
177.962,244.838446786
177.977,244.90985975
177.992,244.980880716
178.007,245.05150512
178.022,245.121728385
178.037,245.191545934
178.052,245.260953183
178.067,245.329945547
178.082,245.398518435
178.097,245.466667256
178.112,245.534387413
178.127,245.601674316
178.142,245.668523367
178.157,245.734929972
178.172,245.800889538
178.187,245.866397474
178.202,245.931449191
178.217,245.996040104
178.232,246.060165631
178.247,246.123821198
178.262,246.187002235
178.277,246.249704175
178.292,246.311922468
178.307,246.373652561
178.322,246.434889921
178.337,246.495630015
178.352,246.555868329
178.367,246.615600358
178.382,246.674821606
178.397,246.733527598
178.41,246.783985886
178.412,246.791713867
178.427,246.849375963
178.442,246.906509458
178.457,246.963109932
178.472,247.01917299
178.487,247.074694252
178.502,247.129669363
178.517,247.184093986
178.532,247.237963806
178.547,247.291274531
178.562,247.344021898
178.577,247.396201661
178.592,247.447809606
178.607,247.498841544
178.622,247.549293316
178.637,247.599160791
178.652,247.648439868
178.667,247.697126478
178.682,247.745216583
178.697,247.792706181
178.712,247.839591303
178.727,247.885868016
178.742,247.931532424
178.757,247.976580667
178.772,248.021008925
178.787,248.064813418
178.802,248.107990407
178.817,248.150536196
178.832,248.192447128
178.847,248.233719594
178.862,248.274350031
178.877,248.314334918
178.892,248.353670786
178.907,248.392354212
178.922,248.43038182
178.937,248.46775029
178.952,248.504456352
178.967,248.540496786
178.982,248.575868426
178.997,248.610568164
179.012,248.644592945
179.027,248.677939772
179.042,248.710605704
179.057,248.742587862
179.072,248.773883425
179.087,248.80448963
179.102,248.834403781
179.117,248.863623239
179.132,248.892145436
179.147,248.91996786
179.16,248.943512702
179.162,248.947088072
179.177,248.973503693
179.192,248.999212415
179.207,249.024211998
179.222,249.048500269
179.237,249.072075127
179.252,249.094934541
179.267,249.117076548
179.282,249.138499261
179.297,249.159200866
179.312,249.179179618
179.327,249.198433852
179.342,249.216961973
179.357,249.234762465
179.372,249.251833884
179.387,249.268174868
179.402,249.283784129
179.417,249.298660454
179.432,249.312802716
179.447,249.326209856
179.462,249.338880906
179.477,249.350814966
179.492,249.362011225
179.507,249.372468945
179.522,249.382187472
179.537,249.391166234
179.552,249.399404736
179.567,249.406902568
179.582,249.413659395
179.597,249.41967497
179.612,249.424949122
179.627,249.429481765
179.642,249.433272893
179.657,249.436322579
179.672,249.438630978
179.687,249.440198326
179.702,249.441024941
179.717,249.441111218
179.732,249.440457636
179.747,249.43906475
179.762,249.436933194
179.777,249.434063683
179.792,249.430457009
179.807,249.426114043
179.822,249.42103573
179.837,249.415223094
179.852,249.408677233
179.867,249.401399321
179.882,249.393390605
179.897,249.384652407
179.91,249.376490307
179.912,249.37518612
179.927,249.364993207
179.942,249.354075204
179.957,249.342433715
179.972,249.330070413
179.987,249.316987036
180.002,249.30318539
180.017,249.288667347
180.032,249.273434836
180.047,249.257489856
180.062,249.240834461
180.077,249.223470766
180.092,249.205400944
180.107,249.186627223
180.122,249.167151889
180.137,249.146977275
180.152,249.12610577
180.167,249.104539813
180.182,249.082281887
180.197,249.059334524
180.212,249.035700301
180.227,249.011381834
180.242,248.986381785
180.257,248.960702849
180.272,248.934347762
180.287,248.907319293
180.302,248.879620244
180.317,248.851253448
180.332,248.822221768
180.347,248.792528091
180.362,248.762175332
180.377,248.731166424
180.392,248.699504326
180.407,248.667192012
180.422,248.634232472
180.437,248.600628712
180.452,248.566383749
180.467,248.531500609
180.482,248.495982327
180.497,248.459831943
180.512,248.423052499
180.527,248.385647041
180.542,248.347618611
180.557,248.308970251
180.56,248.301166454
180.572,248.269704996
180.587,248.229825874
180.602,248.189335906
180.617,248.148238097
180.632,248.106535444
180.647,248.064230927
180.66,248.02708246
180.662,248.021327507
180.677,247.977828129
180.692,247.933735716
180.707,247.889053167
180.722,247.843783359
180.737,247.79792914
180.752,247.751493336
180.767,247.704478737
180.782,247.656888105
180.797,247.608724171
180.812,247.559989631
180.827,247.510687146
180.842,247.460819341
180.857,247.410388804
180.872,247.359398083
180.887,247.307849689
180.902,247.255746089
180.917,247.203089713
180.932,247.149882945
180.947,247.096128129
180.962,247.041827565
180.977,246.986983508
180.992,246.93159817
181.007,246.87567372
181.022,246.81921228
181.037,246.762215929
181.052,246.704686702
181.067,246.646626589
181.082,246.588037536
181.097,246.528921446
181.112,246.469280179
181.127,246.409115553
181.142,246.348429345
181.157,246.287223291
181.172,246.225499086
181.187,246.163258391
181.202,246.100502826
181.217,246.037233978
181.232,245.973453401
181.247,245.909162615
181.262,245.844363112
181.277,245.779056353
181.292,245.713243777
181.307,245.646926796
181.31,245.633602995
181.322,245.580106804
181.337,245.512785176
181.352,245.44496327
181.367,245.376642432
181.382,245.307823999
181.397,245.238509301
181.412,245.168699668
181.427,245.098396425
181.442,245.027600906
181.457,244.956314452
181.472,244.884538416
181.487,244.812274167
181.502,244.739523095
181.517,244.666286616
181.532,244.592566176
181.547,244.518363255
181.562,244.443679371
181.577,244.36851609
181.592,244.292875029
181.607,244.216757856
181.622,244.140166304
181.637,244.063102173
181.652,243.985567334
181.667,243.907563741
181.682,243.82909343
181.697,243.750158531
181.712,243.670761272
181.727,243.590903989
181.742,243.510589128
181.757,243.429819256
181.772,243.348597067
181.787,243.266925391
181.802,243.1848072
181.817,243.102245615
181.832,243.019243918
181.847,242.935805557
181.862,242.851934155
181.877,242.767633518
181.892,242.682907647
181.907,242.597760741
181.922,242.512197215
181.937,242.426221699
181.952,242.339839055
181.967,242.253054383
181.982,242.165873033
181.997,242.078300612
182.012,241.990342997
182.027,241.902006344
182.042,241.813297097
182.057,241.724221999
182.06,241.706363692
182.072,241.634788105
182.087,241.545002788
182.102,241.454873755
182.117,241.36440905
182.132,241.273617073
182.147,241.182506585
182.162,241.091086719
182.177,240.999366993
182.192,240.907357315
182.207,240.815068001
182.222,240.722509775
182.237,240.629693786
182.252,240.536631612
182.267,240.44333527
182.282,240.349817224
182.297,240.256090391
182.312,240.162168148
182.327,240.068064333
182.342,239.973793254
182.357,239.879369688
182.372,239.784808882
182.387,239.690126552
182.402,239.595338879
182.417,239.500462504
182.432,239.405514517
182.447,239.310512447
182.462,239.215474247
182.477,239.120418269
182.492,239.025363246
182.507,238.930328257
182.522,238.835332693
182.537,238.740396211
182.552,238.645538686
182.567,238.550780148
182.582,238.456140714
182.597,238.361640502
182.612,238.267299537
182.627,238.173137644
182.642,238.079174314
182.657,237.985428562
182.672,237.891918753
182.687,237.798662412
182.702,237.705675997
182.717,237.61297464
182.732,237.520571858
182.747,237.428479206
182.762,237.33670589
182.777,237.245258321
182.792,237.154139592
182.807,237.063348886
182.822,236.972880783
182.837,236.882724467
182.852,236.792862793
182.867,236.703271212
182.882,236.61391651
182.897,236.524755333
182.912,236.435732445
182.927,236.346778676
182.942,236.257808481
182.957,236.168717022
182.972,236.079376661
182.987,235.989632716
183.002,235.899298294
183.017,235.808147933
183.032,235.715909737
183.047,235.622255544
183.062,235.526788528
183.077,235.429027407
183.092,235.328386148
183.107,235.224147617
183.122,235.115429049
183.137,235.00113647
183.152,234.879904176
183.167,234.75001442
183.182,234.60929216
183.197,234.454972842
183.212,234.283556642
183.227,234.090719589
183.242,233.87154696
183.257,233.621999129
183.367,233.673797263
183.382,233.911974745
183.397,234.120591597
183.412,234.304176644
183.427,234.467548209
183.442,234.614816366
183.457,234.749277322
183.472,234.873529325
183.487,234.989617763
183.502,235.099160578
183.517,235.20344662
183.532,235.303510328
183.547,235.400187958
183.562,235.49415999
183.577,235.585983293
183.592,235.676115745
183.607,235.764935226
183.622,235.85275445
183.637,235.939832617
183.652,236.026384697
183.667,236.11258886
183.682,236.198592499
183.697,236.284517134
183.712,236.370462452
183.727,236.456509647
183.742,236.542724201
183.757,236.629158222
183.772,236.715852406
183.787,236.802837708
183.802,236.890136753
183.817,236.977765052
183.832,237.065732033
183.847,237.154041938
183.862,237.242694591
183.877,237.331686058
183.892,237.421009227
183.907,237.510654306
183.922,237.600609253
183.937,237.690860157
183.952,237.781391565
183.967,237.872186765
183.982,237.963228037
183.997,238.054496869
184.012,238.145974144
184.027,238.237640306
184.042,238.329475501
184.057,238.421459699
184.072,238.513572804
184.087,238.605794743
184.102,238.698105549
184.117,238.790485425
184.132,238.882914806
184.147,238.975374404
184.162,239.067845255
184.177,239.160308749
184.192,239.252746663
184.207,239.345141182
184.222,239.437474919
184.237,239.52973093
184.252,239.621892724
184.267,239.713944274
184.282,239.805870021
184.297,239.897654875
184.312,239.989284219
184.327,240.080743909
184.342,240.172020268
184.357,240.263100085
184.372,240.353970607
184.387,240.444619539
184.402,240.53503503
184.417,240.62520567
184.432,240.715120482
184.447,240.80476891
184.462,240.894140812
184.477,240.983226453
184.492,241.07201649
184.507,241.160501965
184.522,241.248674298
184.537,241.33652527
184.552,241.424047018
184.56,241.470588058
184.567,241.511232023
184.582,241.598073099
184.597,241.684563386
184.612,241.770696335
184.627,241.856465701
184.642,241.941865534
184.657,242.026890164
184.672,242.111534198
184.687,242.195792505
184.702,242.279660211
184.717,242.363132684
184.732,242.44620553
184.747,242.528874582
184.762,242.61113589
184.777,242.692985713
184.792,242.774420514
184.807,242.855436945
184.822,242.936031843
184.837,243.016202224
184.852,243.095945269
184.867,243.175258322
184.882,243.25413888
184.897,243.332584585
184.912,243.410593221
184.927,243.488162698
184.942,243.565291059
184.957,243.641976459
184.972,243.718217168
184.987,243.794011562
185.002,243.869358115
185.017,243.944255398
185.032,244.018702067
185.047,244.09269686
185.062,244.166238594
185.077,244.239326157
185.092,244.311958502
185.107,244.384134645
185.122,244.455853656
185.137,244.52711466
185.152,244.597916826
185.167,244.668259367
185.182,244.738141535
185.197,244.807562616
185.212,244.876521925
185.227,244.945018806
185.242,245.013052622
185.257,245.080622759
185.272,245.147728616
185.287,245.214369605
185.302,245.280545148
185.31,245.315648257
185.317,245.346254672
185.332,245.411497607
185.347,245.476273385
185.362,245.540581434
185.377,245.604421177
185.392,245.667792031
185.407,245.730693404
185.422,245.79312469
185.437,245.855085271
185.452,245.916574511
185.467,245.977591759
185.482,246.038136345
185.497,246.098207575
185.512,246.157804734
185.527,246.216927086
185.542,246.275573865
185.557,246.333744283
185.572,246.391437523
185.587,246.448652739
185.602,246.505389058
185.617,246.561645576
185.632,246.617421357
185.647,246.672715438
185.662,246.72752682
185.677,246.781854475
185.692,246.835697343
185.707,246.889054328
185.722,246.941924307
185.737,246.99430612
185.752,247.046198578
185.767,247.097600455
185.782,247.148510498
185.797,247.19892742
185.812,247.248849902
185.827,247.298276594
185.842,247.347206116
185.857,247.395637059
185.872,247.443567981
185.887,247.490997418
185.902,247.537923872
185.917,247.58434582
185.932,247.630261712
185.947,247.675669973
185.96,247.714611948
185.962,247.720569006
185.977,247.764957187
185.992,247.80883287
186.007,247.852194393
186.022,247.895040067
186.037,247.937368188
186.052,247.979177033
186.06,248.001262159
186.067,248.020464864
186.082,248.061229926
186.097,248.10147045
186.112,248.141184657
186.127,248.180370756
186.142,248.219026943
186.157,248.257151409
186.172,248.294742339
186.187,248.33179791
186.202,248.368316294
186.217,248.404295663
186.232,248.439734187
186.247,248.474630038
186.262,248.508981385
186.277,248.542786405
186.292,248.576043278
186.307,248.608750192
186.322,248.64090534
186.337,248.672506926
186.352,248.703553165
186.367,248.734042283
186.382,248.76397252
186.397,248.793342135
186.412,248.822149397
186.427,248.850392597
186.442,248.878070047
186.457,248.905180077
186.472,248.931721039
186.487,248.957691312
186.502,248.983089297
186.517,249.007913423
186.532,249.032162145
186.547,249.055833949
186.562,249.078927351
186.577,249.101440897
186.592,249.123373166
186.607,249.144722774
186.622,249.165488367
186.637,249.185668632
186.652,249.205262289
186.667,249.224268099
186.682,249.242684864
186.697,249.260511425
186.71,249.275482833
186.712,249.27774666
186.727,249.294389497
186.742,249.310438903
186.757,249.32589389
186.772,249.340753516
186.787,249.355016883
186.802,249.368683141
186.817,249.381751489
186.832,249.394221171
186.847,249.406091484
186.862,249.417361769
186.877,249.428031424
186.892,249.438099893
186.907,249.447566672
186.922,249.456431312
186.937,249.464693413
186.952,249.472352628
186.967,249.479408667
186.982,249.48586129
186.997,249.491710312
187.012,249.496955605
187.027,249.501597091
187.042,249.505634752
187.057,249.50906862
187.072,249.511898788
187.087,249.514125401
187.102,249.515748661
187.117,249.516768826
187.132,249.517186209
187.147,249.51700118
187.162,249.516214166
187.177,249.514825647
187.192,249.512836162
187.207,249.510246305
187.222,249.507056726
187.237,249.503268129
187.252,249.498881277
187.267,249.493896986
187.282,249.488316129
187.297,249.482139632
187.312,249.475368478
187.327,249.468003702
187.342,249.460046398
187.357,249.451497707
187.372,249.442358831
187.387,249.43263102
187.402,249.42231558
187.417,249.411413869
187.432,249.399927295
187.447,249.387857321
187.46,249.376925939
187.462,249.37520546
187.477,249.361973274
187.492,249.348162379
187.507,249.333774439
187.522,249.318811165
187.537,249.303274323
187.552,249.287165721
187.567,249.270487218
187.582,249.253240719
187.597,249.235428178
187.612,249.217051592
187.627,249.198113005
187.642,249.178614506
187.657,249.158558229
187.672,249.137946348
187.687,249.116781082
187.702,249.095064696
187.717,249.072799492
187.732,249.049987812
187.747,249.026632043
187.762,249.002734609
187.777,248.978297972
187.792,248.953324634
187.807,248.927817134
187.822,248.901778048
187.837,248.875209988
187.852,248.8481156
187.867,248.820497568
187.882,248.792358605
187.897,248.763701464
187.912,248.734528923
187.927,248.704843799
187.942,248.674648935
187.957,248.643947204
187.972,248.612741515
187.987,248.581034799
188.002,248.548830017
188.017,248.516130161
188.032,248.482938243
188.047,248.449257309
188.062,248.415090422
188.077,248.380440676
188.092,248.345311187
188.107,248.309705092
188.122,248.273625553
188.137,248.237075751
188.152,248.200058892
188.167,248.162578198
188.182,248.124636913
188.197,248.086238299
188.21,248.052592107
188.212,248.047385637
188.227,248.008082223
188.242,247.968331372
188.257,247.928136415
188.272,247.8875007
188.287,247.846427583
188.302,247.804920443
188.317,247.762982665
188.332,247.720617653
188.347,247.677828816
188.362,247.634619583
188.377,247.590993386
188.392,247.546953671
188.407,247.502503893
188.422,247.457647514
188.437,247.41238801
188.452,247.366728858
188.467,247.320673545
188.482,247.274225566
188.497,247.227388416
188.512,247.180165607
188.527,247.132560641
188.542,247.084577037
188.557,247.036218308
188.572,246.987487977
188.587,246.938389566
188.602,246.888926601
188.617,246.839102606
188.632,246.78892111
188.647,246.73838564
188.66,246.694304636
188.662,246.687499726
188.677,246.636266892
188.692,246.584690666
188.707,246.532774572
188.722,246.480522132
