# 78954 TBPB Grantley Adams Observations at 12Z 30 Dec 2019
Frequency [GHz],TB
175.31,283.984086097
175.322,283.971783904
175.337,283.956366689
175.352,283.940905587
175.367,283.925400571
175.382,283.909851611
175.397,283.894258677
175.412,283.878621737
175.427,283.86294076
175.442,283.847215713
175.457,283.831446562
175.472,283.815633273
175.487,283.799775808
175.502,283.783874133
175.517,283.767928209
175.532,283.751937998
175.547,283.735903459
175.562,283.719824552
175.577,283.703701236
175.592,283.687533467
175.607,283.671321201
175.622,283.655064394
175.637,283.638762999
175.652,283.622416969
175.667,283.606026255
175.682,283.589590808
175.697,283.573110578
175.712,283.556585511
175.727,283.540015555
175.742,283.523400656
175.757,283.506740758
175.772,283.490035803
175.787,283.473285735
175.802,283.456490493
175.817,283.439650016
175.832,283.422764243
175.847,283.40583311
175.862,283.388856552
175.877,283.371834504
175.892,283.354766897
175.907,283.337653663
175.922,283.320494731
175.937,283.30329003
175.952,283.286039487
175.967,283.268743027
175.982,283.251400573
175.997,283.234012049
176.012,283.216577375
176.027,283.19909647
176.042,283.181569252
176.057,283.163995638
176.072,283.146375543
176.087,283.128708879
176.102,283.110995558
176.117,283.093235489
176.132,283.075428582
176.147,283.057574743
176.162,283.039673877
176.177,283.021725887
176.192,283.003730675
176.207,282.985688141
176.222,282.967598183
176.237,282.949460697
176.252,282.931275579
176.267,282.913042721
176.282,282.894762014
176.297,282.876433349
176.31,282.860509625
176.312,282.858056612
176.327,282.839631689
176.342,282.821158464
176.357,282.80263682
176.372,282.784066637
176.387,282.765447792
176.402,282.746780164
176.417,282.728063625
176.432,282.709298048
176.447,282.690483306
176.46,282.674137323
176.462,282.671619265
176.477,282.652705793
176.492,282.633742755
176.507,282.614730013
176.522,282.595667429
176.537,282.576554861
176.552,282.557392166
176.567,282.538179198
176.582,282.518915811
176.597,282.499601855
176.612,282.480237177
176.627,282.460821626
176.642,282.441355044
176.657,282.421837275
176.672,282.402268157
176.687,282.382647529
176.702,282.362975227
176.717,282.343251084
176.732,282.323474931
176.747,282.303646597
176.762,282.283765909
176.777,282.263832692
176.792,282.243846769
176.807,282.223807958
176.822,282.203716078
176.837,282.183570945
176.852,282.163372372
176.867,282.143120169
176.882,282.122814145
176.897,282.102454106
176.912,282.082039857
176.927,282.061571199
176.942,282.04104793
176.957,282.020469848
176.972,281.999836747
176.987,281.979148419
177.002,281.958404653
177.017,281.937605236
177.032,281.916749954
177.047,281.895838587
177.062,281.874870916
177.077,281.853846718
177.092,281.832765767
177.107,281.811627836
177.122,281.790432695
177.137,281.769180109
177.152,281.747869844
177.167,281.726501661
177.182,281.705075321
177.197,281.683590579
177.21,281.66492304
177.212,281.66204719
177.227,281.640444906
177.242,281.618783475
177.257,281.597062643
177.272,281.575282154
177.287,281.55344175
177.302,281.531541167
177.31,281.51983616
177.317,281.509580143
177.332,281.487558409
177.347,281.465475696
177.362,281.443331732
177.377,281.42112624
177.392,281.398858943
177.407,281.37652956
177.422,281.354137808
177.437,281.331683399
177.452,281.309166046
177.467,281.286585454
177.482,281.263941331
177.497,281.241233378
177.512,281.218461294
177.527,281.195624776
177.542,281.172723518
177.557,281.149757211
177.572,281.126725542
177.587,281.103628196
177.602,281.080464855
177.617,281.057235199
177.632,281.033938903
177.647,281.010575641
177.66,280.990273057
177.662,280.987145083
177.677,280.963646895
177.692,280.940080742
177.707,280.916446286
177.722,280.892743183
177.737,280.86897109
177.752,280.845129658
177.767,280.821218535
177.782,280.797237367
177.797,280.773185798
177.812,280.749063467
177.827,280.724870009
177.842,280.700605058
177.857,280.676268243
177.872,280.651859193
177.887,280.62737753
177.902,280.602822874
177.917,280.578194843
177.932,280.55349305
177.947,280.528717107
177.96,280.507184339
177.962,280.503866619
177.977,280.478941192
177.992,280.453940425
178.007,280.428863916
178.022,280.40371126
178.037,280.378482045
178.052,280.35317586
178.067,280.327792289
178.082,280.30233091
178.097,280.276791302
178.112,280.251173037
178.127,280.225475686
178.142,280.199698814
178.157,280.173841985
178.172,280.147904757
178.187,280.121886686
178.202,280.095787324
178.217,280.069606219
178.232,280.043342916
178.247,280.016996957
178.262,279.990567878
178.277,279.964055213
178.292,279.937458491
178.307,279.91077724
178.322,279.884010981
178.337,279.857159232
178.352,279.830221508
178.367,279.803197321
178.382,279.776086175
178.397,279.748887576
178.41,279.725244327
178.412,279.72160102
178.427,279.694226004
178.442,279.666762017
178.457,279.639208548
178.472,279.611565077
178.487,279.583831085
178.502,279.556006044
178.517,279.528089427
178.532,279.500080697
178.547,279.471979318
178.562,279.443784745
178.577,279.415496433
178.592,279.38711383
178.607,279.358636379
178.622,279.330063522
178.637,279.301394692
178.652,279.27262932
178.667,279.243766833
178.682,279.214806651
178.697,279.185748191
178.712,279.156590866
178.727,279.127334082
178.742,279.097977241
178.757,279.06851974
178.772,279.038960973
178.787,279.009300326
178.802,278.979537182
178.817,278.949670917
178.832,278.919700903
178.847,278.889626508
178.862,278.859447092
178.877,278.829162012
178.892,278.798770617
178.907,278.768272253
178.922,278.737666259
178.937,278.706951968
178.952,278.676128709
178.967,278.645195804
178.982,278.614152569
178.997,278.582998313
179.012,278.551732341
179.027,278.520353951
179.042,278.488862435
179.057,278.457257077
179.072,278.425537157
179.087,278.393701946
179.102,278.361750712
179.117,278.329682711
179.132,278.297497198
179.147,278.265193415
179.16,278.237100549
179.162,278.232770603
179.177,278.20022799
179.192,278.167564802
179.207,278.134780254
179.222,278.101873554
179.237,278.068843903
179.252,278.035690495
179.267,278.002412514
179.282,277.969009137
179.297,277.935479534
179.312,277.901822863
179.327,277.868038278
179.342,277.834124921
179.357,277.800081926
179.372,277.765908419
179.387,277.731603515
179.402,277.697166321
179.417,277.662595935
179.432,277.627891443
179.447,277.593051923
179.462,277.558076443
179.477,277.522964059
179.492,277.487713817
179.507,277.452324754
179.522,277.416795894
179.537,277.381126252
179.552,277.345314828
179.567,277.309360614
179.582,277.273262589
179.597,277.237019719
179.612,277.200630958
179.627,277.164095249
179.642,277.12741152
179.657,277.090578686
179.672,277.053595651
179.687,277.016461301
179.702,276.979174513
179.717,276.941734146
179.732,276.904139046
179.747,276.866388043
179.762,276.828479953
179.777,276.790413576
179.792,276.752187695
179.807,276.713801079
179.822,276.675252478
179.837,276.636540628
179.852,276.597664243
179.867,276.558622024
179.882,276.519412652
179.897,276.480034789
179.91,276.445769969
179.912,276.440487078
179.927,276.400768145
179.942,276.360876593
179.957,276.320811006
179.972,276.28056995
179.987,276.240151965
180.002,276.199555574
180.017,276.158779275
180.032,276.117821546
180.047,276.07668084
180.062,276.035355587
180.077,275.993844194
180.092,275.952145041
180.107,275.910256487
180.122,275.868176862
180.137,275.825904471
180.152,275.783437593
180.167,275.740774478
180.182,275.69791335
180.197,275.654852403
180.212,275.611589804
180.227,275.568123687
180.242,275.524452159
180.257,275.480573295
180.272,275.436485136
180.287,275.392185695
180.302,275.347672949
180.317,275.302944841
180.332,275.257999283
180.347,275.212834147
180.362,275.167447274
180.377,275.121836464
180.392,275.075999485
180.407,275.029934061
180.422,274.983637882
180.437,274.937108596
180.452,274.89034381
180.467,274.843341092
180.482,274.796097965
180.497,274.748611913
180.512,274.700880372
180.527,274.652900736
180.542,274.604670353
180.557,274.556186524
180.56,274.546459103
180.572,274.507446502
180.587,274.458447495
180.602,274.409186658
180.617,274.359661098
180.632,274.309867871
180.647,274.259803979
180.66,274.216193979
180.662,274.209466373
180.677,274.158851949
180.692,274.107957549
180.707,274.056779957
180.722,274.005315901
180.737,273.953562052
180.752,273.901515019
180.767,273.849171353
180.782,273.796527543
180.797,273.743580014
180.812,273.690325129
180.827,273.636759185
180.842,273.582878413
180.857,273.528678978
180.872,273.474156976
180.887,273.419308431
180.902,273.3641293
180.917,273.308615464
180.932,273.252762734
180.947,273.196566843
180.962,273.14002345
180.977,273.083128136
180.992,273.025876403
181.007,272.968263671
181.022,272.910285282
181.037,272.851936492
181.052,272.793212472
181.067,272.73410831
181.082,272.674619002
181.097,272.614739457
181.112,272.554464494
181.127,272.493788838
181.142,272.432707118
181.157,272.371213871
181.172,272.309303533
181.187,272.246970441
181.202,272.184208831
181.217,272.121012835
181.232,272.05737648
181.247,271.993293685
181.262,271.92875826
181.277,271.863763902
181.292,271.798304195
181.307,271.732372606
181.31,271.719129079
181.322,271.665962484
181.337,271.599067057
181.352,271.531679427
181.367,271.463792572
181.382,271.39539934
181.397,271.326492447
181.412,271.257064473
181.427,271.187107861
181.442,271.116614913
181.457,271.045577786
181.472,270.973988488
181.487,270.901838876
181.502,270.829120651
181.517,270.755825356
181.532,270.681944369
181.547,270.607468901
181.562,270.532389989
181.577,270.456698495
181.592,270.380385098
181.607,270.30344029
181.622,270.225854369
181.637,270.147617438
181.652,270.068719392
181.667,269.989149918
181.682,269.908898485
181.697,269.827954336
181.712,269.746306487
181.727,269.663943711
181.742,269.580854535
181.757,269.497027231
181.772,269.412449805
181.787,269.327109991
181.802,269.240995235
181.817,269.154092692
181.832,269.066389209
181.847,268.977871314
181.862,268.888525206
181.877,268.79833674
181.892,268.707291411
181.907,268.615374342
181.922,268.522570268
181.937,268.428863516
181.952,268.334237988
181.967,268.238677144
181.982,268.142163978
181.997,268.044680999
182.012,267.946210204
182.027,267.846733058
182.042,267.746230459
182.057,267.644682716
182.06,267.624245974
182.072,267.542069517
182.087,267.438369889
182.102,267.33356217
182.117,267.227623965
182.132,267.120532103
182.147,267.012262595
182.162,266.902790581
182.177,266.792090276
182.192,266.680134913
182.207,266.566896677
182.222,266.452346637
182.237,266.336454666
182.252,266.219189361
182.267,266.100517945
182.282,265.980406173
182.297,265.858818215
182.312,265.735716531
182.327,265.611061742
182.342,265.484812469
182.357,265.356925174
182.372,265.227353965
182.387,265.096050394
182.402,264.962963223
182.417,264.828038162
182.432,264.69121758
182.447,264.552440177
182.462,264.411640617
182.477,264.268749116
182.492,264.123690969
182.507,263.976386028
182.522,263.826748099
182.537,263.674684266
182.552,263.520094113
182.567,263.362868853
182.582,263.202890318
182.597,263.04002981
182.612,262.874146793
182.627,262.70508738
182.642,262.5326826
182.657,262.356746402
182.672,262.177073345
182.687,261.993435939
182.702,261.805581548
182.717,261.613228808
182.732,261.416063448
182.747,261.213733424
182.762,261.005843232
182.777,260.791947242
182.792,260.571541877
182.807,260.344056416
182.822,260.108842142
182.837,259.865159522
182.852,259.612163021
182.867,259.34888307
182.882,259.074204624
182.897,258.786841589
182.912,258.485306286
182.927,258.167872922
182.942,257.832533839
182.957,257.476947068
182.972,257.098373477
182.987,256.693601507
183.002,256.258857274
183.017,255.789697671
183.032,255.280884223
183.047,254.726236014
183.062,254.118461572
183.077,253.448972756
183.092,252.707690033
183.107,251.882860082
183.122,250.960927556
183.137,249.926539297
183.152,248.762821724
183.167,247.4521757
183.182,245.977998097
183.197,244.32798319
183.212,242.499967632
183.227,240.51153517
183.242,238.414353969
183.257,236.312365659
183.367,236.810888401
183.382,238.918149
183.397,240.988736217
183.412,242.933816508
183.427,244.711976741
183.442,246.311750119
183.457,247.738541253
183.472,249.006108773
183.487,250.131481711
183.502,251.132139711
183.517,252.024577261
183.532,252.823669934
183.547,253.542482975
183.562,254.19230952
183.577,254.782816926
183.592,255.322234158
183.607,255.817544883
183.622,256.274668914
183.637,256.698624597
183.652,257.093670072
183.667,257.463424046
183.682,257.81096791
183.697,258.138931535
183.712,258.449565047
183.727,258.744798761
183.742,259.026293188
183.757,259.295480773
183.772,259.553600751
183.787,259.801728302
183.802,260.040798978
183.817,260.271629205
183.832,260.494933527
183.847,260.711339144
183.862,260.921398193
183.877,261.125598143
183.892,261.324370626
183.907,261.518098939
183.922,261.707124442
183.937,261.891752031
183.952,262.072254814
183.967,262.248878131
183.982,262.421843008
183.997,262.591349135
184.012,262.757577433
184.027,262.920692282
184.042,263.080843443
184.057,263.238167739
184.072,263.392790508
184.087,263.544826874
184.102,263.694382858
184.117,263.841556347
184.132,263.986437948
184.147,264.129111734
184.162,264.269655902
184.177,264.408143356
184.192,264.544642213
184.207,264.679216264
184.222,264.811925371
184.237,264.942825823
184.252,265.071970658
184.267,265.199409939
184.282,265.325191013
184.297,265.449358734
184.312,265.571955664
184.327,265.693022255
184.342,265.812597017
184.357,265.930716658
184.372,266.047416221
184.387,266.162729204
184.402,266.276687668
184.417,266.389322338
184.432,266.500662687
184.447,266.610737025
184.462,266.719572568
184.477,266.827195513
184.492,266.93363109
184.507,267.038903632
184.522,267.143036616
184.537,267.24605272
184.552,267.347973864
184.56,267.401891439
184.567,267.448821251
184.582,267.548615407
184.597,267.647376216
184.612,267.745122951
184.627,267.841874307
184.642,267.937648427
184.657,268.032462932
184.672,268.126334941
184.687,268.219281097
184.702,268.311317589
184.717,268.402460171
184.732,268.492724181
184.747,268.582124557
184.762,268.670675858
184.777,268.758392277
184.792,268.845287655
184.807,268.931375495
184.822,269.016668979
184.837,269.101180974
184.852,269.184924048
184.867,269.267910483
184.882,269.350152278
184.897,269.431661166
184.912,269.51244862
184.927,269.592525864
184.942,269.671903878
184.957,269.750593409
184.972,269.828604979
184.987,269.905948887
185.002,269.982635224
185.017,270.058673873
185.032,270.134074518
185.047,270.208846649
185.062,270.282999568
185.077,270.356542396
185.092,270.429484073
185.107,270.501833371
185.122,270.573598889
185.137,270.644789067
185.152,270.715412184
185.167,270.785476363
185.182,270.854989577
185.197,270.923959651
185.212,270.992394267
185.227,271.060300966
185.242,271.127687153
185.257,271.194560097
185.272,271.260926938
185.287,271.326794687
185.302,271.392170232
185.31,271.426838272
185.317,271.457060335
185.332,271.521471643
185.347,271.585410682
185.362,271.648883865
185.377,271.711897492
185.392,271.774457755
185.407,271.836570734
185.422,271.898242409
185.437,271.95947865
185.452,272.020285231
185.467,272.080667822
185.482,272.140631999
185.497,272.20018324
185.512,272.259326928
185.527,272.318068356
185.542,272.376412724
185.557,272.434365144
185.572,272.491930641
185.587,272.549114154
185.602,272.605920536
185.617,272.662354559
185.632,272.718420914
185.647,272.77412421
185.662,272.829468979
185.677,272.884459674
185.692,272.939100676
185.707,272.993396287
185.722,273.047350739
185.737,273.100968189
185.752,273.154252727
185.767,273.207208371
185.782,273.259839071
185.797,273.31214871
185.812,273.364141105
185.827,273.415820009
185.842,273.467189111
185.857,273.518252036
185.872,273.569012349
185.887,273.619473554
185.902,273.669639096
185.917,273.719512361
185.932,273.769096678
185.947,273.81839532
185.96,273.860892219
185.962,273.867411504
185.977,273.916148393
185.992,273.964609097
186.007,274.012796672
186.022,274.060714124
186.037,274.108364408
186.052,274.155750429
186.06,274.180915908
186.067,274.202875044
186.082,274.249741061
186.097,274.29635124
186.112,274.342708299
186.127,274.388814905
186.142,274.434673685
186.157,274.480287219
186.172,274.525658047
186.187,274.570788665
186.202,274.615681527
186.217,274.660339049
186.232,274.704763605
186.247,274.748957531
186.262,274.792923123
186.277,274.836662643
186.292,274.880178311
186.307,274.923472316
186.322,274.966546808
186.337,275.009403902
186.352,275.052045683
186.367,275.094474197
186.382,275.136691461
186.397,275.178699458
186.412,275.22050014
186.427,275.262095428
186.442,275.303487213
186.457,275.344677356
186.472,275.385667688
186.487,275.426460013
186.502,275.467056105
186.517,275.507457712
186.532,275.547666555
186.547,275.587684327
186.562,275.627512698
186.577,275.667153311
186.592,275.706607783
186.607,275.745877708
186.622,275.784964656
186.637,275.823870175
186.652,275.862595786
186.667,275.901142993
186.682,275.939513274
186.697,275.977708086
186.71,276.010669433
186.712,276.015728867
186.727,276.053577032
186.742,276.091253976
186.757,276.128761077
186.772,276.166099689
186.787,276.203271151
186.802,276.24027678
186.817,276.277117877
186.832,276.313795725
186.847,276.350311588
186.862,276.386666714
186.877,276.422862334
186.892,276.458899661
186.907,276.494779895
186.922,276.530504216
186.937,276.566073792
186.952,276.601489774
186.967,276.636753299
186.982,276.671865488
186.997,276.706827448
187.012,276.741640275
187.027,276.776305046
187.042,276.810822829
187.057,276.845194676
187.072,276.879421627
187.087,276.91350471
187.102,276.947444939
187.117,276.981243317
187.132,277.014900835
187.147,277.048418471
187.162,277.081797193
187.177,277.115037958
187.192,277.148141709
187.207,277.181109381
187.222,277.213941897
187.237,277.246640171
187.252,277.279205105
187.267,277.311637592
187.282,277.343938514
187.297,277.376108745
187.312,277.408149148
187.327,277.440060576
187.342,277.471843877
187.357,277.503499884
187.372,277.535029425
187.387,277.566433319
187.402,277.597712376
187.417,277.628867397
187.432,277.659899175
187.447,277.690808496
187.46,277.71749812
187.462,277.721596136
187.477,277.752262866
187.492,277.782809447
187.507,277.813236632
187.522,277.843545169
187.537,277.873735798
187.552,277.90380925
187.567,277.933766251
187.582,277.963607518
187.597,277.993333764
187.612,278.022945693
187.627,278.052444002
187.642,278.081829385
187.657,278.111102525
187.672,278.140264101
187.687,278.169314787
187.702,278.198255249
187.717,278.227086146
187.732,278.255808134
187.747,278.284421861
187.762,278.31292797
187.777,278.341327099
187.792,278.369619878
187.807,278.397806934
187.822,278.425888888
187.837,278.453866355
187.852,278.481739944
187.867,278.509510261
187.882,278.537177906
187.897,278.564743471
187.912,278.592207548
187.927,278.619570721
187.942,278.646833569
187.957,278.673996667
187.972,278.701060585
187.987,278.728025889
188.002,278.754893139
188.017,278.781662891
188.032,278.808335697
188.047,278.834912105
188.062,278.861392656
188.077,278.88777789
188.092,278.914068339
188.107,278.940264535
188.122,278.966367001
188.137,278.992376261
188.152,279.01829283
188.167,279.044117223
188.182,279.069849947
188.197,279.095491508
188.21,279.117640842
188.212,279.121042408
188.227,279.146503143
188.242,279.171874207
188.257,279.197156089
188.272,279.222349276
188.287,279.247454248
188.302,279.272471484
188.317,279.29740146
188.332,279.322244645
188.347,279.347001507
188.362,279.37167251
188.377,279.396258114
188.392,279.420758775
188.407,279.445174948
188.422,279.469507081
188.437,279.493755621
188.452,279.517921012
188.467,279.542003692
188.482,279.566004099
188.497,279.589922664
188.512,279.613759818
188.527,279.637515988
188.542,279.661191597
188.557,279.684787065
188.572,279.708302808
188.587,279.731739242
188.602,279.755096777
188.617,279.77837582
188.632,279.801576776
188.647,279.824700047
188.66,279.844677685
188.662,279.847746031
188.677,279.870715125
188.692,279.893607721
188.707,279.916424209
