# 48698 WSSS Singapore Observations at 12Z 31 Dec 2019
Frequency [GHz],TB
175.31,276.046197129
175.322,276.02779224
175.337,276.004740379
175.352,275.981637543
175.367,275.95848358
175.382,275.935278365
175.397,275.912021726
175.412,275.88871355
175.427,275.865353651
175.442,275.841941899
175.457,275.818478152
175.472,275.794962248
175.487,275.771394032
175.502,275.747773359
175.517,275.724100064
175.532,275.700374003
175.547,275.676595023
175.562,275.652762957
175.577,275.628877652
175.592,275.604938942
175.607,275.580946669
175.622,275.556900679
175.637,275.532800803
175.652,275.508646887
175.667,275.484438759
175.682,275.460176259
175.697,275.435859202
175.712,275.411487441
175.727,275.387060802
175.742,275.362579109
175.757,275.338042194
175.772,275.31344989
175.787,275.288802018
175.802,275.264098397
175.817,275.239338866
175.832,275.214523234
175.847,275.189651335
175.862,275.164722974
175.877,275.139737995
175.892,275.114696191
175.907,275.089597388
175.922,275.0644414
175.937,275.039228053
175.952,275.013957143
175.967,274.988628494
175.982,274.9632419
175.997,274.937797196
176.012,274.912294167
176.027,274.886732624
176.042,274.861112383
176.057,274.835433232
176.072,274.809694986
176.087,274.783897437
176.102,274.758040397
176.117,274.732123652
176.132,274.706146993
176.147,274.68011023
176.162,274.654013155
176.177,274.627855552
176.192,274.601637219
176.207,274.57535793
176.222,274.549017489
176.237,274.522615682
176.252,274.496152279
176.267,274.469627075
176.282,274.443039851
176.297,274.416390376
176.31,274.393243653
176.312,274.389678447
176.327,274.362903821
176.342,274.336066285
176.357,274.3091656
176.372,274.282201554
176.387,274.255173902
176.402,274.228082418
176.417,274.20092687
176.432,274.173707013
176.447,274.146422622
176.46,274.122723761
176.462,274.119073445
176.477,274.091659254
176.492,274.064179798
176.507,274.036634836
176.522,274.009024104
176.537,273.981347376
176.552,273.953604395
176.567,273.925794901
176.582,273.897918647
176.597,273.869975371
176.612,273.841964823
176.627,273.813886727
176.642,273.785740835
176.657,273.757526871
176.672,273.729244569
176.687,273.700893669
176.702,273.672473883
176.717,273.643984963
176.732,273.615426599
176.747,273.586798541
176.762,273.558100491
176.777,273.529332179
176.792,273.500493314
176.807,273.471583598
176.822,273.442602754
176.837,273.413550492
176.852,273.384426504
176.867,273.355230503
176.882,273.325962168
176.897,273.296621227
176.912,273.26720735
176.927,273.237720243
176.942,273.208159596
176.957,273.178525077
176.972,273.148816392
176.987,273.119033198
177.002,273.089175188
177.017,273.059242039
177.032,273.029233422
177.047,272.999148998
177.062,272.968988442
177.077,272.938751405
177.092,272.908437557
177.107,272.878046555
177.122,272.847578048
177.137,272.817031681
177.152,272.786407118
177.167,272.755703989
177.182,272.724921939
177.197,272.694060602
177.21,272.667249695
177.212,272.663119618
177.227,272.632098598
177.242,272.600997185
177.257,272.569815007
177.272,272.538551664
177.287,272.507206785
177.302,272.475779981
177.31,272.458985384
177.317,272.444270853
177.332,272.412679009
177.347,272.381004044
177.362,272.34924556
177.377,272.317403145
177.392,272.285476379
177.407,272.253464861
177.422,272.221368152
177.437,272.18918584
177.452,272.156917499
177.467,272.124562667
177.482,272.092120939
177.497,272.059591846
177.512,272.026974953
177.527,271.994269805
177.542,271.961475938
177.557,271.928592907
177.572,271.895620214
177.587,271.862557403
177.602,271.829404002
177.617,271.796159519
177.632,271.762823467
177.647,271.729395349
177.66,271.700349447
177.662,271.695874658
177.677,271.662260914
177.692,271.628553577
177.707,271.59475215
177.722,271.560856103
177.737,271.526864893
177.752,271.492778015
177.767,271.458594911
177.782,271.424315033
177.797,271.389937824
177.812,271.355462732
177.827,271.320889184
177.842,271.286216615
177.857,271.25144444
177.872,271.216572078
177.887,271.181598916
177.902,271.146524371
177.917,271.111347823
177.932,271.076068666
177.947,271.040686273
177.96,271.009937538
177.962,271.005200008
177.977,270.969609231
177.992,270.933913306
178.007,270.898111571
178.022,270.86220336
178.037,270.826188006
178.052,270.790064839
178.067,270.753833145
178.082,270.717492249
178.097,270.681041431
178.112,270.644479985
178.127,270.607807184
178.142,270.571022298
178.157,270.534124569
178.172,270.497113267
178.187,270.459987612
178.202,270.422746843
178.217,270.38539016
178.232,270.347916789
178.247,270.310325917
178.262,270.272616727
178.277,270.234788411
178.292,270.196840104
178.307,270.158770975
178.322,270.120580172
178.337,270.082266812
178.352,270.043830009
178.367,270.005268882
178.382,269.966582525
178.397,269.927770007
178.41,269.894029724
178.412,269.888830389
178.427,269.849762753
178.442,269.810566123
178.457,269.77123953
178.472,269.731781998
178.487,269.692192513
178.502,269.652470084
178.517,269.612613653
178.532,269.572622204
178.547,269.532494672
178.562,269.492229994
178.577,269.451827074
178.592,269.411284809
178.607,269.370602094
178.622,269.329777784
178.637,269.288810735
178.652,269.247699779
178.667,269.206443728
178.682,269.165041392
178.697,269.123491555
178.712,269.081792964
178.727,269.039944374
178.742,268.997944519
178.757,268.955792098
178.772,268.913485813
178.787,268.871024332
178.802,268.828406304
178.817,268.785630356
178.832,268.742695112
178.847,268.699599156
178.862,268.656341061
178.877,268.612919358
178.892,268.569332594
178.907,268.52557928
178.922,268.481657875
178.937,268.437566861
178.952,268.393304658
178.967,268.348869685
178.982,268.304260334
178.997,268.259474981
179.012,268.214511948
179.027,268.169369557
179.042,268.124046095
179.057,268.078539827
179.072,268.032849005
179.087,267.98697182
179.102,267.940906467
179.117,267.894651095
179.132,267.848203833
179.147,267.80156279
179.16,267.760982307
179.162,267.754726027
179.177,267.707691583
179.192,267.660457471
179.207,267.613021689
179.222,267.565382158
179.237,267.517536806
179.252,267.469483524
179.267,267.421220175
179.282,267.372744554
179.297,267.324054461
179.312,267.275147659
179.327,267.226021842
179.342,267.176674725
179.357,267.127103926
179.372,267.077307066
179.387,267.027281727
179.402,266.97702543
179.417,266.926535695
179.432,266.875809963
179.447,266.824845658
179.462,266.773640164
179.477,266.722190823
179.492,266.670494941
179.507,266.618549756
179.522,266.566352498
179.537,266.513900329
179.552,266.461190378
179.567,266.40821974
179.582,266.354985428
179.597,266.301484463
179.612,266.247713772
179.627,266.193670257
179.642,266.139350778
179.657,266.084752113
179.672,266.029871038
179.687,265.974704234
179.702,265.919248366
179.717,265.863500028
179.732,265.807455769
179.747,265.751112066
179.762,265.694465369
179.777,265.637512059
179.792,265.580248464
179.807,265.522670845
179.822,265.46477542
179.837,265.40655834
179.852,265.348015708
179.867,265.289143541
179.882,265.22993781
179.897,265.170394447
179.91,265.118513865
179.912,265.110509272
179.927,265.050278083
179.942,264.989696596
179.957,264.928760444
179.972,264.867465232
179.987,264.805806468
180.002,264.743779604
180.017,264.681380008
180.032,264.618602987
180.047,264.555443776
180.062,264.491897528
180.077,264.427959334
180.092,264.363624204
180.107,264.298887068
180.122,264.23374278
180.137,264.168186122
180.152,264.102211787
180.167,264.035814384
180.182,263.968988457
180.197,263.901728447
180.212,263.834028722
180.227,263.76588356
180.242,263.697287143
180.257,263.62823359
180.272,263.558716908
180.287,263.488731012
180.302,263.418269736
180.317,263.347326824
180.332,263.275895903
180.347,263.203970537
180.362,263.131544155
180.377,263.058610113
180.392,262.985161665
180.407,262.911191952
180.422,262.836694016
180.437,262.761660808
180.452,262.68608516
180.467,262.609959804
180.482,262.533277347
180.497,262.456030294
180.512,262.37821107
180.527,262.299811942
180.542,262.220825093
180.557,262.141242573
180.56,262.125253884
180.572,262.061056318
180.587,261.98025817
180.602,261.898839822
180.617,261.816792844
180.632,261.734108718
180.647,261.650778768
180.66,261.578030299
180.662,261.566794217
180.677,261.48214614
180.692,261.396825511
180.707,261.310823149
180.722,261.224129748
180.737,261.13673589
180.752,261.048632018
180.767,260.959808426
180.782,260.87025529
180.797,260.779962628
180.812,260.688920362
180.827,260.597118228
180.842,260.504545864
180.857,260.411192744
180.872,260.317048211
180.887,260.222101458
180.902,260.126341553
180.917,260.029757415
180.932,259.932337805
180.947,259.834071361
180.962,259.734946569
180.977,259.634951773
180.992,259.53407517
181.007,259.432304821
181.022,259.329628629
181.037,259.226034362
181.052,259.121509667
181.067,259.016041995
181.082,258.909618708
181.097,258.802226998
181.112,258.69385395
181.127,258.584486461
181.142,258.474111317
181.157,258.362715186
181.172,258.250284592
181.187,258.136805904
181.202,258.022265409
181.217,257.90664922
181.232,257.789943372
181.247,257.672133739
181.262,257.553206116
181.277,257.433146166
181.292,257.311939472
181.307,257.189571476
181.31,257.164957235
181.322,257.066027555
181.337,256.941292989
181.352,256.815352971
181.367,256.688192608
181.382,256.559796944
181.397,256.430150973
181.412,256.299239617
181.427,256.167047747
181.442,256.033560223
181.457,255.898761857
181.472,255.762637447
181.487,255.625171793
181.502,255.486349708
181.517,255.346155999
181.532,255.204575527
181.547,255.061593215
181.562,254.91719401
181.577,254.771362962
181.592,254.624085213
181.607,254.475346012
181.622,254.325130741
181.637,254.173424944
181.652,254.020214311
181.667,253.865484765
181.682,253.709222397
181.697,253.551413575
181.712,253.392044919
181.727,253.231103346
181.742,253.06857606
181.757,252.904450661
181.772,252.738715095
181.787,252.57135772
181.802,252.402367336
181.817,252.231733225
181.832,252.059445172
181.847,251.885493492
181.862,251.709869124
181.877,251.532563588
181.892,251.353569096
181.907,251.172878564
181.922,250.990485636
181.937,250.806384789
181.952,250.620571322
181.967,250.433041411
181.982,250.243792198
181.997,250.05282181
182.012,249.860129406
182.027,249.665715264
182.042,249.469580807
182.057,249.271728647
182.06,249.231952413
182.072,249.072162691
182.087,248.870888157
182.102,248.667911659
182.117,248.463241263
182.132,248.256886513
182.147,248.048858561
182.162,247.839170174
182.177,247.627835835
182.192,247.414871746
182.207,247.200295989
182.222,246.984128515
182.237,246.766391247
182.252,246.547108095
182.267,246.326305096
182.282,246.104010416
182.297,245.880254419
182.312,245.65506979
182.327,245.428491506
182.342,245.200556958
182.357,244.971305992
182.372,244.74078095
182.387,244.509026737
182.402,244.2760909
182.417,244.042023613
182.432,243.806877789
182.447,243.570709073
182.462,243.333575922
182.477,243.095539612
182.492,242.856664284
182.507,242.617016992
182.522,242.376667688
182.537,242.135689293
182.552,241.894157668
182.567,241.652151666
182.582,241.409753135
182.597,241.167046894
182.612,240.924120784
182.627,240.681065597
182.642,240.43797513
182.657,240.194946139
182.672,239.952078296
182.687,239.709474176
182.702,239.467239216
182.717,239.225481632
182.732,238.98431239
182.747,238.743845039
182.762,238.504195671
182.777,238.265482739
182.792,238.027826837
182.807,237.791350534
182.822,237.556178003
182.837,237.322434694
182.852,237.090246866
182.867,236.859740923
182.882,236.63104277
182.897,236.404276735
182.912,236.179564447
182.927,235.957023299
182.942,235.736764455
182.957,235.51889043
182.972,235.303491909
182.987,235.090643718
183.002,234.88039955
183.017,234.672785239
183.032,234.467789823
183.047,234.265353847
183.062,234.065353619
183.077,233.86758002
183.092,233.671709385
183.107,233.477263012
183.122,233.28355001
183.137,233.089585359
183.152,232.893970962
183.167,232.6947209
183.182,232.489003825
183.197,232.272766246
183.212,232.040201823
183.227,231.783088967
183.242,231.490294081
183.257,231.148811997
183.367,231.224722995
183.382,231.548334241
183.397,231.826531155
183.412,232.072161336
183.427,232.295614048
183.442,232.504431712
183.457,232.703913504
183.472,232.897755663
183.487,233.08854136
183.502,233.278083597
183.517,233.467658796
183.532,233.65816507
183.547,233.850230414
183.562,234.044287331
183.577,234.240625159
183.592,234.439427214
183.607,234.64079764
183.622,234.844781035
183.637,235.051376993
183.652,235.260551081
183.667,235.472243072
183.682,235.686373319
183.697,235.902847639
183.712,236.121561089
183.727,236.34240096
183.742,236.565249062
183.757,236.789983551
183.772,237.016480377
183.787,237.244614397
183.802,237.474260231
183.817,237.70529305
183.832,237.937589031
183.847,238.171025843
183.862,238.405482999
183.877,238.640842077
183.892,238.876986979
183.907,239.113804058
183.922,239.351182282
183.937,239.589013295
183.952,239.827191549
183.967,240.065614294
183.982,240.304181676
183.997,240.542796743
184.012,240.781365475
184.027,241.019796806
184.042,241.258002614
184.057,241.495897746
184.072,241.733400002
184.087,241.970430112
184.102,242.20691176
184.117,242.442771546
184.132,242.677938939
184.147,242.912346319
184.162,243.145928895
184.177,243.378624702
184.192,243.610374542
184.207,243.841121985
184.222,244.070813282
184.237,244.299397361
184.252,244.526825775
184.267,244.753052654
184.282,244.978034637
184.297,245.201730829
184.312,245.42410277
184.327,245.645114357
184.342,245.864731778
184.357,246.08292348
184.372,246.299660096
184.387,246.514914384
184.402,246.728661173
184.417,246.940877278
184.432,247.151541475
184.447,247.360634423
184.462,247.568138573
184.477,247.774038152
184.492,247.97831907
184.507,248.180968863
184.522,248.381976657
184.537,248.581333067
184.552,248.779030159
184.56,248.883787819
184.567,248.975061396
184.582,249.169421576
184.597,249.36210674
184.612,249.55311419
184.627,249.742442369
184.642,249.930090814
184.657,250.116060166
184.672,250.300352005
184.687,250.482968919
184.702,250.663914386
184.717,250.843192719
184.732,251.020809084
184.747,251.196769393
184.762,251.371080277
184.777,251.543749061
184.792,251.714783709
184.807,251.88419279
184.822,252.051985445
184.837,252.218171308
184.852,252.382760569
184.867,252.545763828
184.882,252.707192142
184.897,252.867056947
184.912,253.025370056
184.927,253.182143608
184.942,253.337390089
184.957,253.491122231
184.972,253.643353026
184.987,253.794095737
185.002,253.943363816
185.017,254.091170904
185.032,254.237530831
185.047,254.382457548
185.062,254.52596518
185.077,254.668067916
185.092,254.808780079
185.107,254.948116078
185.122,255.086090344
185.137,255.22271741
185.152,255.3580118
185.167,255.491988111
185.182,255.624660914
185.197,255.756044784
185.212,255.88615431
185.227,256.015004036
185.242,256.142608506
185.257,256.268982173
185.272,256.394139483
185.287,256.518094834
185.302,256.640862518
185.31,256.705857924
185.317,256.762456797
185.332,256.882891837
185.347,257.002181728
185.362,257.120340474
185.377,257.237381962
185.392,257.35332002
185.407,257.468168342
185.422,257.581940533
185.437,257.694650063
185.452,257.806310328
185.467,257.916934573
185.482,258.026535935
185.497,258.135127424
185.512,258.242721952
185.527,258.349332241
185.542,258.454970951
185.557,258.55965059
185.572,258.663383516
185.587,258.766181973
185.602,258.868058063
185.617,258.969023752
185.632,259.069090884
185.647,259.168271148
185.662,259.266576111
185.677,259.364017202
185.692,259.460605701
185.707,259.556352758
185.722,259.651269396
185.737,259.745366491
185.752,259.838654786
185.767,259.931144883
185.782,260.022847261
185.797,260.113772258
185.812,260.203930062
185.827,260.293330756
185.842,260.381984281
185.857,260.469900419
185.872,260.557088875
185.887,260.643559173
185.902,260.729320733
185.917,260.814382855
185.932,260.898754688
185.947,260.982445281
185.96,261.05443296
185.962,261.06546353
185.977,261.147818231
185.992,261.22951805
186.007,261.31057153
186.022,261.390987104
186.037,261.470773073
186.052,261.549937623
186.06,261.591907421
186.067,261.628488837
186.082,261.706434676
186.097,261.78378297
186.112,261.860541475
186.127,261.936717799
186.142,262.012319464
186.157,262.087353883
186.172,262.161828335
186.187,262.235750032
186.202,262.309126061
186.217,262.381963404
186.232,262.454268954
186.247,262.526049487
186.262,262.597311707
186.277,262.66806219
186.292,262.73830742
186.307,262.808053819
186.322,262.877307676
186.337,262.946075214
186.352,263.014362544
186.367,263.082175706
186.382,263.149520625
186.397,263.216403186
186.412,263.28282913
186.427,263.348804158
186.442,263.414333858
186.457,263.479423762
186.472,263.544079293
186.487,263.608305809
186.502,263.67210859
186.517,263.735492839
186.532,263.798463666
186.547,263.861026129
186.562,263.923185184
186.577,263.984945749
186.592,264.046312633
186.607,264.107290597
186.622,264.167884311
186.637,264.22809841
186.652,264.287937419
186.667,264.347405831
186.682,264.406508055
186.697,264.465248425
186.71,264.515867371
186.712,264.523631235
186.727,264.5816607
186.742,264.63934098
186.757,264.696676153
186.772,264.753670271
186.787,264.810327297
186.802,264.866651139
186.817,264.922645665
186.832,264.978314674
186.847,265.033661905
186.862,265.088691052
186.877,265.143405736
186.892,265.197809543
186.907,265.251905999
186.922,265.305698576
186.937,265.359190691
186.952,265.412385733
186.967,265.465287009
186.982,265.51789779
186.997,265.570221312
187.012,265.62226074
187.027,265.674019214
187.042,265.725499807
187.057,265.776705566
187.072,265.827639474
187.087,265.878304495
187.102,265.928703518
187.117,265.97883942
187.132,266.028715013
187.147,266.078333072
187.162,266.127696339
187.177,266.176807522
187.192,266.225669265
187.207,266.274284198
187.222,266.322654892
187.237,266.370783888
187.252,266.418673706
187.267,266.466326804
187.282,266.513745616
187.297,266.560932533
187.312,266.607889936
187.327,266.654620131
187.342,266.701125428
187.357,266.747408078
187.372,266.793470299
187.387,266.839314311
187.402,266.884942256
187.417,266.930356273
187.432,266.975558471
187.447,267.020550902
187.46,267.059376246
187.462,267.06533561
187.477,267.109914615
187.492,267.1542899
187.507,267.198463401
187.522,267.242437046
187.537,267.286212754
187.552,267.329792371
187.567,267.373177744
187.582,267.416370706
187.597,267.459373026
187.612,267.502186464
187.627,267.544812797
187.642,267.587253693
187.657,267.629510871
187.672,267.671585991
187.687,267.713480692
187.702,267.755196595
187.717,267.796735286
187.732,267.838098356
187.747,267.879287355
187.762,267.920303797
187.777,267.961149195
187.792,268.001825035
187.807,268.042332794
187.822,268.082673897
187.837,268.122849784
187.852,268.16286186
187.867,268.202711509
187.882,268.242400085
187.897,268.281928946
187.912,268.321299426
187.927,268.360512819
187.942,268.399570425
187.957,268.438473527
187.972,268.477223357
187.987,268.515821186
188.002,268.554268212
188.017,268.592565645
188.032,268.630714695
188.047,268.668716505
188.062,268.706572238
188.077,268.74428305
188.092,268.781850067
188.107,268.819274387
188.122,268.856557105
188.137,268.893699312
188.152,268.93070207
188.167,268.967566429
188.182,269.004293434
188.197,269.040884107
188.21,269.072486527
188.212,269.077339461
188.227,269.113660494
188.242,269.149848179
188.257,269.185903495
188.272,269.221827414
188.287,269.25762086
188.302,269.293284787
188.317,269.328820104
188.332,269.364227722
188.347,269.399508548
188.362,269.434663454
188.377,269.46969334
188.392,269.504599045
188.407,269.539381434
188.422,269.574041348
188.437,269.608579624
188.452,269.642997073
188.467,269.677294507
188.482,269.711472728
188.497,269.74553254
188.512,269.779474705
188.527,269.813300005
188.542,269.847009202
188.557,269.880603048
188.572,269.914082279
188.587,269.947447632
188.602,269.980699834
188.617,270.0138396
188.632,270.046867645
188.647,270.079784657
188.66,270.108223455
188.662,270.112591332
188.677,270.14528835
188.692,270.177876381
188.707,270.210356109
188.722,270.242728178
188.737,270.274993233
