# 01004 ENAS Ny-Alesund Ii Observations at 12Z 08 Sep 2019
Frequency [GHz],TB
175.31,258.620212247
175.322,258.646174451
175.337,258.678466764
175.352,258.710579506
175.367,258.742511255
175.382,258.774260608
175.397,258.805826133
175.412,258.837206423
175.427,258.86840005
175.442,258.899405601
175.457,258.930221626
175.472,258.960846732
175.487,258.991279466
175.502,259.021518411
175.517,259.05156213
175.532,259.081409196
175.547,259.111058164
175.562,259.14050761
175.577,259.169756097
175.592,259.198802183
175.607,259.227644445
175.622,259.256281423
175.637,259.284711696
175.652,259.312933822
175.667,259.340946358
175.682,259.368747869
175.697,259.396336916
175.712,259.423712058
175.727,259.450871858
175.742,259.477814873
175.757,259.504539674
175.772,259.531044808
175.787,259.557328857
175.802,259.583390378
175.817,259.60922793
175.832,259.634840078
175.847,259.660225407
175.862,259.685382474
175.877,259.710309848
175.892,259.73500611
175.907,259.759469822
175.922,259.783699568
175.937,259.807693932
175.952,259.831451482
175.967,259.854970807
175.982,259.878250495
175.997,259.90128914
176.012,259.924085307
176.027,259.946637626
176.042,259.968944671
176.057,259.991005052
176.072,260.012817372
176.087,260.034380233
176.102,260.055692266
176.117,260.07675206
176.132,260.097558252
176.147,260.118109471
176.162,260.13840433
176.177,260.158441474
176.192,260.178219543
176.207,260.197737175
176.222,260.216993023
176.237,260.235985741
176.252,260.25471399
176.267,260.273176435
176.282,260.291371745
176.297,260.3092986
176.31,260.324617041
176.312,260.326955679
176.327,260.344341692
176.342,260.361455316
176.357,260.378295255
176.372,260.39486023
176.387,260.41114896
176.402,260.427160165
176.417,260.442892581
176.432,260.45834495
176.447,260.473516022
176.46,260.486435782
176.462,260.488404558
176.477,260.50300931
176.492,260.517329073
176.507,260.531362611
176.522,260.545108725
176.537,260.558566213
176.552,260.571733895
176.567,260.584610585
176.582,260.597195117
176.597,260.609486327
176.612,260.621483066
176.627,260.633184201
176.642,260.644588584
176.657,260.655695119
176.672,260.666502696
176.687,260.677010204
176.702,260.687216577
176.717,260.697120725
176.732,260.706721601
176.747,260.71601815
176.762,260.725009344
176.777,260.733694143
176.792,260.742071547
176.807,260.750140551
176.822,260.757900173
176.837,260.765349436
176.852,260.772487387
176.867,260.779313067
176.882,260.785825564
176.897,260.792023944
176.912,260.79790731
176.927,260.803474774
176.942,260.808725451
176.957,260.813658487
176.972,260.818273043
176.987,260.822568285
177.002,260.826543395
177.017,260.830197574
177.032,260.833530048
177.047,260.836540039
177.062,260.839226801
177.077,260.841589599
177.092,260.843627718
177.107,260.845340446
177.122,260.846727106
177.137,260.847787024
177.152,260.848519566
177.167,260.848924082
177.182,260.848999962
177.197,260.848746606
177.21,260.848260267
177.212,260.848163433
177.227,260.847249891
177.242,260.846005425
177.257,260.84442952
177.272,260.842521658
177.287,260.84028136
177.302,260.837708158
177.31,260.836199499
177.317,260.834801595
177.332,260.831561233
177.347,260.827986681
177.362,260.824077531
177.377,260.819833415
177.392,260.815253978
177.407,260.810338897
177.422,260.805087842
177.437,260.799500532
177.452,260.793576695
177.467,260.787316064
177.482,260.780718421
177.497,260.773783554
177.512,260.766511264
177.527,260.758901381
177.542,260.750953765
177.557,260.742668276
177.572,260.734044811
177.587,260.725083286
177.602,260.715783641
177.617,260.706145811
177.632,260.69616979
177.647,260.685855572
177.66,260.676643033
177.662,260.675203169
177.677,260.664212633
177.692,260.652884022
177.707,260.641217417
177.722,260.629212927
177.737,260.616870681
177.752,260.604190815
177.767,260.591173522
177.782,260.577818967
177.797,260.564127374
177.812,260.550098985
177.827,260.535734042
177.842,260.521032827
177.857,260.505995645
177.872,260.490622809
177.887,260.474914657
177.902,260.458871569
177.917,260.442493912
177.932,260.425782099
177.947,260.408736561
177.96,260.393694147
177.962,260.391357728
177.977,260.373646081
177.992,260.355602118
178.007,260.337226341
178.022,260.318519265
178.037,260.29948146
178.052,260.280113508
178.067,260.260415966
178.082,260.240389477
178.097,260.220034665
178.112,260.19935218
178.127,260.178342692
178.142,260.157006895
178.157,260.135345499
178.172,260.113359227
178.187,260.091048842
178.202,260.0684151
178.217,260.045458799
178.232,260.022180733
178.247,259.998581722
178.262,259.974662613
178.277,259.950424254
178.292,259.925867542
178.307,259.900993351
178.322,259.875802598
178.337,259.850296206
178.352,259.824475115
178.367,259.798340294
178.382,259.771892704
178.397,259.745133337
178.41,259.721690476
178.412,259.718063204
178.427,259.690683317
178.442,259.662994723
178.457,259.634998454
178.472,259.606695575
178.487,259.578087169
178.502,259.549174309
178.517,259.519958113
178.532,259.490439691
178.547,259.460620157
178.562,259.430500652
178.577,259.400082329
178.592,259.369366338
178.607,259.338353857
178.622,259.307046061
178.637,259.275444137
178.652,259.243549286
178.667,259.211362702
178.682,259.178885606
178.697,259.146119233
178.712,259.113064787
178.727,259.079723522
178.742,259.046096681
178.757,259.012185503
178.772,258.977991246
178.787,258.943515161
178.802,258.908758526
178.817,258.873722593
178.832,258.838408641
178.847,258.802817943
178.862,258.766951768
178.877,258.730811405
178.892,258.694398123
178.907,258.657713212
178.922,258.620757952
178.937,258.583533614
178.952,258.546041479
178.967,258.508282836
178.982,258.470258949
178.997,258.431971108
179.012,258.393420587
179.027,258.354608637
179.042,258.315536541
179.057,258.276205545
179.072,258.236616924
179.087,258.196771914
179.102,258.156671766
179.117,258.116317721
179.132,258.075711011
179.147,258.034852852
179.16,257.999240003
179.162,257.993744468
179.177,257.952387067
179.192,257.910781852
179.207,257.868930001
179.222,257.826832703
179.237,257.784491119
179.252,257.741906414
179.267,257.699079734
179.282,257.656012206
179.297,257.612704959
179.312,257.569159085
179.327,257.525375702
179.342,257.481355879
179.357,257.437100665
179.372,257.392611139
179.387,257.347888315
179.402,257.30293322
179.417,257.257746858
179.432,257.212330206
179.447,257.16668423
179.462,257.120809884
179.477,257.074708102
179.492,257.028379787
179.507,256.981825841
179.522,256.935047128
179.537,256.888044506
179.552,256.840818802
179.567,256.793370828
179.582,256.74570138
179.597,256.697811216
179.612,256.649701087
179.627,256.601371712
179.642,256.552823791
179.657,256.504058005
179.672,256.455075002
179.687,256.405875413
179.702,256.356459833
179.717,256.30682886
179.732,256.256983037
179.747,256.206922883
179.762,256.156648919
179.777,256.106161614
179.792,256.055461427
179.807,256.004548769
179.822,255.953424053
179.837,255.90208763
179.852,255.85053987
179.867,255.798781068
179.882,255.746811521
179.897,255.69463149
179.91,255.649238723
179.912,255.642241207
179.927,255.58964087
179.942,255.536830668
179.957,255.483810731
179.972,255.430581189
179.987,255.377142128
180.002,255.323493606
180.017,255.26963566
180.032,255.215568276
180.047,255.161291443
180.062,255.106805089
180.077,255.052109132
180.092,254.997203461
180.107,254.94208791
180.122,254.886762316
180.137,254.831226477
180.152,254.775480134
180.167,254.719523036
180.182,254.663354878
180.197,254.606975331
180.212,254.550384046
180.227,254.493580616
180.242,254.436564643
180.257,254.379335672
180.272,254.321893211
180.287,254.264236765
180.302,254.206365793
180.317,254.148279724
180.332,254.089977963
180.347,254.031459875
180.362,253.972724812
180.377,253.913772083
180.392,253.854600965
180.407,253.795210718
180.422,253.73560058
180.437,253.675769726
180.452,253.615717336
180.467,253.55544255
180.482,253.494944473
180.497,253.434222202
180.512,253.37327478
180.527,253.312101241
180.542,253.250700589
180.557,253.189071792
180.56,253.176718569
180.572,253.127213813
180.587,253.065125553
180.602,253.002805923
180.617,252.940253793
180.632,252.877467995
180.647,252.814447382
180.66,252.759638613
180.662,252.751190707
180.677,252.687696773
180.692,252.623964332
180.707,252.559992102
180.722,252.495778774
180.737,252.431323066
180.752,252.366623608
180.767,252.301679065
180.782,252.236488042
180.797,252.17104916
180.812,252.105360989
180.827,252.039422102
180.842,251.97323105
180.857,251.906786374
180.872,251.840086581
180.887,251.773130182
180.902,251.705915678
180.917,251.638441533
180.932,251.570706216
180.947,251.502708197
180.962,251.434445922
180.977,251.365917833
180.992,251.297122349
181.007,251.228057917
181.022,251.158722964
181.037,251.089115893
181.052,251.019235138
181.067,250.949079119
181.082,250.878646265
181.097,250.80793499
181.112,250.736943727
181.127,250.665670937
181.142,250.59411504
181.157,250.522274505
181.172,250.45014781
181.187,250.377733437
181.202,250.305029883
181.217,250.232035683
181.232,250.158749382
181.247,250.085169545
181.262,250.011294767
181.277,249.937123682
181.292,249.862654944
181.307,249.787887254
181.31,249.772897729
181.322,249.712819337
181.337,249.637449974
181.352,249.561777985
181.367,249.485802239
181.382,249.409521648
181.397,249.332935204
181.412,249.256041935
181.427,249.178840935
181.442,249.101331375
181.457,249.023512499
181.472,248.945383607
181.487,248.866944116
181.502,248.788193495
181.517,248.709131319
181.532,248.62975725
181.547,248.550071065
181.562,248.470072637
181.577,248.389761962
181.592,248.309139135
181.607,248.228204395
181.622,248.146958104
181.637,248.065400766
181.652,247.983533022
181.667,247.901355658
181.682,247.818869657
181.697,247.736076108
181.712,247.652976335
181.727,247.5695718
181.742,247.485864177
181.757,247.401855328
181.772,247.317547336
181.787,247.232942504
181.802,247.148043348
181.817,247.062852627
181.832,246.977373348
181.847,246.891608775
181.862,246.805562443
181.877,246.719238175
181.892,246.632640072
181.907,246.545772541
181.922,246.458640321
181.937,246.371248446
181.952,246.283602329
181.967,246.195707725
181.982,246.107570757
181.997,246.019197918
182.012,245.93059613
182.027,245.841772696
182.042,245.752735375
182.057,245.663492361
182.06,245.645619826
182.072,245.574052307
182.087,245.484424335
182.102,245.394618093
182.117,245.304643708
182.132,245.21451186
182.147,245.12423378
182.162,245.033821254
182.177,244.943286675
182.192,244.852643019
182.207,244.761903917
182.222,244.67108364
182.237,244.58019712
182.252,244.48926
182.267,244.398288626
182.282,244.307300066
182.297,244.216312173
182.312,244.125343561
182.327,244.034413661
182.342,243.943542706
182.357,243.85275181
182.372,243.762062925
182.387,243.671498939
182.402,243.581083612
182.417,243.49084169
182.432,243.400798842
182.447,243.310981762
182.462,243.221418106
182.477,243.132136591
182.492,243.043166984
182.507,242.954540092
182.522,242.866287851
182.537,242.778443264
182.552,242.691040483
182.567,242.604114776
182.582,242.517702575
182.597,242.43184146
182.612,242.346570198
182.627,242.261928718
182.642,242.17795813
182.657,242.094700736
182.672,242.0122
182.687,241.930500588
182.702,241.849648294
182.717,241.769690089
182.732,241.690674063
182.747,241.612649414
182.762,241.535666429
182.777,241.459776432
182.792,241.385031739
182.807,241.311485632
182.822,241.239192298
182.837,241.168206753
182.852,241.098584774
182.867,241.030382842
182.882,240.96365803
182.897,240.898467926
182.912,240.834870491
182.927,240.772924001
182.942,240.712686874
182.957,240.654217558
182.972,240.597574379
182.987,240.542815389
183.002,240.489998199
183.017,240.439179798
183.032,240.390416397
183.047,240.343763223
183.062,240.299274298
183.077,240.257002288
183.092,240.216998238
183.107,240.179311413
183.122,240.143989029
183.137,240.111076082
183.152,240.080615123
183.167,240.052646041
183.182,240.027205878
183.197,240.004328586
183.212,239.984044936
183.227,239.966382253
183.242,239.951364305
183.257,239.93901117
183.367,239.930793278
183.382,239.94089963
183.397,239.953666865
183.412,239.969074112
183.427,239.987096867
183.442,240.007707054
183.457,240.030873267
183.472,240.056560892
183.487,240.084732315
183.502,240.115347103
183.517,240.148362236
183.532,240.18373227
183.547,240.221409597
183.562,240.261344642
183.577,240.303486068
183.592,240.347780992
183.607,240.394175203
183.622,240.442613346
183.637,240.493039137
183.652,240.545395542
183.667,240.599624952
183.682,240.655669338
183.697,240.713470476
183.712,240.772970025
183.727,240.83410971
183.742,240.89683143
183.757,240.961077428
183.772,241.026790334
183.787,241.093913321
183.802,241.162390189
183.817,241.232165427
183.832,241.303184321
183.847,241.37539301
183.862,241.448738522
183.877,241.523168859
183.892,241.598633046
183.907,241.675081149
183.922,241.752464297
183.937,241.83073477
183.952,241.909845927
183.967,241.989752315
183.982,242.070409646
183.997,242.151774771
184.012,242.233805744
184.027,242.316461795
184.042,242.399703298
184.057,242.483491851
184.072,242.567790154
184.087,242.652562117
184.102,242.737772747
184.117,242.823388204
184.132,242.909375745
184.147,242.995703752
184.162,243.082341645
184.177,243.169259918
184.192,243.256430126
184.207,243.343824822
184.222,243.43141755
184.237,243.519182843
184.252,243.607096177
184.267,243.69513397
184.282,243.783273531
184.297,243.871493076
184.312,243.959771665
184.327,244.048089197
184.342,244.136426398
184.357,244.224764768
184.372,244.313086598
184.387,244.401374923
184.402,244.489613499
184.417,244.577786781
184.432,244.665879916
184.447,244.7538787
184.462,244.84176959
184.477,244.929539649
184.492,245.017176544
184.507,245.104668515
184.522,245.192004369
184.537,245.279173475
184.552,245.366165685
184.56,245.412485855
184.567,245.452971385
184.582,245.539581459
184.597,245.625987224
184.612,245.712180505
184.627,245.798153517
184.642,245.88389893
184.657,245.969409807
184.672,246.054679602
184.687,246.139702167
184.702,246.224471693
184.717,246.308982741
184.732,246.3932302
184.747,246.477209293
184.762,246.560915541
184.777,246.644344777
184.792,246.727493119
184.807,246.810356953
184.822,246.892932958
184.837,246.975218036
184.852,247.057209351
184.867,247.138904303
184.882,247.22030051
184.897,247.30139581
184.912,247.382188252
184.927,247.462676074
184.942,247.542857708
184.957,247.62273178
184.972,247.702297057
184.987,247.781552511
185.002,247.860497251
185.017,247.939130541
185.032,248.01745178
185.047,248.095460527
185.062,248.173156452
185.077,248.25053935
185.092,248.327609162
185.107,248.404365908
185.122,248.480809735
185.137,248.5569409
185.152,248.632759731
185.167,248.70826667
185.182,248.783462243
185.197,248.858347045
185.212,248.932921768
185.227,249.007187164
185.242,249.081144068
185.257,249.154793366
185.272,249.228136014
185.287,249.301173031
185.302,249.373905482
185.31,249.41257197
185.317,249.446334488
185.332,249.518461203
185.347,249.590286865
185.362,249.6618127
185.377,249.733040024
185.392,249.80397015
185.407,249.874604437
185.422,249.944944296
185.437,250.014991126
185.452,250.084746384
185.467,250.154211534
185.482,250.223388074
185.497,250.292277507
185.512,250.360881356
185.527,250.42920117
185.542,250.497238496
185.557,250.564994894
185.572,250.632471961
185.587,250.699671262
185.602,250.76659439
185.617,250.833242942
185.632,250.899618517
185.647,250.965722706
185.662,251.031557114
185.677,251.09712334
185.692,251.162422983
185.707,251.227457645
185.722,251.292228904
185.737,251.356738352
185.752,251.420987569
185.767,251.484978122
185.782,251.548711588
185.797,251.612189503
185.812,251.675413436
185.827,251.738384903
185.842,251.801105439
185.857,251.863576551
185.872,251.925799742
185.887,251.987776493
185.902,252.049508281
185.917,252.110996561
185.932,252.172242784
185.947,252.233248359
185.96,252.285926301
185.962,252.294014716
185.977,252.354543227
185.992,252.414835294
186.007,252.474892265
186.022,252.534715483
186.037,252.594306271
186.052,252.653665931
186.06,252.685230358
186.067,252.712795758
186.082,252.771697012
186.097,252.830370941
186.112,252.888818779
186.127,252.947041725
186.142,253.005040972
186.157,253.062817688
186.172,253.120373022
186.187,253.17770809
186.202,253.234823998
186.217,253.291721833
186.232,253.348402665
186.247,253.404867512
186.262,253.461117412
186.277,253.517153349
186.292,253.572976303
186.307,253.628587234
186.322,253.683987061
186.337,253.739176704
186.352,253.79415703
186.367,253.848928925
186.382,253.903493216
186.397,253.957850724
186.412,254.012002252
186.427,254.06594858
186.442,254.119690444
186.457,254.173228583
186.472,254.226563693
186.487,254.279696487
186.502,254.332627606
186.517,254.385357691
186.532,254.437887367
186.547,254.490217215
186.562,254.54234783
186.577,254.594279758
186.592,254.646013518
186.607,254.697549627
186.622,254.748888577
186.637,254.800030807
186.652,254.850976789
186.667,254.901726928
186.682,254.952281621
186.697,255.002641253
186.71,255.046128753
186.712,255.052806176
186.727,255.102776728
186.742,255.152553218
186.757,255.20213595
186.772,255.251525184
186.787,255.300721185
186.802,255.349724171
186.817,255.398534361
186.832,255.447151947
186.847,255.495577091
186.862,255.54380995
186.877,255.591850648
186.892,255.639699312
186.907,255.687356026
186.922,255.734820865
186.937,255.782093877
186.952,255.829175113
186.967,255.876064564
186.982,255.922762251
186.997,255.969268148
187.012,256.015582217
187.027,256.061704406
187.042,256.107634644
187.057,256.153372832
187.072,256.198918875
187.087,256.244272645
187.102,256.289434
187.117,256.33440279
187.132,256.379178837
187.147,256.423761959
187.162,256.468151953
187.177,256.512348591
187.192,256.556351646
187.207,256.600160876
187.222,256.643776006
187.237,256.687196781
187.252,256.730422888
187.267,256.77345404
187.282,256.816289909
187.297,256.85893016
187.312,256.901374468
187.327,256.943622466
187.342,256.98567379
187.357,257.02752806
187.372,257.069184889
187.387,257.110643866
187.402,257.151904595
187.417,257.192966645
187.432,257.233829573
187.447,257.27449295
187.46,257.309572779
187.462,257.31495632
187.477,257.355219212
187.492,257.395281171
187.507,257.435141698
187.522,257.474800319
187.537,257.514256536
187.552,257.553509839
187.567,257.592559729
187.582,257.631405674
187.597,257.670047158
187.612,257.708483645
187.627,257.746714602
187.642,257.784739485
187.657,257.822557743
187.672,257.860168823
187.687,257.897572172
187.702,257.934767216
187.717,257.971753399
187.732,258.008530143
187.747,258.045096889
187.762,258.081453034
187.777,258.117598018
187.792,258.153531255
187.807,258.189252157
187.822,258.224760135
187.837,258.260054607
187.852,258.295134985
187.867,258.330000662
187.882,258.364651063
187.897,258.3990856
187.912,258.433303668
187.927,258.467304683
187.942,258.501088052
187.957,258.534653187
187.972,258.567999506
187.987,258.601126409
188.002,258.634033327
188.017,258.666719662
188.032,258.699184835
188.047,258.731428284
188.062,258.763449415
188.077,258.795247664
188.092,258.826822459
188.107,258.858173247
188.122,258.88929945
188.137,258.920200523
188.152,258.950875905
188.167,258.981325064
188.182,259.011547443
188.197,259.041542505
188.21,259.067353956
188.212,259.071309731
188.227,259.100848588
188.242,259.130158557
188.257,259.159239124
188.272,259.188089778
188.287,259.216710024
188.302,259.245099374
188.317,259.273257331
188.332,259.301183416
188.347,259.328877162
188.362,259.356338109
188.377,259.383565794
188.392,259.410559773
188.407,259.437319604
188.422,259.463844857
188.437,259.490135111
188.452,259.516189953
188.467,259.542008971
188.482,259.567591782
188.497,259.592937991
188.512,259.618047227
188.527,259.642919124
188.542,259.667553322
188.557,259.691949468
188.572,259.71610723
188.587,259.740026285
188.602,259.763706317
188.617,259.787147011
188.632,259.810348079
188.647,259.833309238
188.66,259.85301464
188.662,259.856030209
188.677,259.87851074
188.692,259.90075056
188.707,259.922749439
188.722,259.944507153
188.737,259.966023475
