# 48698 WSSS Singapore Observations at 12Z 01 May 2019
Frequency [GHz],TB
175.31,276.452256034
175.322,276.428239406
175.337,276.398152225
175.352,276.367991116
175.367,276.337755909
175.382,276.307446437
175.397,276.277062536
175.412,276.246604034
175.427,276.216070767
175.442,276.185462565
175.457,276.154779262
175.472,276.12402069
175.487,276.093186684
175.502,276.062277071
175.517,276.031291688
175.532,276.000230367
175.547,275.969092938
175.562,275.937879237
175.577,275.906589096
175.592,275.875222345
175.607,275.843778819
175.622,275.812258351
175.637,275.780660775
175.652,275.748985922
175.667,275.717233626
175.682,275.685403723
175.697,275.653496042
175.712,275.621510422
175.727,275.589446691
175.742,275.557304688
175.757,275.525084246
175.772,275.4927852
175.787,275.460407383
175.802,275.427950633
175.817,275.395414784
175.832,275.362799669
175.847,275.33010513
175.862,275.297330998
175.877,275.264477112
175.892,275.231543308
175.907,275.198529423
175.922,275.165435297
175.937,275.132260765
175.952,275.099005667
175.967,275.065669842
175.982,275.032253129
175.997,274.998755368
176.012,274.965176399
176.027,274.931516063
176.042,274.897774201
176.057,274.863950655
176.072,274.830045269
176.087,274.796057881
176.102,274.761988339
176.117,274.727836485
176.132,274.693602165
176.147,274.659285224
176.162,274.624885507
176.177,274.590402861
176.192,274.555837134
176.207,274.521188173
176.222,274.486455827
176.237,274.451639947
176.252,274.416740381
176.267,274.381756981
176.282,274.3466896
176.297,274.311538089
176.31,274.281005283
176.312,274.276302303
176.327,274.240982095
176.342,274.205577322
176.357,274.17008784
176.372,274.134513505
176.387,274.098854176
176.402,274.063109713
176.417,274.027279973
176.432,273.991364824
176.447,273.95536412
176.46,273.924094206
176.462,273.91927773
176.477,273.883105518
176.492,273.846847347
176.507,273.810503086
176.522,273.774072602
176.537,273.737555764
176.552,273.700952443
176.567,273.664262512
176.582,273.627485843
176.597,273.590622308
176.612,273.553671787
176.627,273.516634154
176.642,273.479509287
176.657,273.442297065
176.672,273.404997374
176.687,273.367610092
176.702,273.330135106
176.717,273.292572299
176.732,273.254921562
176.747,273.217182782
176.762,273.179355846
176.777,273.141440651
176.792,273.103437089
176.807,273.065345056
176.822,273.027164447
176.837,272.988895165
176.852,272.950537106
176.867,272.912090175
176.882,272.873554279
176.897,272.83492932
176.912,272.796215207
176.927,272.757411851
176.942,272.718519163
176.957,272.679537059
176.972,272.640465454
176.987,272.601304265
177.002,272.562053414
177.017,272.522712822
177.032,272.483282415
177.047,272.443762116
177.062,272.404151857
177.077,272.36445157
177.092,272.324661188
177.107,272.284780644
177.122,272.244809877
177.137,272.204748828
177.152,272.16459744
177.167,272.124355659
177.182,272.084023432
177.197,272.043600707
177.21,272.008494439
177.212,272.003087438
177.227,271.96248358
177.242,271.921789094
177.257,271.881003936
177.272,271.840128073
177.287,271.799161468
177.302,271.758104091
177.31,271.736169698
177.317,271.716955912
177.332,271.675716907
177.347,271.634387051
177.362,271.592966325
177.377,271.551454711
177.392,271.509852196
177.407,271.468158765
177.422,271.426374412
177.437,271.384499133
177.452,271.342532922
177.467,271.300475782
177.482,271.258327717
177.497,271.21608873
177.512,271.173758837
177.527,271.131338045
177.542,271.088826375
177.557,271.046223845
177.572,271.003530476
177.587,270.960746297
177.602,270.917871338
177.617,270.874905629
177.632,270.831849208
177.647,270.788702114
177.66,270.751234656
177.662,270.745464391
177.677,270.702136085
177.692,270.658717247
177.707,270.61520793
177.722,270.57160819
177.737,270.52791809
177.752,270.484137693
177.767,270.440267067
177.782,270.396306285
177.797,270.352255419
177.812,270.308114552
177.827,270.263883763
177.842,270.219563141
177.857,270.175152774
177.872,270.130652757
177.887,270.086063187
177.902,270.041384166
177.917,269.996615799
177.932,269.951758196
177.947,269.906811468
177.96,269.867785634
177.962,269.861775732
177.977,269.816651108
177.992,269.771437721
178.007,269.7261357
178.022,269.680745176
178.037,269.635266284
178.052,269.589699167
178.067,269.544043966
178.082,269.498300831
178.097,269.452469909
178.112,269.406551359
178.127,269.360545339
178.142,269.314452012
178.157,269.268271545
178.172,269.222004109
178.187,269.175649878
178.202,269.129209033
178.217,269.082681752
178.232,269.036068224
178.247,268.989368638
178.262,268.942583186
178.277,268.895712069
178.292,268.848755483
178.307,268.801713638
178.322,268.754586738
178.337,268.707374998
178.352,268.660078632
178.367,268.612697861
178.382,268.565232903
178.397,268.517683989
178.41,268.476407194
178.412,268.470051346
178.427,268.422335207
178.442,268.374535811
178.457,268.326653393
178.472,268.278688198
178.487,268.230640471
178.502,268.182510463
178.517,268.134298424
178.532,268.086004607
178.547,268.037629275
178.562,267.989172684
178.577,267.9406351
178.592,267.892016789
178.607,267.843318017
178.622,267.794539055
178.637,267.745680179
178.652,267.696741662
178.667,267.647723783
178.682,267.598626821
178.697,267.549451057
178.712,267.500196776
178.727,267.450864263
178.742,267.401453803
178.757,267.351965686
178.772,267.3024002
178.787,267.252757636
178.802,267.203038287
178.817,267.153242441
178.832,267.103370395
178.847,267.053422442
178.862,267.003398878
178.877,266.953299991
178.892,266.90312608
178.907,266.852877437
178.922,266.802554356
178.937,266.752157131
178.952,266.701686051
178.967,266.65114141
178.982,266.600523499
178.997,266.549832602
179.012,266.499069011
179.027,266.448233007
179.042,266.397324874
179.057,266.346344892
179.072,266.295293342
179.087,266.244170491
179.102,266.192976618
179.117,266.14171199
179.132,266.090376866
179.147,266.038971512
179.16,265.994363591
179.162,265.987496181
179.177,265.935951124
179.192,265.884336588
179.207,265.832652813
179.222,265.780900035
179.237,265.729078482
179.252,265.677188377
179.267,265.625229936
179.282,265.573203367
179.297,265.521108872
179.312,265.468946644
179.327,265.416716868
179.342,265.36441972
179.357,265.312055368
179.372,265.25962397
179.387,265.207125671
179.402,265.154560611
179.417,265.101928917
179.432,265.049230699
179.447,264.996466065
179.462,264.943635104
179.477,264.890737895
179.492,264.837774502
179.507,264.784744976
179.522,264.731649353
179.537,264.678487655
179.552,264.625259887
179.567,264.571966041
179.582,264.51860609
179.597,264.46517999
179.612,264.41168768
179.627,264.358129079
179.642,264.30450409
179.657,264.250812596
179.672,264.197054455
179.687,264.14322951
179.702,264.089337581
179.717,264.035378464
179.732,263.981351934
179.747,263.92725774
179.762,263.873095611
179.777,263.818865249
179.792,263.764566329
179.807,263.7101985
179.822,263.655761387
179.837,263.601254581
179.852,263.546677654
179.867,263.492030139
179.882,263.437311545
179.897,263.382521347
179.91,263.33497816
179.912,263.327658989
179.927,263.272723885
179.942,263.217715412
179.957,263.162632915
179.972,263.107475704
179.987,263.052243053
180.002,262.996934199
180.017,262.941548344
180.032,262.886084647
180.047,262.830542231
180.062,262.77492018
180.077,262.719217536
180.092,262.663433296
180.107,262.60756642
180.122,262.551615822
180.137,262.495580367
180.152,262.439458885
180.167,262.383250147
180.182,262.326952888
180.197,262.27056579
180.212,262.214087485
180.227,262.157516555
180.242,262.100851534
180.257,262.044090904
180.272,261.987233092
180.287,261.930276473
180.302,261.873219363
180.317,261.816060032
180.332,261.758796682
180.347,261.701427469
180.362,261.643950482
180.377,261.586363754
180.392,261.52866526
180.407,261.470852912
180.422,261.412924558
180.437,261.354877987
180.452,261.296710923
180.467,261.238421023
180.482,261.180005883
180.497,261.121463028
180.512,261.062789921
180.527,261.003983951
180.542,260.945042446
180.557,260.885962653
180.56,260.874129855
180.572,260.826741761
180.587,260.767376878
180.602,260.707865045
180.617,260.64820323
180.632,260.588388324
180.647,260.528417147
180.66,260.476313205
180.662,260.468286442
180.677,260.407992878
180.692,260.347533044
180.707,260.286903457
180.722,260.226100554
180.737,260.165120689
180.752,260.103960145
180.767,260.042615118
180.782,259.981081729
180.797,259.919356016
180.812,259.857433934
180.827,259.795311364
180.842,259.732984091
180.857,259.670447831
180.872,259.607698209
180.887,259.54473077
180.902,259.481540971
180.917,259.418124192
180.932,259.35447572
180.947,259.290590764
180.962,259.226464444
180.977,259.162091797
180.992,259.09746777
181.007,259.032587233
181.022,258.967444961
181.037,258.90203565
181.052,258.836353904
181.067,258.770394245
181.082,258.70415111
181.097,258.637618845
181.112,258.570791716
181.127,258.503663895
181.142,258.436229477
181.157,258.368482464
181.172,258.300416776
181.187,258.232026248
181.202,258.163304628
181.217,258.094245576
181.232,258.024842672
181.247,257.955089409
181.262,257.884979196
181.277,257.814505358
181.292,257.743661133
181.307,257.672439681
181.31,257.658149514
181.322,257.600834073
181.337,257.528837302
181.352,257.456442274
181.367,257.383641817
181.382,257.310428672
181.397,257.236795502
181.412,257.16273489
181.427,257.088239334
181.442,257.013301256
181.457,256.937912995
181.472,256.86206681
181.487,256.785754883
181.502,256.708969317
181.517,256.631702133
181.532,256.553945279
181.547,256.47569062
181.562,256.396929948
181.577,256.317654974
181.592,256.237857335
181.607,256.157528588
181.622,256.076660219
181.637,255.995243633
181.652,255.913270162
181.667,255.830731062
181.682,255.747617512
181.697,255.66392062
181.712,255.579631414
181.727,255.494740853
181.742,255.40923982
181.757,255.32311912
181.772,255.236369489
181.787,255.148981591
181.802,255.060946012
181.817,254.97225327
181.832,254.882893809
181.847,254.792858
181.862,254.702136148
181.877,254.610718482
181.892,254.518595166
181.907,254.425756295
181.922,254.332191895
181.937,254.237891929
181.952,254.142846296
181.967,254.047044831
181.982,253.950477309
181.997,253.853133451
182.012,253.755002921
182.027,253.65607533
182.042,253.556340247
182.057,253.455787193
182.06,253.435577502
182.072,253.354405656
182.087,253.252185088
182.102,253.149114917
182.117,253.045184553
182.132,252.940383397
182.147,252.834700845
182.162,252.728126305
182.177,252.62064921
182.192,252.512259023
182.207,252.402945252
182.222,252.292697478
182.237,252.181505362
182.252,252.069358664
182.267,251.956247272
182.282,251.842161222
182.297,251.727090722
182.312,251.611026192
182.327,251.493958279
182.342,251.37587791
182.357,251.256776318
182.372,251.136645089
182.387,251.015476211
182.402,250.89326211
182.417,250.769995724
182.432,250.645670542
182.447,250.520280679
182.462,250.393820941
182.477,250.26628689
182.492,250.13767493
182.507,250.007982389
182.522,249.877207596
182.537,249.745349984
182.552,249.612410183
182.567,249.478390118
182.582,249.343293116
182.597,249.207124012
182.612,249.069889257
182.627,248.93159703
182.642,248.792257336
182.657,248.651882118
182.672,248.510485341
182.687,248.368083086
182.702,248.224693596
182.717,248.080337336
182.732,247.935036983
182.747,247.7888174
182.762,247.641705543
182.777,247.493730284
182.792,247.34492217
182.807,247.195313027
182.822,247.044935436
182.837,246.893822007
182.852,246.742004407
182.867,246.589512079
182.882,246.436370563
182.897,246.282599313
182.912,246.128208875
182.927,245.973197239
182.942,245.817545135
182.957,245.661209945
182.972,245.504117854
182.987,245.346153628
183.002,245.187147315
183.017,245.026856798
183.032,244.864944785
183.047,244.700948196
183.062,244.534237129
183.077,244.363959258
183.092,244.188963772
183.107,244.007696098
183.122,243.818050582
183.137,243.617162044
183.152,243.401107969
183.167,243.164480368
183.182,242.899770526
183.197,242.596498473
183.212,242.240042203
183.227,241.810291127
183.242,241.280949656
183.257,240.622835862
183.367,240.788522416
183.382,241.408194465
183.397,241.906282425
183.412,242.312039972
183.427,242.650233591
183.442,242.939457453
183.457,243.193154641
183.472,243.420951908
183.487,243.629754045
183.502,243.824542898
183.517,244.00893872
183.532,244.18559039
183.547,244.356447195
183.562,244.52294948
183.577,244.686163782
183.592,244.846879665
183.607,245.005679907
183.622,245.162991935
183.637,245.319125899
183.652,245.474303138
183.667,245.628677622
183.682,245.782352247
183.697,245.93539128
183.712,246.087829916
183.727,246.23968166
183.742,246.390944031
183.757,246.541602972
183.772,246.691636295
183.787,246.841016318
183.802,246.989711918
183.817,247.137690107
183.832,247.284917236
183.847,247.431359889
183.862,247.576985573
183.877,247.721763204
183.892,247.865663456
183.907,248.008659001
183.922,248.150724647
183.937,248.291837424
183.952,248.431976611
183.967,248.571123714
183.982,248.709262423
183.997,248.846378545
184.012,248.982459915
184.027,249.117496305
184.042,249.251479317
184.057,249.384402274
184.072,249.516260117
184.087,249.647049289
184.102,249.776767637
184.117,249.905414296
184.132,250.032989602
184.147,250.159494986
184.162,250.284932882
184.177,250.40930665
184.192,250.532620484
184.207,250.654879342
184.222,250.776088866
184.237,250.896255325
184.252,251.015385544
184.267,251.133486853
184.282,251.250567026
184.297,251.366634237
184.312,251.481697016
184.327,251.595764197
184.342,251.708844893
184.357,251.82094845
184.372,251.932084417
184.387,252.042262522
184.402,252.15149264
184.417,252.25978477
184.432,252.367149012
184.447,252.473595548
184.462,252.579134624
184.477,252.683776533
184.492,252.787531603
184.507,252.890410176
184.522,252.992422604
184.537,253.093579238
184.552,253.193890415
184.56,253.247047572
184.567,253.293366448
184.582,253.392017623
184.597,253.489854195
184.612,253.58688637
184.627,253.683124314
184.642,253.778578138
184.657,253.873257902
184.672,253.967173603
184.687,254.060335181
184.702,254.15275251
184.717,254.244435398
184.732,254.335393582
184.747,254.425636736
184.762,254.515174457
184.777,254.60401627
184.792,254.69217163
184.807,254.779649917
184.822,254.866460432
184.837,254.952612406
184.852,255.038114991
184.867,255.122977265
184.882,255.207208226
184.897,255.290816801
184.912,255.373811833
184.927,255.456202095
184.942,255.537996278
184.957,255.619202999
184.972,255.699830798
184.987,255.779888132
185.002,255.859383391
185.017,255.938324877
185.032,256.016720823
185.047,256.094579381
185.062,256.171908626
185.077,256.248716554
185.092,256.325011089
185.107,256.400800071
185.122,256.476091266
185.137,256.550892364
185.152,256.625210973
185.167,256.699054627
185.182,256.772430782
185.197,256.845346812
185.212,256.917810019
185.227,256.989827621
185.242,257.061406763
185.257,257.132554509
185.272,257.203277843
185.287,257.273583675
185.302,257.343478831
185.31,257.380590662
185.317,257.412970063
185.332,257.482064042
185.347,257.550767359
185.362,257.619086528
185.377,257.68702798
185.392,257.754598075
185.407,257.821803083
185.422,257.888649202
185.437,257.955142548
185.452,258.021289158
185.467,258.087094989
185.482,258.152565919
185.497,258.217707745
185.512,258.282526187
185.527,258.347026883
185.542,258.411215394
185.557,258.475097201
185.572,258.538677702
185.587,258.601962221
185.602,258.664956001
185.617,258.727664204
185.632,258.790091917
185.647,258.852244145
185.662,258.914125816
185.677,258.97574178
185.692,259.037096812
185.707,259.098195601
185.722,259.159042767
185.737,259.219642849
185.752,259.280000311
185.767,259.340119537
185.782,259.40000484
185.797,259.459660455
185.812,259.519090539
185.827,259.578299179
185.842,259.637290383
185.857,259.696068091
185.872,259.754636162
185.887,259.812998386
185.902,259.871158483
185.917,259.929120097
185.932,259.986886802
185.947,260.0444621
185.96,260.094208519
185.962,260.101849424
185.977,260.159052139
185.992,260.216073538
186.007,260.272916846
186.022,260.329585222
186.037,260.386081755
186.052,260.442409472
186.06,260.472382916
186.067,260.498571328
186.082,260.554570218
186.097,260.610408971
186.112,260.666090351
186.127,260.721617061
186.142,260.77699174
186.157,260.832216965
186.172,260.887295255
186.187,260.942229068
186.202,260.997020799
186.217,261.051672787
186.232,261.106187317
186.247,261.160566612
186.262,261.214812839
186.277,261.268928111
186.292,261.322914488
186.307,261.376773972
186.322,261.430508515
186.337,261.484120015
186.352,261.53761032
186.367,261.590981226
186.382,261.644234481
186.397,261.69737178
186.412,261.750394774
186.427,261.803305063
186.442,261.856104205
186.457,261.908793707
186.472,261.961375031
186.487,262.013849599
186.502,262.066218788
186.517,262.118483927
186.532,262.170646312
186.547,262.222707189
186.562,262.274667768
186.577,262.326529221
186.592,262.378292677
186.607,262.42995923
186.622,262.481529934
186.637,262.533005808
186.652,262.584387836
186.667,262.635676964
186.682,262.686874107
186.697,262.737980144
186.71,262.782199003
186.712,262.788995922
186.727,262.839922253
186.742,262.890759921
186.757,262.941509679
186.772,262.992172248
186.787,263.04274832
186.802,263.093238559
186.817,263.1436436
186.832,263.19396405
186.847,263.244200491
186.862,263.294353479
186.877,263.344423542
186.892,263.394411185
186.907,263.444316887
186.922,263.494141106
186.937,263.543884274
186.952,263.593546803
186.967,263.643129084
186.982,263.692631483
186.997,263.742054345
187.012,263.791398001
187.027,263.840662756
187.042,263.8898489
187.057,263.938956702
187.072,263.987986414
187.087,264.03693827
187.102,264.085812488
187.117,264.134609269
187.132,264.183328798
187.147,264.231971245
187.162,264.280536764
187.177,264.329025496
187.192,264.377437566
187.207,264.425773086
187.222,264.474032159
187.237,264.522214868
187.252,264.570321288
187.267,264.618351481
187.282,264.666305498
187.297,264.714183381
187.312,264.761985158
187.327,264.809710845
187.342,264.857360457
187.357,264.904933988
187.372,264.95243143
187.387,264.999852766
187.402,265.047197968
187.417,265.094467001
187.432,265.141659821
187.447,265.18877638
187.46,265.229548998
187.462,265.235816618
187.477,265.282780472
187.492,265.329667872
187.507,265.37647874
187.522,265.423212994
187.537,265.469870542
187.552,265.516451294
187.567,265.562955149
187.582,265.609382002
187.597,265.655731747
187.612,265.70200427
187.627,265.748199454
187.642,265.794317177
187.657,265.840357315
187.672,265.886319742
187.687,265.932204326
187.702,265.978010932
187.717,266.023739426
187.732,266.069389662
187.747,266.114961507
187.762,266.160454814
187.777,266.205869436
187.792,266.251205226
187.807,266.296462035
187.822,266.341639713
187.837,266.386738109
187.852,266.43175707
187.867,266.476696439
187.882,266.521556066
187.897,266.566335793
187.912,266.611035464
187.927,266.655654926
187.942,266.70019402
187.957,266.744652589
187.972,266.78903048
187.987,266.833327534
188.002,266.877543596
188.017,266.92167851
188.032,266.965732122
188.047,267.009704278
188.062,267.053594823
188.077,267.097403604
188.092,267.141130472
188.107,267.184775273
188.122,267.228337857
188.137,267.271818077
188.152,267.315215785
188.167,267.358530836
188.182,267.401763084
188.197,267.444912387
188.21,267.482241245
188.212,267.487978602
188.227,267.53096159
188.242,267.573861214
188.257,267.616677337
188.272,267.659409821
188.287,267.702058538
188.302,267.744623355
188.317,267.787104143
188.332,267.829500776
188.347,267.871813128
188.362,267.914041079
188.377,267.956184506
188.392,267.998243293
188.407,268.040217322
188.422,268.082106481
188.437,268.123910657
188.452,268.165629743
188.467,268.207263631
188.482,268.248812218
188.497,268.290275399
188.512,268.331653079
188.527,268.37294516
188.542,268.414151546
188.557,268.455272147
188.572,268.496306872
188.587,268.537255638
188.602,268.578118357
188.617,268.618894949
188.632,268.659585335
188.647,268.700189438
188.66,268.735309812
188.662,268.740707187
188.677,268.781138509
188.692,268.821483335
188.707,268.8617416
188.722,268.901913243
188.737,268.941998199
