# 01004 ENAS Ny-Alesund Ii Observations at 12Z 22 Feb 2019
Frequency [GHz],TB
175.31,270.858262371
175.322,270.838094602
175.337,270.812721623
175.352,270.787167141
175.367,270.761431054
175.382,270.735513278
175.397,270.709413727
175.412,270.683132324
175.427,270.656669002
175.442,270.6300237
175.457,270.603196361
175.472,270.57618694
175.487,270.548995396
175.502,270.521621699
175.517,270.494065822
175.532,270.466327751
175.547,270.438407474
175.562,270.410304989
175.577,270.382020303
175.592,270.353553432
175.607,270.324904394
175.622,270.296073221
175.637,270.267059949
175.652,270.237864624
175.667,270.2084873
175.682,270.178928037
175.697,270.149186907
175.712,270.119263988
175.727,270.089159363
175.742,270.058873129
175.757,270.028405388
175.772,269.997756251
175.787,269.96692584
175.802,269.935914279
175.817,269.904721707
175.832,269.87334827
175.847,269.841794119
175.862,269.810059418
175.877,269.778144339
175.892,269.746049059
175.907,269.713773768
175.922,269.681318664
175.937,269.648683953
175.952,269.615869848
175.967,269.582876575
175.982,269.549704365
175.997,269.516353462
176.012,269.482824114
176.027,269.449116582
176.042,269.415231136
176.057,269.381168053
176.072,269.346927618
176.087,269.31251013
176.102,269.277915894
176.117,269.243145222
176.132,269.20819844
176.147,269.173075881
176.162,269.137777885
176.177,269.102304806
176.192,269.066657002
176.207,269.030834846
176.222,268.994838714
176.237,268.958668997
176.252,268.922326092
176.267,268.885810406
176.282,268.849122356
176.297,268.812262368
176.31,268.780178303
176.312,268.775230876
176.327,268.738028329
176.342,268.700655175
176.357,268.663111882
176.372,268.625398922
176.387,268.587516774
176.402,268.549465934
176.417,268.511246901
176.432,268.472860183
176.447,268.434306304
176.46,268.400758133
176.462,268.39558579
176.477,268.35669918
176.492,268.317647021
176.507,268.278429871
176.522,268.239048296
176.537,268.199502871
176.552,268.159794181
176.567,268.119922818
176.582,268.079889388
176.597,268.039694501
176.612,267.999338778
176.627,267.958822853
176.642,267.918147362
176.657,267.877312954
176.672,267.836320287
176.687,267.795170027
176.702,267.753862852
176.717,267.712399442
176.732,267.670780494
176.747,267.629006709
176.762,267.587078796
176.777,267.544997475
176.792,267.502763475
176.807,267.460377532
176.822,267.417840392
176.837,267.375152806
176.852,267.332315538
176.867,267.289329358
176.882,267.246195045
176.897,267.202913385
176.912,267.159485173
176.927,267.115911213
176.942,267.072192314
176.957,267.028329296
176.972,266.984322987
176.987,266.94017422
177.002,266.895883836
177.017,266.851452689
177.032,266.806881631
177.047,266.762171529
177.062,266.717323256
177.077,266.672337689
177.092,266.627215716
177.107,266.58195823
177.122,266.536566129
177.137,266.491040324
177.152,266.445381724
177.167,266.399591253
177.182,266.353669836
177.197,266.307618406
177.21,266.267602728
177.212,266.261437905
177.227,266.215129274
177.242,266.168693468
177.257,266.122131442
177.272,266.075444162
177.287,266.028632595
177.302,265.981697714
177.31,265.956615694
177.317,265.9346405
177.332,265.887461938
177.347,265.840163017
177.362,265.792744733
177.377,265.745208085
177.392,265.697554077
177.407,265.649783718
177.422,265.60189802
177.437,265.553898004
177.452,265.505784687
177.467,265.457559095
177.482,265.409222259
177.497,265.36077521
177.512,265.312218984
177.527,265.263554621
177.542,265.214783162
177.557,265.165905652
177.572,265.11692314
177.587,265.067836674
177.602,265.01864731
177.617,264.969356099
177.632,264.919964099
177.647,264.87047237
177.66,264.827499687
177.662,264.82088197
177.677,264.771193963
177.692,264.721409408
177.707,264.671529372
177.722,264.621554918
177.737,264.571487111
177.752,264.521327017
177.767,264.471075701
177.782,264.42073423
177.797,264.370303669
177.812,264.319785082
177.827,264.269179534
177.842,264.21848809
177.857,264.167711809
177.872,264.116851756
177.887,264.065908988
177.902,264.014884564
177.917,263.963779539
177.932,263.912594968
177.947,263.861331899
177.96,263.816841225
177.962,263.809991385
177.977,263.758574468
177.992,263.707082192
178.007,263.655515595
178.022,263.603875713
178.037,263.552163577
178.052,263.500380214
178.067,263.448526649
178.082,263.396603899
178.097,263.344612974
178.112,263.292554886
178.127,263.240430637
178.142,263.188241224
178.157,263.135987639
178.172,263.083670863
178.187,263.03129188
178.202,262.978851658
178.217,262.926351163
178.232,262.873791352
178.247,262.821173175
178.262,262.768497575
178.277,262.715765484
178.292,262.66297783
178.307,262.610135528
178.322,262.557239486
178.337,262.504290605
178.352,262.451289773
178.367,262.398237868
178.382,262.345135762
178.397,262.291984312
178.41,262.245880464
178.412,262.238784366
178.427,262.185536764
178.442,262.13224233
178.457,262.078901879
178.472,262.025516214
178.487,261.972086125
178.502,261.918612391
178.517,261.865095777
178.532,261.811537034
178.547,261.757936903
178.562,261.704296108
178.577,261.650615361
178.592,261.596895359
178.607,261.543136782
178.622,261.489340301
178.637,261.435506565
178.652,261.381636213
178.667,261.327729865
178.682,261.273788124
178.697,261.21981158
178.712,261.165800803
178.727,261.111756348
178.742,261.057678749
178.757,261.003568529
178.772,260.949426185
178.787,260.895252201
178.802,260.84104704
178.817,260.786811146
178.832,260.732544942
178.847,260.678248835
178.862,260.62392321
178.877,260.56956843
178.892,260.51518484
178.907,260.460772762
178.922,260.406332496
178.937,260.351864322
178.952,260.297368497
178.967,260.242845255
178.982,260.188294809
178.997,260.133717346
179.012,260.079113032
179.027,260.024482008
179.042,259.96982439
179.057,259.915140273
179.072,259.860429721
179.087,259.805692781
179.102,259.750929465
179.117,259.696139767
179.132,259.641323651
179.147,259.586481054
179.16,259.538929316
179.162,259.531611889
179.177,259.476716037
179.192,259.421793355
179.207,259.366843674
179.222,259.31186679
179.237,259.256862475
179.252,259.201830473
179.267,259.146770494
179.282,259.091682224
179.297,259.036565312
179.312,258.981419384
179.327,258.926244031
179.342,258.871038812
179.357,258.815803257
179.372,258.760536864
179.387,258.705239098
179.402,258.649909391
179.417,258.594547144
179.432,258.539151724
179.447,258.483722463
179.462,258.428258662
179.477,258.372759585
179.492,258.317224465
179.507,258.261652496
179.522,258.20604284
179.537,258.150394622
179.552,258.094706932
179.567,258.038978824
179.582,257.983209314
179.597,257.927397384
179.612,257.871541975
179.627,257.815641995
179.642,257.759696311
179.657,257.703703755
179.672,257.647663116
179.687,257.59157315
179.702,257.53543257
179.717,257.47924005
179.732,257.422994228
179.747,257.366693698
179.762,257.310337017
179.777,257.253922699
179.792,257.19744922
179.807,257.140915013
179.822,257.084318471
179.837,257.027657944
179.852,256.970931743
179.867,256.914138135
179.882,256.857275346
179.897,256.800341556
179.91,256.750940071
179.912,256.743334907
179.927,256.686253496
179.942,256.629095377
179.957,256.57185856
179.972,256.514541012
179.987,256.457140656
180.002,256.39965537
180.017,256.34208299
180.032,256.284421305
180.047,256.226668062
180.062,256.16882096
180.077,256.110877655
180.092,256.052835759
180.107,255.994692835
180.122,255.936446404
180.137,255.87809394
180.152,255.819632869
180.167,255.761060575
180.182,255.702374395
180.197,255.643571616
180.212,255.584649485
180.227,255.525605196
180.242,255.466435902
180.257,255.407138706
180.272,255.347710666
180.287,255.288148792
180.302,255.228450048
180.317,255.168611351
180.332,255.108629572
180.347,255.048501534
180.362,254.988224011
180.377,254.927793736
180.392,254.867207388
180.407,254.806461603
180.422,254.745552971
180.437,254.684478032
180.452,254.623233281
180.467,254.561815165
180.482,254.500220086
180.497,254.438444397
180.512,254.376484407
180.527,254.314336377
180.542,254.25199652
180.557,254.189461006
180.56,254.176930084
180.572,254.126725956
180.587,254.063787448
180.602,254.000641511
180.617,253.93728413
180.632,253.873711245
180.647,253.809918749
180.66,253.754451071
180.662,253.745902491
180.677,253.681658277
180.692,253.617181864
180.707,253.552468969
180.722,253.487515264
180.737,253.422316375
180.752,253.356867888
180.767,253.291165343
180.782,253.225204241
180.797,253.158980036
180.812,253.092488145
180.827,253.02572394
180.842,252.958682755
180.857,252.89135988
180.872,252.823750569
180.887,252.755850035
180.902,252.68765345
180.917,252.619155952
180.932,252.550352639
180.947,252.481238571
180.962,252.411808773
180.977,252.342058236
180.992,252.271981914
181.007,252.201574729
181.022,252.130831566
181.037,252.059747283
181.052,251.988316704
181.067,251.916534621
181.082,251.8443958
181.097,251.771894978
181.112,251.699026863
181.127,251.625786138
181.142,251.552167462
181.157,251.478165469
181.172,251.403774774
181.187,251.328989968
181.202,251.253805623
181.217,251.178216296
181.232,251.102216526
181.247,251.025800838
181.262,250.948963743
181.277,250.871699745
181.292,250.794003336
181.307,250.715869003
181.31,250.700189099
181.322,250.637291227
181.337,250.558264488
181.352,250.478783266
181.367,250.398842042
181.382,250.318435306
181.397,250.23755755
181.412,250.15620328
181.427,250.074367017
181.442,249.992043295
181.457,249.90922667
181.472,249.825911719
181.487,249.742093048
181.502,249.657765291
181.517,249.572923119
181.532,249.487561236
181.547,249.401674393
181.562,249.315257383
181.577,249.228305053
181.592,249.140812304
181.607,249.052774096
181.622,248.964185456
181.637,248.87504148
181.652,248.785337339
181.667,248.695068288
181.682,248.604229666
181.697,248.512816906
181.712,248.420825541
181.727,248.328251208
181.742,248.235089657
181.757,248.141336757
181.772,248.046988503
181.787,247.952041022
181.802,247.856490583
181.817,247.760333602
181.832,247.663566652
181.847,247.566186469
181.862,247.468189961
181.877,247.369574217
181.892,247.270336514
181.907,247.170474328
181.922,247.069985339
181.937,246.968867444
181.952,246.867118762
181.967,246.764737646
181.982,246.66172269
181.997,246.558072739
182.012,246.453786896
182.027,246.348864533
182.042,246.243305299
182.057,246.137109127
182.06,246.115793475
182.072,246.030276244
182.087,245.922807177
182.102,245.81470276
182.117,245.705964143
182.132,245.596592796
182.147,245.486590515
182.162,245.375959427
182.177,245.264701993
182.192,245.152821011
182.207,245.040319616
182.222,244.927201282
182.237,244.813469818
182.252,244.699129365
182.267,244.58418439
182.282,244.46863968
182.297,244.352500329
182.312,244.235771724
182.327,244.118459533
182.342,244.000569679
182.357,243.882108319
182.372,243.763081816
182.387,243.643496707
182.402,243.523359658
182.417,243.40267743
182.432,243.281456821
182.447,243.159704608
182.462,243.037427487
182.477,242.914631997
182.492,242.791324431
182.507,242.66751075
182.522,242.543196476
182.537,242.418386568
182.552,242.293085299
182.567,242.167296104
182.582,242.041021416
182.597,241.914262487
182.612,241.787019181
182.627,241.659289749
182.642,241.531070579
182.657,241.402355914
182.672,241.273137542
182.687,241.143404448
182.702,241.013142426
182.717,240.88233365
182.732,240.750956188
182.747,240.618983463
182.762,240.486383645
182.777,240.35311897
182.792,240.219144966
182.807,240.084409583
182.822,239.9488522
182.837,239.812402494
182.852,239.674979139
182.867,239.536488314
182.882,239.396821966
182.897,239.255855788
182.912,239.113446848
182.927,238.969430778
182.942,238.823618432
182.957,238.675791868
182.972,238.525699481
182.987,238.37305004
183.002,238.217505332
183.017,238.05867096
183.032,237.896084717
183.047,237.729201714
183.062,237.557375081
183.077,237.379830577
183.092,237.195632672
183.107,237.003638467
183.122,236.802434024
183.137,236.59024481
183.152,236.36480747
183.167,236.123183045
183.182,235.861480828
183.197,235.574446053
183.212,235.254845814
183.227,234.892586597
183.242,234.473625562
183.257,233.9795546
183.367,234.094647904
183.382,234.563530683
183.397,234.962378886
183.412,235.30857914
183.427,235.615063858
183.442,235.891095225
183.457,236.143327496
183.472,236.376616898
183.487,236.594577143
183.502,236.799951504
183.517,236.994862462
183.532,237.18098114
183.547,237.359644119
183.562,237.531935382
183.577,237.698744836
183.592,237.860810844
183.607,238.018751678
183.622,238.173089139
183.637,238.324266583
183.652,238.472662862
183.667,238.618603255
183.682,238.762368137
183.697,238.904199945
183.712,239.04430882
183.727,239.182877235
183.742,239.32006382
183.757,239.456006553
183.772,239.590825444
183.787,239.724624804
183.802,239.857495191
183.817,239.98951507
183.832,240.120752257
183.847,240.251265168
183.862,240.381103906
183.877,240.510311228
183.892,240.638923381
183.907,240.76697085
183.922,240.89447902
183.937,241.021468762
183.952,241.147956962
183.967,241.273956982
183.982,241.399479088
183.997,241.524530817
184.012,241.649117323
184.027,241.773241671
184.042,241.896905118
184.057,242.02010735
184.072,242.142846709
184.087,242.265120383
184.102,242.386924591
184.117,242.508254737
184.132,242.629105559
184.147,242.749471249
184.162,242.869345576
184.177,242.988721984
184.192,243.107593684
184.207,243.225953735
184.222,243.343795118
184.237,243.461110798
184.252,243.57789378
184.267,243.694137161
184.282,243.809834169
184.297,243.924978204
184.312,244.039562868
184.327,244.153581994
184.342,244.267029669
184.357,244.379900252
184.372,244.492188395
184.387,244.603889049
184.402,244.714997481
184.417,244.825509277
184.432,244.935420351
184.447,245.044726946
184.462,245.153425637
184.477,245.261513331
184.492,245.368987266
184.507,245.475845009
184.522,245.582084452
184.537,245.687703806
184.552,245.792701597
184.56,245.848445856
184.567,245.897076664
184.582,246.000828143
184.597,246.103955471
184.612,246.206458368
184.627,246.308336838
184.642,246.409591154
184.657,246.510221856
184.672,246.610229735
184.687,246.709615831
184.702,246.808381421
184.717,246.906528011
184.732,247.004057326
184.747,247.100971305
184.762,247.197272087
184.777,247.292962008
184.792,247.388043588
184.807,247.482519524
184.822,247.576392684
184.837,247.669666097
184.852,247.762342945
184.867,247.854426556
184.882,247.945920397
184.897,248.036828065
184.912,248.127153282
184.927,248.216899888
184.942,248.306071831
184.957,248.394673165
184.972,248.482708041
184.987,248.570180701
185.002,248.657095476
185.017,248.743456772
185.032,248.829269074
185.047,248.914536934
185.062,248.99926497
185.077,249.083457857
185.092,249.167120327
185.107,249.250257162
185.122,249.332873188
185.137,249.414973273
185.152,249.496562325
185.167,249.577645283
185.182,249.658227117
185.197,249.738312825
185.212,249.817907425
185.227,249.897015958
185.242,249.975643479
185.257,250.053795059
185.272,250.131475779
185.287,250.208690729
185.302,250.285445003
185.31,250.326194012
185.317,250.361743701
185.332,250.437591919
185.347,250.512994757
185.362,250.587957308
185.377,250.66248466
185.392,250.736581894
185.407,250.810254081
185.422,250.88350628
185.437,250.956343539
185.452,251.02877089
185.467,251.100793348
185.482,251.172415912
185.497,251.243643563
185.512,251.314481257
185.527,251.384933935
185.542,251.455006509
185.557,251.524703872
185.572,251.594030889
185.587,251.6629924
185.602,251.731593218
185.617,251.799838129
185.632,251.867731889
185.647,251.935279224
185.662,252.002484831
185.677,252.069353376
185.692,252.135889492
185.707,252.202097779
185.722,252.267982807
185.737,252.333549108
185.752,252.398801185
185.767,252.463743501
185.782,252.528380486
185.797,252.592716536
185.812,252.656756008
185.827,252.720503223
185.842,252.783962466
185.857,252.847137985
185.872,252.910033988
185.887,252.972654648
185.902,253.035004098
185.917,253.097086431
185.932,253.158905705
185.947,253.220465936
185.96,253.273611674
185.962,253.281771101
185.977,253.342825137
185.992,253.403631945
186.007,253.464195382
186.022,253.524519266
186.037,253.584607376
186.052,253.644463449
186.06,253.67629309
186.067,253.704091185
186.082,253.763494238
186.097,253.822676228
186.112,253.881640729
186.127,253.940391276
186.142,253.998931365
186.157,254.057264449
186.172,254.115393941
186.187,254.173323213
186.202,254.231055597
186.217,254.288594382
186.232,254.34594282
186.247,254.403104117
186.262,254.460081444
186.277,254.516877926
186.292,254.57349665
186.307,254.629940664
186.322,254.686212971
186.337,254.742316538
186.352,254.798254287
186.367,254.854029105
186.382,254.909643834
186.397,254.965101278
186.412,255.020404202
186.427,255.075555329
186.442,255.130557343
186.457,255.185412889
186.472,255.240124571
186.487,255.294694955
186.502,255.349126567
186.517,255.403421894
186.532,255.457583385
186.547,255.511613447
186.562,255.565514454
186.577,255.619288736
186.592,255.672938586
186.607,255.726466263
186.622,255.779873983
186.637,255.833163926
186.652,255.886338235
186.667,255.939399016
186.682,255.992348337
186.697,256.04518823
186.71,256.09089583
186.712,256.097920688
186.727,256.15054767
186.742,256.203071099
186.757,256.255492859
186.772,256.307814802
186.787,256.36003874
186.802,256.412166455
186.817,256.464199689
186.832,256.516140152
186.847,256.567989518
186.862,256.619749428
186.877,256.671421488
186.892,256.72300727
186.907,256.774508311
186.922,256.825926118
186.937,256.877262164
186.952,256.928517886
186.967,256.979694693
186.982,257.030793957
186.997,257.081817022
187.012,257.132765198
187.027,257.183639764
187.042,257.234441969
187.057,257.28517303
187.072,257.335834132
187.087,257.386426432
187.102,257.436951056
187.117,257.487409098
187.132,257.537801628
187.147,257.588129681
187.162,257.638394266
187.177,257.688596362
187.192,257.738736922
187.207,257.788816867
187.222,257.838837095
187.237,257.888798472
187.252,257.938701839
187.267,257.98854801
187.282,258.038337772
187.297,258.088071886
187.312,258.137751087
187.327,258.187376084
187.342,258.23694756
187.357,258.286466174
187.372,258.335932558
187.387,258.385347324
187.402,258.434711053
187.417,258.484024307
187.432,258.533287624
187.447,258.582501517
187.46,258.625113958
187.462,258.631666476
187.477,258.680782968
187.492,258.729851439
187.507,258.778872313
187.522,258.827845987
187.537,258.876772843
187.552,258.925653239
187.567,258.97448751
187.582,259.023275973
187.597,259.072018923
187.612,259.120716636
187.627,259.169369365
187.642,259.217977348
187.657,259.2665408
187.672,259.315059918
187.687,259.36353488
187.702,259.411965846
187.717,259.460352957
187.732,259.508696338
187.747,259.556996092
187.762,259.60525231
187.777,259.653465061
187.792,259.701634401
187.807,259.749760367
187.822,259.79784298
187.837,259.845882245
187.852,259.893878152
187.867,259.941830674
187.882,259.989739771
187.897,260.037605385
187.912,260.085427446
187.927,260.133205868
187.942,260.18094055
187.957,260.228631379
187.972,260.276278227
187.987,260.323880954
188.002,260.371439403
188.017,260.418953409
188.032,260.466422792
188.047,260.513847358
188.062,260.561226902
188.077,260.608561208
188.092,260.655850048
188.107,260.703093181
188.122,260.750290356
188.137,260.797441311
188.152,260.844545771
188.167,260.891603455
188.182,260.938614067
188.197,260.985577304
188.21,261.026240211
188.212,261.03249285
188.227,261.079360383
188.242,261.126179568
188.257,261.172950066
188.272,261.219671523
188.287,261.266343578
188.302,261.312965864
188.317,261.359538004
188.332,261.406059611
188.347,261.452530294
188.362,261.498949652
188.377,261.545317275
188.392,261.591632749
188.407,261.637895651
188.422,261.684105551
188.437,261.730262012
188.452,261.776364593
188.467,261.822412845
188.482,261.868406311
188.497,261.914344531
188.512,261.960227039
188.527,262.006053362
188.542,262.051823022
188.557,262.097535536
188.572,262.143190418
188.587,262.188787174
188.602,262.234325307
188.617,262.279804317
188.632,262.325223697
188.647,262.370582938
188.66,262.409845236
188.662,262.415881524
188.677,262.461118941
188.692,262.506294666
188.707,262.551408174
188.722,262.596458939
188.737,262.641446429
