# 48698 WSSS Singapore Observations at 12Z 08 Dec 2019
Frequency [GHz],TB
175.31,272.001740726
175.322,271.978929121
175.337,271.95034776
175.352,271.921691891
175.367,271.892961277
175.382,271.864155666
175.397,271.835274825
175.412,271.806318503
175.427,271.777286461
175.442,271.748178445
175.457,271.718994212
175.472,271.689733513
175.487,271.660396101
175.502,271.630981722
175.517,271.601490127
175.532,271.571921066
175.547,271.542274282
175.562,271.512549523
175.577,271.482746535
175.592,271.45286506
175.607,271.422904843
175.622,271.392865624
175.637,271.362747146
175.652,271.33254915
175.667,271.30227137
175.682,271.271913551
175.697,271.241475424
175.712,271.210956729
175.727,271.180357201
175.742,271.149676573
175.757,271.118914576
175.772,271.088070946
175.787,271.05714541
175.802,271.026137702
175.817,270.99504755
175.832,270.963874678
175.847,270.932618817
175.862,270.901279693
175.877,270.869857029
175.892,270.838350551
175.907,270.806759977
175.922,270.775085033
175.937,270.743325439
175.952,270.711480914
175.967,270.679551175
175.982,270.647535942
175.997,270.615434931
176.012,270.583247855
176.027,270.550974432
176.042,270.518614369
176.057,270.486167387
176.072,270.453633187
176.087,270.421011485
176.102,270.388301991
176.117,270.355504406
176.132,270.322618445
176.147,270.289643804
176.162,270.256580194
176.177,270.223427316
176.192,270.190184873
176.207,270.156852565
176.222,270.123430092
176.237,270.089917153
176.252,270.056313445
176.267,270.022618663
176.282,269.988832504
176.297,269.954954661
176.31,269.925519465
176.312,269.92098483
176.327,269.886922698
176.342,269.852767956
176.357,269.818520296
176.372,269.784179404
176.387,269.74974497
176.402,269.715216675
176.417,269.680594206
176.432,269.645877246
176.447,269.611065477
176.46,269.580818341
176.462,269.57615858
176.477,269.541156235
176.492,269.506058118
176.507,269.470863909
176.522,269.435573282
176.537,269.400185912
176.552,269.364701475
176.567,269.329119636
176.582,269.293440074
176.597,269.257662453
176.612,269.221786441
176.627,269.185811709
176.642,269.149737919
176.657,269.113564735
176.672,269.077291822
176.687,269.04091884
176.702,269.004445451
176.717,268.967871311
176.732,268.931196081
176.747,268.894419411
176.762,268.857540961
176.777,268.820560386
176.792,268.783477331
176.807,268.746291452
176.822,268.709002393
176.837,268.671609808
176.852,268.634113338
176.867,268.59651263
176.882,268.558807328
176.897,268.520997069
176.912,268.483081497
176.927,268.445060253
176.942,268.406932971
176.957,268.368699286
176.972,268.330358833
176.987,268.291911245
177.002,268.253356154
177.017,268.214693187
177.032,268.175921974
177.047,268.137042142
177.062,268.098053311
177.077,268.058955108
177.092,268.019747154
177.107,267.980429068
177.122,267.94100047
177.137,267.901460972
177.152,267.861810192
177.167,267.822047741
177.182,267.782173232
177.197,267.742186273
177.21,267.707439647
177.212,267.702086473
177.227,267.661873436
177.242,267.621546769
177.257,267.581106071
177.272,267.540550944
177.287,267.499880986
177.302,267.459095794
177.31,267.437296434
177.317,267.418194962
177.332,267.377178084
177.347,267.336044751
177.362,267.294794553
177.377,267.253427071
177.392,267.211941897
177.407,267.170338609
177.422,267.128616791
177.437,267.086776024
177.452,267.044815879
177.467,267.002735932
177.482,266.96053576
177.497,266.918214929
177.512,266.87577301
177.527,266.833209567
177.542,266.790524165
177.557,266.747716363
177.572,266.704785724
177.587,266.661731803
177.602,266.618554157
177.617,266.575252332
177.632,266.531825886
177.647,266.488274362
177.66,266.450428184
177.662,266.444597307
177.677,266.40079426
177.692,266.356864767
177.707,266.31280836
177.722,266.268624577
177.737,266.224312949
177.752,266.179873009
177.767,266.13530428
177.782,266.090606291
177.797,266.045778561
177.812,266.000820609
177.827,265.955731953
177.842,265.910512105
177.857,265.865160576
177.872,265.819676877
177.887,265.774060508
177.902,265.728310973
177.917,265.682427772
177.932,265.6364104
177.947,265.590258352
177.96,265.550150573
177.962,265.543971112
177.977,265.497548174
177.992,265.450989018
178.007,265.404293125
178.022,265.357459971
178.037,265.31048903
178.052,265.263379774
178.067,265.21613167
178.082,265.168744179
178.097,265.121216763
178.112,265.07354888
178.127,265.025739983
178.142,264.977789519
178.157,264.929696935
178.172,264.881461674
178.187,264.833083175
178.202,264.784560873
178.217,264.735894196
178.232,264.687082574
178.247,264.638125428
178.262,264.589022179
178.277,264.539772242
178.292,264.490375028
178.307,264.440829943
178.322,264.391136389
178.337,264.341293767
178.352,264.29130147
178.367,264.241158887
178.382,264.190865405
178.397,264.140420406
178.41,264.096578361
178.412,264.089823263
178.427,264.039073351
178.442,263.988170037
178.457,263.937112682
178.472,263.885900646
178.487,263.83453328
178.502,263.783009935
178.517,263.731329954
178.532,263.679492674
178.547,263.627497428
178.562,263.575343545
178.577,263.52303035
178.592,263.470557157
178.607,263.417923282
178.622,263.365128032
178.637,263.312170707
178.652,263.259050604
178.667,263.205767014
178.682,263.152319221
178.697,263.098706508
178.712,263.044928144
178.727,262.990983398
178.742,262.936871535
178.757,262.882591806
178.772,262.828143463
178.787,262.773525754
178.802,262.718737908
178.817,262.663779162
178.832,262.608648737
178.847,262.553345856
178.862,262.497869727
178.877,262.442219558
178.892,262.386394543
178.907,262.330393879
178.922,262.274216747
178.937,262.217862325
178.952,262.161329787
178.967,262.104618294
178.982,262.047727005
178.997,261.990655066
179.012,261.93340162
179.027,261.875965804
179.042,261.81834674
179.057,261.760543552
179.072,261.702555349
179.087,261.644381237
179.102,261.586020308
179.117,261.527471652
179.132,261.468734347
179.147,261.409807466
179.16,261.358583433
179.162,261.350690073
179.177,261.29138122
179.192,261.231879954
179.207,261.172185311
179.222,261.112296323
179.237,261.052212006
179.252,260.991931374
179.267,260.931453426
179.282,260.870777157
179.297,260.809901549
179.312,260.748825577
179.327,260.687548201
179.342,260.626068381
179.357,260.564385059
179.372,260.50249717
179.387,260.440403642
179.402,260.378103386
179.417,260.315595309
179.432,260.252878301
179.447,260.189951251
179.462,260.126813031
179.477,260.063462499
179.492,259.999898508
179.507,259.936119901
179.522,259.872125503
179.537,259.807914134
179.552,259.743484597
179.567,259.678835689
179.582,259.613966191
179.597,259.548874873
179.612,259.483560494
179.627,259.4180218
179.642,259.352257523
179.657,259.286266386
179.672,259.220047095
179.687,259.153598346
179.702,259.086918818
179.717,259.020007182
179.732,258.952862093
179.747,258.885482192
179.762,258.817866105
179.777,258.750012446
179.792,258.681919811
179.807,258.613586788
179.822,258.545011944
179.837,258.476193835
179.852,258.407130999
179.867,258.33782196
179.882,258.268265228
179.897,258.198459294
179.91,258.137758063
179.912,258.128402634
179.927,258.058093709
179.942,257.987530963
179.957,257.916712822
179.972,257.845637697
179.987,257.774303979
180.002,257.702710043
180.017,257.630854248
180.032,257.55873493
180.047,257.486350408
180.062,257.413698991
180.077,257.340778956
180.092,257.267588567
180.107,257.194126071
180.122,257.120389689
180.137,257.046377627
180.152,256.972088066
180.167,256.897519172
180.182,256.822669084
180.197,256.747535922
180.212,256.672117785
180.227,256.596412749
180.242,256.520418866
180.257,256.444134167
180.272,256.367556659
180.287,256.290684325
180.302,256.213515124
180.317,256.13604699
180.332,256.058277833
180.347,255.980205538
180.362,255.901827961
180.377,255.823142938
180.392,255.744148274
180.407,255.664841745
180.422,255.585221103
180.437,255.505284074
180.452,255.425028349
180.467,255.344451595
180.482,255.263551448
180.497,255.182325515
180.512,255.100771371
180.527,255.01888656
180.542,254.936668596
180.557,254.85411496
180.56,254.837563728
180.572,254.771223103
180.587,254.687990434
180.602,254.604414343
180.617,254.520492172
180.632,254.436221234
180.647,254.351598809
180.66,254.277972925
180.662,254.266622134
180.677,254.181288416
180.692,254.095594822
180.707,254.009538481
180.722,253.923116484
180.737,253.836325878
180.752,253.74916368
180.767,253.661626859
180.782,253.573712345
180.797,253.485417023
180.812,253.396737741
180.827,253.307671301
180.842,253.218214459
180.857,253.128363928
180.872,253.038116378
180.887,252.947468428
180.902,252.856416653
180.917,252.76495758
180.932,252.673087688
180.947,252.580803403
180.962,252.488101109
180.977,252.394977129
180.992,252.301427745
181.007,252.207449177
181.022,252.113037597
181.037,252.018189127
181.052,251.922899824
181.067,251.827165698
181.082,251.730982702
181.097,251.634346727
181.112,251.53725361
181.127,251.439699132
181.142,251.341679007
181.157,251.243188894
181.172,251.144224395
181.187,251.044781041
181.202,250.944854307
181.217,250.844439605
181.232,250.743532279
181.247,250.642127615
181.262,250.540220828
181.277,250.43780707
181.292,250.334881429
181.307,250.231438921
181.31,250.210687953
181.322,250.127474499
181.337,250.022983047
181.352,249.917959379
181.367,249.812398241
181.382,249.706294313
181.397,249.599642202
181.412,249.492436449
181.427,249.384671521
181.442,249.276341821
181.457,249.167441677
181.472,249.057965351
181.487,248.947907033
181.502,248.837260846
181.517,248.726020844
181.532,248.614181012
181.547,248.50173527
181.562,248.388677469
181.577,248.275001393
181.592,248.160700768
181.607,248.045769251
181.622,247.930200438
181.637,247.813987865
181.652,247.697125016
181.667,247.579605309
181.682,247.461422117
181.697,247.342568758
181.712,247.223038504
181.727,247.102824578
181.742,246.981920168
181.757,246.860318422
181.772,246.738012454
181.787,246.614995351
181.802,246.491260176
181.817,246.366799973
181.832,246.241607777
181.847,246.115676614
181.862,245.988999514
181.877,245.861569512
181.892,245.733379665
181.907,245.604423048
181.922,245.474692778
181.937,245.344182012
181.952,245.212883963
181.967,245.08079191
181.982,244.947899213
181.997,244.814199321
182.012,244.679685789
182.027,244.544352295
182.042,244.408192651
182.057,244.271200823
182.06,244.243702076
182.072,244.133370949
182.087,243.994697359
182.102,243.855174591
182.117,243.71479742
182.132,243.573560875
182.147,243.431460271
182.162,243.288491222
182.177,243.144649685
182.192,242.99993198
182.207,242.854334822
182.222,242.707855361
182.237,242.560491207
182.252,242.412240481
182.267,242.263101843
182.282,242.113074541
182.297,241.962158456
182.312,241.810354145
182.327,241.657662899
182.342,241.504086793
182.357,241.349628739
182.372,241.194292554
182.387,241.038083019
182.402,240.881005943
182.417,240.723068244
182.432,240.564278009
182.447,240.404644588
182.462,240.244178663
182.477,240.082892348
182.492,239.920799264
182.507,239.757914654
182.522,239.594255465
182.537,239.429840454
182.552,239.264690306
182.567,239.098827728
182.582,238.932277576
182.597,238.765066962
182.612,238.597225368
182.627,238.428784775
182.642,238.25977977
182.657,238.090247657
182.672,237.920228579
182.687,237.749765602
182.702,237.578904824
182.717,237.407695443
182.732,237.236189813
182.747,237.064443485
182.762,236.892515207
182.777,236.720466883
182.792,236.548363491
182.807,236.376272931
182.822,236.204265791
182.837,236.032415034
182.852,235.860795539
182.867,235.689483525
182.882,235.51855577
182.897,235.348088619
182.912,235.178156706
182.927,235.008831346
182.942,234.840178477
182.957,234.672256087
182.972,234.505110949
182.987,234.338774509
183.002,234.173257671
183.017,234.008544169
183.032,233.844582108
183.047,233.681273085
183.062,233.518458106
183.077,233.355899212
183.092,233.193255313
183.107,233.030050112
183.122,232.865629281
183.137,232.699102979
183.152,232.529268812
183.167,232.354509918
183.182,232.172665142
183.197,231.980880152
183.212,231.775488409
183.227,231.55209457
183.242,231.306387286
183.257,231.037134377
183.367,231.095318214
183.382,231.355466233
183.397,231.59180961
183.412,231.80687253
183.427,232.005142705
183.442,232.190859319
183.457,232.367473342
183.472,232.537645453
183.487,232.703381779
183.502,232.86618011
183.517,233.027152632
183.532,233.187120993
183.547,233.346687803
183.562,233.506289908
183.577,233.666238132
183.592,233.826747076
183.607,233.987957613
183.622,234.149954042
183.637,234.312777255
183.652,234.476434915
183.667,234.640909413
183.682,234.806164086
183.697,234.972148122
183.712,235.138800436
183.727,235.306052741
183.742,235.473831983
183.757,235.642062253
183.772,235.810666332
183.787,235.979566865
183.802,236.148687311
183.817,236.317952648
183.832,236.487289941
183.847,236.656628735
183.862,236.82590136
183.877,236.995043141
183.892,237.163992519
183.907,237.332691138
183.922,237.501083856
183.937,237.669118742
183.952,237.836747031
183.967,238.003923062
183.982,238.170604189
183.997,238.336750693
184.012,238.502325672
184.027,238.667294936
184.042,238.831626878
184.057,238.995292374
184.072,239.158264652
184.087,239.32051918
184.102,239.482033549
184.117,239.642787363
184.132,239.802762124
184.147,239.961941132
184.162,240.120309372
184.177,240.277853427
184.192,240.434561377
184.207,240.590422709
184.222,240.745428234
184.237,240.89957
184.252,241.05284122
184.267,241.205236192
184.282,241.356750232
184.297,241.507379607
184.312,241.657121476
184.327,241.805973821
184.342,241.9539354
184.357,242.101005692
184.372,242.24718484
184.387,242.392473618
184.402,242.53687337
184.417,242.680385981
184.432,242.823013829
184.447,242.964759752
184.462,243.105627015
184.477,243.245619272
184.492,243.384740535
184.507,243.52299515
184.522,243.660387766
184.537,243.796923307
184.552,243.93260695
184.56,244.004625089
184.567,244.067444108
184.582,244.201440399
184.597,244.334601625
184.612,244.466933765
184.627,244.598442947
184.642,244.729135436
184.657,244.859017613
184.672,244.988095969
184.687,245.116377081
184.702,245.24386761
184.717,245.370574281
184.732,245.496503874
184.747,245.621663216
184.762,245.746059165
184.777,245.869698612
184.792,245.99258846
184.807,246.114735625
184.822,246.236147023
184.837,246.356829568
184.852,246.476790161
184.867,246.59603569
184.882,246.714573021
184.897,246.83240899
184.912,246.949550403
184.927,247.066004031
184.942,247.181776609
184.957,247.296874824
184.972,247.411305321
184.987,247.525074693
185.002,247.638189482
185.017,247.750656179
185.032,247.862481214
185.047,247.973670966
185.062,248.084231746
185.077,248.194169812
185.092,248.303491351
185.107,248.412202493
185.122,248.520309298
185.137,248.627817767
185.152,248.73473383
185.167,248.841063351
185.182,248.946812123
185.197,249.051985881
185.212,249.156590282
185.227,249.260630919
185.242,249.364113318
185.257,249.467042938
185.272,249.569425162
185.287,249.671265317
185.302,249.772568651
185.31,249.826379392
185.317,249.873340354
185.332,249.973585543
185.347,250.073309268
185.362,250.17251652
185.377,250.271212216
185.392,250.369401216
185.407,250.467088305
185.422,250.564278213
185.437,250.660975604
185.452,250.757185076
185.467,250.85291117
185.482,250.948158363
185.497,251.04293107
185.512,251.137233648
185.527,251.231070396
185.542,251.324445551
185.557,251.417363293
185.572,251.509827747
185.587,251.601842978
185.602,251.693413001
185.617,251.784541769
185.632,251.875233187
185.647,251.965491104
185.662,252.055319318
185.677,252.144721571
185.692,252.23370156
185.707,252.322262925
185.722,252.410409262
185.737,252.498144117
185.752,252.585470984
185.767,252.672393317
185.782,252.758914516
185.797,252.84503794
185.812,252.930766898
185.827,253.016104661
185.842,253.10105445
185.857,253.185619447
185.872,253.26980279
185.887,253.353607577
185.902,253.43703686
185.917,253.520093655
185.932,253.60278094
185.947,253.685101647
185.96,253.756151983
185.962,253.767058678
185.977,253.84865489
185.992,253.929893105
186.007,254.010776111
186.022,254.091306657
186.037,254.171487458
186.052,254.251321193
186.06,254.293758188
186.067,254.330810507
186.082,254.409958011
186.097,254.488766286
186.112,254.567237876
186.127,254.645375295
186.142,254.723181026
186.157,254.80065752
186.172,254.877807196
186.187,254.954632446
186.202,255.031135632
186.217,255.107319083
186.232,255.183185107
186.247,255.258735975
186.262,255.333973938
186.277,255.408901213
186.292,255.483519998
186.307,255.557832457
186.322,255.631840734
186.337,255.705546944
186.352,255.77895318
186.367,255.852061506
186.382,255.924873963
186.397,255.997392574
186.412,256.069619331
186.427,256.141556206
186.442,256.213205149
186.457,256.284568087
186.472,256.355646922
186.487,256.426443543
186.502,256.496959807
186.517,256.567197554
186.532,256.637158608
186.547,256.706844767
186.562,256.776257811
186.577,256.845399502
186.592,256.914271577
186.607,256.982875761
186.622,257.051213757
186.637,257.119287247
186.652,257.1870979
186.667,257.254647363
186.682,257.321937265
186.697,257.388969223
186.71,257.446856172
186.712,257.455744832
186.727,257.522265669
186.742,257.588533299
186.757,257.654549268
186.772,257.720315105
186.787,257.785832325
186.802,257.851102427
186.817,257.916126893
186.832,257.980907191
186.847,258.045444777
186.862,258.109741084
186.877,258.17379754
186.892,258.237615552
186.907,258.301196516
186.922,258.364541812
186.937,258.427652806
186.952,258.490530858
186.967,258.553177303
186.982,258.61559347
186.997,258.677780674
187.012,258.739740214
187.027,258.80147338
187.042,258.862981449
187.057,258.924265685
187.072,258.985327339
187.087,259.046167653
187.102,259.106787852
187.117,259.167189155
187.132,259.227372767
187.147,259.287339878
187.162,259.347091673
187.177,259.406629325
187.192,259.465953991
187.207,259.525066823
187.222,259.58396896
187.237,259.642661528
187.252,259.701145647
187.267,259.759422427
187.282,259.817492963
187.297,259.875358342
187.312,259.933019646
187.327,259.99047794
187.342,260.047734283
187.357,260.104789725
187.372,260.161645307
187.387,260.218302057
187.402,260.274760999
187.417,260.331023144
187.432,260.387089496
187.447,260.442961049
187.46,260.491226255
187.462,260.49863879
187.477,260.554123698
187.492,260.609416739
187.507,260.664518876
187.522,260.71943106
187.537,260.774154238
187.552,260.82868934
187.567,260.883037301
187.582,260.937199036
187.597,260.991175462
187.612,261.044967482
187.627,261.098575992
187.642,261.152001881
187.657,261.205246034
187.672,261.258309324
187.687,261.311192621
187.702,261.363896782
187.717,261.416422662
187.732,261.468771109
187.747,261.52094296
187.762,261.572939049
187.777,261.624760201
187.792,261.676407236
187.807,261.727880966
187.822,261.7791822
187.837,261.830311733
187.852,261.881270359
187.867,261.932058867
187.882,261.982678035
187.897,262.033128642
187.912,262.083411453
187.927,262.133527232
187.942,262.183476734
187.957,262.233260711
187.972,262.282879905
187.987,262.332335061
188.002,262.381626905
188.017,262.43075617
188.032,262.479723577
188.047,262.528529842
188.062,262.577175676
188.077,262.625661787
188.092,262.673988873
188.107,262.722157631
188.122,262.770168752
188.137,262.818022918
188.152,262.865720812
188.167,262.913263109
188.182,262.960650477
188.197,263.007883582
188.21,263.04869467
188.212,263.054963086
188.227,263.101889643
188.242,263.148663904
188.257,263.195286514
188.272,263.241758119
188.287,263.28807935
188.302,263.334250844
188.317,263.380273226
188.332,263.426147122
188.347,263.47187315
188.362,263.517451925
188.377,263.562884059
188.392,263.608170155
188.407,263.65331082
188.422,263.698306649
188.437,263.743158235
188.452,263.787866171
188.467,263.832431042
188.482,263.876853429
188.497,263.921133912
188.512,263.965273063
188.527,264.009271456
188.542,264.053129653
188.557,264.096848222
188.572,264.140427719
188.587,264.183868701
188.602,264.227171721
188.617,264.270337325
188.632,264.313366061
188.647,264.356258468
188.66,264.39332203
188.662,264.399015086
188.677,264.441636449
188.692,264.484123085
188.707,264.526475528
188.722,264.5686943
188.737,264.610779922
