# 01004 ENAS Ny-Alesund Ii Observations at 12Z 22 Jan 2019
Frequency [GHz],TB
175.31,189.967656131
175.322,190.026718677
175.337,190.100793935
175.352,190.175144752
175.367,190.249772239
175.382,190.324677507
175.397,190.399861668
175.412,190.475325843
175.427,190.551071149
175.442,190.62709871
175.457,190.703409651
175.472,190.780005098
175.487,190.856886184
175.502,190.934054045
175.517,191.011509809
175.532,191.089254625
175.547,191.167289622
175.562,191.245615953
175.577,191.324234762
175.592,191.403147193
175.607,191.482354401
175.622,191.561857535
175.637,191.641657753
175.652,191.721756213
175.667,191.802154073
175.682,191.882852494
175.697,191.963852641
175.712,192.04515568
175.727,192.126762777
175.742,192.208675101
175.757,192.290893827
175.772,192.373420127
175.787,192.456255176
175.802,192.539400147
175.817,192.622856226
175.832,192.706624586
175.847,192.790706409
175.862,192.875102883
175.877,192.959815189
175.892,193.044844514
175.907,193.130192043
175.922,193.215858964
175.937,193.30184647
175.952,193.388155746
175.967,193.47478799
175.982,193.561744387
175.997,193.649026134
176.012,193.736634425
176.027,193.824570453
176.042,193.912835413
176.057,194.001430503
176.072,194.090356917
176.087,194.179615852
176.102,194.269208504
176.117,194.35913607
176.132,194.449399748
176.147,194.540000733
176.162,194.630940223
176.177,194.722219413
176.192,194.813839501
176.207,194.905801685
176.222,194.998107153
176.237,195.09075711
176.252,195.18375274
176.267,195.277095242
176.282,195.370785805
176.297,195.464825622
176.31,195.546610225
176.312,195.559215885
176.327,195.653957779
176.342,195.749052494
176.357,195.844501213
176.372,195.940305123
176.387,196.036465405
176.402,196.132983239
176.417,196.229859805
176.432,196.327096279
176.447,196.424693833
176.46,196.50957136
176.462,196.52265364
176.477,196.620976869
176.492,196.719664688
176.507,196.818718256
176.522,196.918138736
176.537,197.017927283
176.552,197.118085056
176.567,197.2186132
176.582,197.319512865
176.597,197.420785191
176.612,197.522431319
176.627,197.624452383
176.642,197.726849516
176.657,197.829623838
176.672,197.932776478
176.687,198.036308544
176.702,198.140221155
176.717,198.244515412
176.732,198.34919242
176.747,198.45425327
176.762,198.559699057
176.777,198.665530857
176.792,198.771749755
176.807,198.878356816
176.822,198.985353105
176.837,199.092739682
176.852,199.200517599
176.867,199.308687891
176.882,199.417251603
176.897,199.526209759
176.912,199.635563375
176.927,199.745313469
176.942,199.855461042
176.957,199.966007088
176.972,200.076952592
176.987,200.188298531
177.002,200.300045876
177.017,200.412195579
177.032,200.524748593
177.047,200.637705849
177.062,200.751068278
177.077,200.864836797
177.092,200.97901231
177.107,201.093595707
177.122,201.208587876
177.137,201.323989684
177.152,201.439801989
177.167,201.556025639
177.182,201.672661464
177.197,201.789710285
177.21,201.891487285
177.212,201.907172906
177.227,202.025050123
177.242,202.143342712
177.257,202.262051435
177.272,202.381177048
177.287,202.50072028
177.302,202.620681848
177.31,202.684832648
177.317,202.741062458
177.332,202.861862796
177.347,202.983083532
177.362,203.104725321
177.377,203.226788798
177.392,203.349274579
177.407,203.472183267
177.422,203.595515444
177.437,203.719271674
177.452,203.843452499
177.467,203.968058447
177.482,204.093090016
177.497,204.218547698
177.512,204.344431952
177.527,204.47074322
177.542,204.597481925
177.557,204.724648462
177.572,204.852243208
177.587,204.980266516
177.602,205.108718717
177.617,205.237600115
177.632,205.366910988
177.647,205.496651593
177.66,205.609441239
177.662,205.626822166
177.677,205.757422904
177.692,205.88845399
177.707,206.019915577
177.722,206.151807785
177.737,206.284130713
177.752,206.416884428
177.767,206.55006897
177.782,206.683684349
177.797,206.817730542
177.812,206.952207504
177.827,207.087115144
177.842,207.222453359
177.857,207.358221997
177.872,207.49442088
177.887,207.631049799
177.902,207.768108505
177.917,207.905596722
177.932,208.04351413
177.947,208.181860382
177.96,208.302107054
177.962,208.320635089
177.977,208.459837827
177.992,208.599468136
178.007,208.739525512
178.022,208.88000942
178.037,209.020919281
178.052,209.162254476
178.067,209.304014346
178.082,209.446198192
178.097,209.588805268
178.112,209.731834792
178.127,209.875285933
178.142,210.019157819
178.157,210.163449533
178.172,210.308160108
178.187,210.453288539
178.202,210.598833765
178.217,210.744794684
178.232,210.891170141
178.247,211.037958934
178.262,211.185159815
178.277,211.332771475
178.292,211.480792565
178.307,211.629221674
178.322,211.778057346
178.337,211.927298065
178.352,212.076942267
178.367,212.226988325
178.382,212.37743456
178.397,212.528279239
178.41,212.659332203
178.412,212.679520565
178.427,212.831156686
178.442,212.983185691
178.457,213.135605607
178.472,213.288414402
178.487,213.44160998
178.502,213.595190185
178.517,213.749152793
178.532,213.90349552
178.547,214.058216016
178.562,214.213311863
178.577,214.368780577
178.592,214.524619605
178.607,214.680826329
178.622,214.837398058
178.637,214.994332032
178.652,215.151625416
178.667,215.30927531
178.682,215.467278735
178.697,215.625632638
178.712,215.784333896
178.727,215.943379306
178.742,216.102765586
178.757,216.262489385
178.772,216.422547264
178.787,216.582935711
178.802,216.743651129
178.817,216.904689845
178.832,217.0660481
178.847,217.227722052
178.862,217.389707776
178.877,217.552001261
178.892,217.714598415
178.907,217.877495052
178.922,218.040686903
178.937,218.20416961
178.952,218.367938725
178.967,218.53198971
178.982,218.696317935
178.997,218.860918677
179.012,219.025787126
179.027,219.190918368
179.042,219.356307403
179.057,219.521949133
179.072,219.687838362
179.087,219.853969796
179.102,220.020338047
179.117,220.186937624
179.132,220.353762935
179.147,220.520808294
179.16,220.665754456
179.162,220.688067905
179.177,220.855535877
179.192,221.023206212
179.207,221.191072806
179.222,221.359129455
179.237,221.527369847
179.252,221.695787565
179.267,221.864376083
179.282,222.033128769
179.297,222.202038882
179.312,222.37109957
179.327,222.540303876
179.342,222.709644727
179.357,222.879114943
179.372,223.048707229
179.387,223.218414179
179.402,223.388228278
179.417,223.558141887
179.432,223.728147265
179.447,223.89823655
179.462,224.068401763
179.477,224.238634815
179.492,224.408927496
179.507,224.579271481
179.522,224.749658331
179.537,224.920079486
179.552,225.090526269
179.567,225.260989887
179.582,225.431461426
179.597,225.601931856
179.612,225.772392026
179.627,225.942832669
179.642,226.113244396
179.657,226.283617698
179.672,226.453942952
179.687,226.624210412
179.702,226.79441021
179.717,226.964532365
179.732,227.134566771
179.747,227.304503206
179.762,227.474331329
179.777,227.644040679
179.792,227.813620677
179.807,227.983060624
179.822,228.152349708
179.837,228.321476992
179.852,228.49043143
179.867,228.659201853
179.882,228.827776979
179.897,228.996145411
179.91,229.141888628
179.912,229.164295632
179.927,229.332216019
179.942,229.499894829
179.957,229.667320209
179.972,229.834480195
179.987,230.00136271
180.002,230.167955567
180.017,230.334246473
180.032,230.500223025
180.047,230.665872714
180.062,230.831182926
180.077,230.996140942
180.092,231.160733941
180.107,231.324948999
180.122,231.488773099
180.137,231.652193115
180.152,231.815195835
180.167,231.977767944
180.182,232.139896039
180.197,232.301566623
180.212,232.462766113
180.227,232.623480833
180.242,232.783697028
180.257,232.943400856
180.272,233.102578396
180.287,233.261215648
180.302,233.419298535
180.317,233.576812907
180.332,233.733744542
180.347,233.890079151
180.362,234.045802378
180.377,234.200899805
180.392,234.35535695
180.407,234.50915928
180.422,234.662292202
180.437,234.814741074
180.452,234.966491207
180.467,235.117527864
180.482,235.267836271
180.497,235.417401611
180.512,235.566209037
180.527,235.714243666
180.542,235.861490595
180.557,236.007934889
180.56,236.037126117
180.572,236.1535616
180.587,236.298355758
180.602,236.442302388
180.617,236.585386502
180.632,236.727593109
180.647,236.868907221
180.66,236.990645938
180.662,237.00931385
180.677,237.148798024
180.692,237.287344778
180.707,237.424939168
180.722,237.561566273
180.737,237.697211197
180.752,237.83185908
180.767,237.965495094
180.782,238.098104455
180.797,238.229672426
180.812,238.36018432
180.827,238.489625509
180.842,238.617981422
180.857,238.745237559
180.872,238.871379491
180.887,238.996392865
180.902,239.120263411
180.917,239.242976947
180.932,239.364519384
180.947,239.484876733
180.962,239.604035107
180.977,239.721980731
180.992,239.838699943
181.007,239.954179204
181.022,240.068405101
181.037,240.181364352
181.052,240.293043814
181.067,240.403430488
181.082,240.512511523
181.097,240.620274224
181.112,240.726706058
181.127,240.831794656
181.142,240.935527823
181.157,241.037893542
181.172,241.138879982
181.187,241.238475497
181.202,241.336668642
181.217,241.433448171
181.232,241.528803045
181.247,241.622722439
181.262,241.715195745
181.277,241.806212582
181.292,241.895762797
181.307,241.983836476
181.31,242.001273172
181.322,242.070423943
181.337,242.155515774
181.352,242.239102791
181.367,242.321176083
181.382,242.401726996
181.397,242.48074715
181.412,242.558228439
181.427,242.634163037
181.442,242.708543404
181.457,242.781362293
181.472,242.852612752
181.487,242.922288132
181.502,242.990382091
181.517,243.056888598
181.532,243.121801944
181.547,243.185116736
181.562,243.246827914
181.577,243.306930748
181.592,243.365420847
181.607,243.42229416
181.622,243.477546986
181.637,243.531175975
181.652,243.583178131
181.667,243.633550823
181.682,243.682291783
181.697,243.729399114
181.712,243.774871294
181.727,243.818707179
181.742,243.86090601
181.757,243.901467414
181.772,243.94039141
181.787,243.977678412
181.802,244.013329236
181.817,244.0473451
181.832,244.07972763
181.847,244.110478862
181.862,244.139601251
181.877,244.167097667
181.892,244.192971403
181.907,244.217226179
181.922,244.239866141
181.937,244.26089587
181.952,244.280320381
181.967,244.298145126
181.982,244.314375999
181.997,244.329019335
182.012,244.342081918
182.027,244.353570974
182.042,244.363494183
182.057,244.371859673
182.06,244.373346592
182.072,244.378676024
182.087,244.383952269
182.102,244.387697894
182.117,244.389922837
182.132,244.390637489
182.147,244.38985269
182.162,244.38757973
182.177,244.383830347
182.192,244.378616718
182.207,244.371951461
182.222,244.363847626
182.237,244.354318689
182.252,244.343378543
182.267,244.331041491
182.282,244.317322232
182.297,244.30223585
182.312,244.285797798
182.327,244.268023879
182.342,244.248930229
182.357,244.228533292
182.372,244.206849794
182.387,244.183896712
182.402,244.159691242
182.417,244.134250759
182.432,244.107592774
182.447,244.079734883
182.462,244.050694711
182.477,244.020489853
182.492,243.989137796
182.507,243.956655844
182.522,243.923061025
182.537,243.888369991
182.552,243.8525989
182.567,243.81576329
182.582,243.777877929
182.597,243.738956658
182.612,243.699012197
182.627,243.658055941
182.642,243.616097725
182.657,243.573145552
182.672,243.529205294
182.687,243.484280353
182.702,243.438371264
182.717,243.391475263
182.732,243.343585775
182.747,243.29469185
182.762,243.244777496
182.777,243.193820938
182.792,243.141793744
182.807,243.088659837
182.822,243.034374335
182.837,242.978882223
182.852,242.922116794
182.867,242.86399783
182.882,242.804429472
182.897,242.743297701
182.912,242.680467359
182.927,242.615778597
182.942,242.549042617
182.957,242.480036535
182.972,242.408497151
182.987,242.334113305
183.002,242.256516459
183.017,242.175268949
183.032,242.089849202
183.047,241.999632912
183.062,241.903868751
183.077,241.801646609
183.092,241.69185536
183.107,241.573125722
183.122,241.443751376
183.137,241.30157761
183.152,241.143840206
183.167,240.966925862
183.182,240.766005352
183.197,240.534454449
183.212,240.262913536
183.227,239.937733231
183.242,239.538451954
183.257,239.034301194
183.367,239.166011727
183.382,239.63868766
183.397,240.01556227
183.412,240.324441154
183.427,240.583743979
183.442,240.805831108
183.457,240.999246359
183.472,241.170084108
183.487,241.322818549
183.502,241.460817743
183.517,241.586671763
183.532,241.702408611
183.547,241.809640457
183.562,241.909665354
183.577,242.003539709
183.592,242.092131065
183.607,242.176157267
183.622,242.256216068
183.637,242.332807828
183.652,242.406353179
183.667,242.477206936
183.682,242.545669172
183.697,242.611994138
183.712,242.676397494
183.727,242.739062233
183.742,242.800143567
183.757,242.859772986
183.772,242.918061644
183.787,242.975103211
183.802,243.030976282
183.817,243.08574642
183.832,243.139467898
183.847,243.192185195
183.862,243.243934284
183.877,243.29474373
183.892,243.344635661
183.907,243.393626593
183.922,243.441728158
183.937,243.488947738
183.952,243.535289021
183.967,243.580752479
183.982,243.625335806
183.997,243.669034285
184.012,243.711841124
184.027,243.753747745
184.042,243.794744046
184.057,243.834818628
184.072,243.873958995
184.087,243.912151739
184.102,243.949382693
184.117,243.985637077
184.132,244.020899621
184.147,244.055154674
184.162,244.088386308
184.177,244.120578399
184.192,244.151714712
184.207,244.181778962
184.222,244.210754879
184.237,244.238626263
184.252,244.265377028
184.267,244.290991247
184.282,244.315453187
184.297,244.338747343
184.312,244.360858464
184.327,244.381771583
184.342,244.401472034
184.357,244.419945471
184.372,244.437177887
184.387,244.453155629
184.402,244.467865404
184.417,244.481294296
184.432,244.493429772
184.447,244.504259686
184.462,244.513772291
184.477,244.52195624
184.492,244.528800588
184.507,244.5342948
184.522,244.538428749
184.537,244.541192717
184.552,244.542577399
184.56,244.542748834
184.567,244.5425739
184.582,244.541173737
184.597,244.538368833
184.612,244.534151526
184.627,244.528514554
184.642,244.521451066
184.657,244.512954609
184.672,244.503019135
184.687,244.491638992
184.702,244.478808922
184.717,244.464524061
184.732,244.448779934
184.747,244.431572453
184.762,244.41289791
184.777,244.392752979
184.792,244.37113471
184.807,244.348040523
184.822,244.323468209
184.837,244.297415924
184.852,244.269882184
184.867,244.240865864
184.882,244.210366192
184.897,244.178382746
184.912,244.14491545
184.927,244.109964571
184.942,244.073530713
184.957,244.035614814
184.972,243.996218144
184.987,243.955342296
185.002,243.912989187
185.017,243.869161051
185.032,243.823860436
185.047,243.777090198
185.062,243.728853499
185.077,243.679153803
185.092,243.627994869
185.107,243.575380748
185.122,243.521315781
185.137,243.465804589
185.152,243.408852074
185.167,243.350463414
185.182,243.290644055
185.197,243.229399708
185.212,243.166736348
185.227,243.102660203
185.242,243.037177754
185.257,242.970295733
185.272,242.902021107
185.287,242.832361089
185.302,242.76132312
185.31,242.722875413
185.317,242.68891487
185.332,242.615144235
185.347,242.540019328
185.362,242.463548476
185.377,242.385740218
185.392,242.306603296
185.407,242.22614665
185.422,242.144379419
185.437,242.061310926
185.452,241.976950686
185.467,241.89130839
185.482,241.804393906
185.497,241.716217273
185.512,241.626788692
185.527,241.536118531
185.542,241.444217311
185.557,241.351095701
185.572,241.256764522
185.587,241.161234733
185.602,241.06451743
185.617,240.96662384
185.632,240.86756532
185.647,240.767353346
185.662,240.665999512
185.677,240.563515526
185.692,240.459913205
185.707,240.355204463
185.722,240.24940132
185.737,240.142515887
185.752,240.034560363
185.767,239.925547036
185.782,239.815488266
185.797,239.704396498
185.812,239.592284243
185.827,239.479164081
185.842,239.365048652
185.857,239.249950657
185.872,239.133882849
185.887,239.016858032
185.902,238.898889054
185.917,238.779988806
185.932,238.660170214
185.947,238.539446239
185.96,238.434096478
185.962,238.41782987
185.977,238.295334122
185.992,238.171972031
186.007,238.047756652
186.022,237.922701051
186.037,237.796818308
186.052,237.670121505
186.06,237.602221536
186.067,237.542623729
186.082,237.414338068
186.097,237.285277605
186.112,237.155455412
186.127,237.024884556
186.142,236.893578086
186.157,236.761549034
186.172,236.628810415
186.187,236.495375216
186.202,236.3612564
186.217,236.226466899
186.232,236.091019617
186.247,235.954927415
186.262,235.818203125
186.277,235.680859533
186.292,235.542909383
186.307,235.404365371
186.322,235.265240151
186.337,235.12554632
186.352,234.985296426
186.367,234.84450296
186.382,234.703178356
186.397,234.561334987
186.412,234.418985166
186.427,234.276141143
186.442,234.132815098
186.457,233.989019149
186.472,233.844765341
186.487,233.700065646
186.502,233.554931967
186.517,233.409376131
186.532,233.263409888
186.547,233.11704491
186.562,232.97029279
186.577,232.823165039
186.592,232.675673089
186.607,232.527828286
186.622,232.379641891
186.637,232.231125082
186.652,232.082288945
186.667,231.933144483
186.682,231.783702605
186.697,231.633974133
186.71,231.503985932
186.712,231.483969799
186.727,231.333700238
186.742,231.183175997
186.757,231.032407524
186.772,230.88140518
186.787,230.730179223
186.802,230.578739822
186.817,230.427097044
186.832,230.275260861
186.847,230.12324115
186.862,229.971047686
186.877,229.81869015
186.892,229.666178118
186.907,229.513521072
186.922,229.360728394
186.937,229.207809364
186.952,229.054773165
186.967,228.901628874
186.982,228.748385476
186.997,228.595051849
187.012,228.441636773
187.027,228.288148926
187.042,228.134596888
187.057,227.980989135
187.072,227.827334043
187.087,227.673639891
187.102,227.519914851
187.117,227.366167
187.132,227.212404313
187.147,227.058634667
187.162,226.904865832
187.177,226.751105488
187.192,226.59736121
187.207,226.443640473
187.222,226.289950656
187.237,226.136299038
187.252,225.982692801
187.267,225.829139029
187.282,225.675644706
187.297,225.522216722
187.312,225.368861871
187.327,225.215586847
187.342,225.06239825
187.357,224.909302586
187.372,224.756306267
187.387,224.603415608
187.402,224.450636828
187.417,224.297976063
187.432,224.145439343
187.447,223.993032616
187.46,223.861056461
187.462,223.840761734
187.477,223.688632458
187.492,223.536650463
187.507,223.384821325
187.522,223.233150543
187.537,223.081643516
187.552,222.930305563
187.567,222.779141913
187.582,222.628157708
187.597,222.477358005
187.612,222.326747777
187.627,222.176331909
187.642,222.026115205
187.657,221.876102384
187.672,221.726298082
187.687,221.57670686
187.702,221.427333187
187.717,221.278181461
187.732,221.129255995
187.747,220.980561026
187.762,220.83210071
187.777,220.683879128
187.792,220.535900283
187.807,220.388168104
187.822,220.240686443
187.837,220.093459075
187.852,219.946489706
187.867,219.799781966
187.882,219.653339417
187.897,219.507165541
187.912,219.361263758
187.927,219.215637411
187.942,219.070289779
187.957,218.92522407
187.972,218.780443424
187.987,218.635950916
188.002,218.491749548
188.017,218.347842268
188.032,218.204231947
188.047,218.0609214
188.062,217.917913375
188.077,217.77521056
188.092,217.632815576
188.107,217.490730988
188.122,217.348959299
188.137,217.207502951
188.152,217.066364328
188.167,216.925545754
188.182,216.785049499
188.197,216.64487777
188.21,216.523659779
188.212,216.505032725
188.227,216.365516462
188.242,216.226331027
188.257,216.087478408
188.272,215.948960541
188.287,215.810779311
188.302,215.67293655
188.317,215.53543404
188.332,215.398273508
188.347,215.261456636
188.362,215.124985053
188.377,214.988860342
188.392,214.853084036
188.407,214.71765762
188.422,214.582582537
188.437,214.447860178
188.452,214.313491891
188.467,214.17947898
188.482,214.045822704
188.497,213.912524277
188.512,213.779584874
188.527,213.647005622
188.542,213.514787611
188.557,213.38293189
188.572,213.251439463
188.587,213.120311298
188.602,212.989548321
188.617,212.859151423
188.632,212.729121453
188.647,212.599459224
188.66,212.487383354
188.662,212.470165511
188.677,212.341241054
188.692,212.212686556
188.707,212.084502685
188.722,211.956690076
188.737,211.829249325
