# 10410 EDZE Essen Observations at 12Z 21 Nov 2019
Frequency [GHz],TB
175.31,255.415931728
175.322,255.46641539
175.337,255.529435355
175.352,255.592359571
175.367,255.655186168
175.382,255.71791326
175.397,255.78053895
175.412,255.843061327
175.427,255.905478467
175.442,255.967788433
175.457,256.029989274
175.472,256.092079026
175.487,256.154055712
175.502,256.215917341
175.517,256.277661909
175.532,256.339287399
175.547,256.400791781
175.562,256.462173009
175.577,256.523429029
175.592,256.584557767
175.607,256.645557141
175.622,256.706425052
175.637,256.767159392
175.652,256.827758033
175.667,256.888218841
175.682,256.948539664
175.697,257.008718338
175.712,257.068752685
175.727,257.128640515
175.742,257.188379623
175.757,257.247967793
175.772,257.307402794
175.787,257.366682383
175.802,257.425804303
175.817,257.484766282
175.832,257.543566039
175.847,257.602201277
175.862,257.660669687
175.877,257.718968946
175.892,257.777096717
175.907,257.835050655
175.922,257.892828395
175.937,257.950427567
175.952,258.007845779
175.967,258.065080634
175.982,258.122129719
175.997,258.178990609
176.012,258.235660865
176.027,258.292138036
176.042,258.348419661
176.057,258.404503262
176.072,258.460386353
176.087,258.516066432
176.102,258.571540987
176.117,258.626807495
176.132,258.681863416
176.147,258.736706203
176.162,258.791333295
176.177,258.845742119
176.192,258.899930091
176.207,258.953894614
176.222,259.00763308
176.237,259.061142871
176.252,259.114421355
176.267,259.167465891
176.282,259.220273825
176.297,259.272842493
176.31,259.318206399
176.312,259.325169221
176.327,259.37725132
176.342,259.429086095
176.357,259.48067084
176.372,259.532002833
176.387,259.58307935
176.402,259.633897649
176.417,259.684454983
176.432,259.734748593
176.447,259.78477571
176.46,259.827914835
176.462,259.834533556
176.477,259.884019344
176.492,259.933230276
176.507,259.982163546
176.522,260.030816339
176.537,260.07918583
176.552,260.127269185
176.567,260.175063564
176.582,260.222566116
176.597,260.269773983
176.612,260.316684299
176.627,260.363294189
176.642,260.409600772
176.657,260.455601157
176.672,260.50129245
176.687,260.546671745
176.702,260.591736132
176.717,260.636482694
176.732,260.680908507
176.747,260.725010641
176.762,260.76878616
176.777,260.812232122
176.792,260.855345579
176.807,260.898123579
176.822,260.940563165
176.837,260.982661372
176.852,261.024415234
176.867,261.065821778
176.882,261.106878029
176.897,261.147581007
176.912,261.187927729
176.927,261.227915207
176.942,261.267540451
176.957,261.306800469
176.972,261.345692266
176.987,261.384212842
177.002,261.4223592
177.017,261.460128338
177.032,261.497517253
177.047,261.534522941
177.062,261.571142397
177.077,261.607372616
177.092,261.643210593
177.107,261.678653322
177.122,261.713697798
177.137,261.748341017
177.152,261.782579976
177.167,261.816411674
177.182,261.849833108
177.197,261.882841283
177.21,261.91111177
177.212,261.915433201
177.227,261.947605871
177.242,261.979356301
177.257,262.010681506
177.272,262.041578502
177.287,262.072044311
177.302,262.102075959
177.31,262.117914288
177.317,262.131670475
177.332,262.160824896
177.347,262.189536263
177.362,262.217801624
177.377,262.245618031
177.392,262.272982544
177.407,262.299892232
177.422,262.326344168
177.437,262.352335436
177.452,262.377863124
177.467,262.402924334
177.482,262.427516174
177.497,262.45163576
177.512,262.475280221
177.527,262.498446693
177.542,262.521132326
177.557,262.543334278
177.572,262.56504972
177.587,262.586275835
177.602,262.607009816
177.617,262.627248873
177.632,262.646990223
177.647,262.666231103
177.66,262.682499578
177.662,262.684968759
177.677,262.703200453
177.692,262.720923463
177.707,262.738135079
177.722,262.75483261
177.737,262.77101338
177.752,262.786674726
177.767,262.801814008
177.782,262.816428598
177.797,262.830515889
177.812,262.84407329
177.827,262.857098229
177.842,262.869588154
177.857,262.881540531
177.872,262.892952847
177.887,262.903822609
177.902,262.914147344
177.917,262.923924601
177.932,262.933151949
177.947,262.941826979
177.96,262.948896731
177.962,262.949947307
177.977,262.95751057
177.992,262.964514426
178.007,262.970956561
178.022,262.97683468
178.037,262.982146517
178.052,262.986889828
178.067,262.991062395
178.082,262.994662024
178.097,262.99768655
178.112,263.000133832
178.127,263.002001756
178.142,263.003288236
178.157,263.003991212
178.172,263.004108654
178.187,263.003638559
178.202,263.002578951
178.217,263.000927886
178.232,262.998683447
178.247,262.995843748
178.262,262.992406931
178.277,262.98837117
178.292,262.983734671
178.307,262.978495667
178.322,262.972652424
178.337,262.966203242
178.352,262.95914645
178.367,262.951480409
178.382,262.943203514
178.397,262.934314192
178.41,262.926113537
178.412,262.924810903
178.427,262.914692141
178.442,262.903956431
178.457,262.892602334
178.472,262.880628446
178.487,262.868033393
178.502,262.854815839
178.517,262.840974483
178.532,262.826508056
178.547,262.811415324
178.562,262.795695093
178.577,262.779346196
178.592,262.76236751
178.607,262.744757944
178.622,262.72651644
178.637,262.707641981
178.652,262.688133582
178.667,262.667990295
178.682,262.647211211
178.697,262.625795454
178.712,262.603742185
178.727,262.581050603
178.742,262.55771994
178.757,262.533749468
178.772,262.509138495
178.787,262.483886362
178.802,262.457992451
178.817,262.431456179
178.832,262.404276998
178.847,262.376454397
178.862,262.347987902
178.877,262.318877075
178.892,262.289121514
178.907,262.258720854
178.922,262.227674765
178.937,262.195982952
178.952,262.163645159
178.967,262.130661161
178.982,262.097030773
178.997,262.062753842
179.012,262.027830252
179.027,261.992259922
179.042,261.956042804
179.057,261.919178887
179.072,261.881668191
179.087,261.843510774
179.102,261.804706726
179.117,261.76525617
179.132,261.725159262
179.147,261.684416193
179.16,261.648583033
179.162,261.643027187
179.177,261.600992497
179.192,261.558312412
179.207,261.514987251
179.222,261.471017366
179.237,261.426403138
179.252,261.381144982
179.267,261.335243339
179.282,261.288698687
179.297,261.241511527
179.312,261.193682394
179.327,261.145211852
179.342,261.09610049
179.357,261.04634893
179.372,260.995957821
179.387,260.944927838
179.402,260.893259685
179.417,260.840954092
179.432,260.788011816
179.447,260.734433641
179.462,260.680220376
179.477,260.625372856
179.492,260.56989194
179.507,260.513778514
179.522,260.457033486
179.537,260.39965779
179.552,260.341652381
179.567,260.283018241
179.582,260.223756372
179.597,260.1638678
179.612,260.103353574
179.627,260.042214762
179.642,259.980452457
179.657,259.918067772
179.672,259.855061841
179.687,259.79143582
179.702,259.727190884
179.717,259.662328229
179.732,259.596849071
179.747,259.530754647
179.762,259.464046212
179.777,259.396725042
179.792,259.328792431
179.807,259.260249693
179.822,259.191098161
179.837,259.121339187
179.852,259.050974143
179.867,258.980004417
179.882,258.90843142
179.897,258.836256577
179.91,258.773219339
179.912,258.763481337
179.927,258.690107163
179.942,258.616135542
179.957,258.541567975
179.972,258.466405987
179.987,258.390651119
180.002,258.314304933
180.017,258.23736901
180.032,258.159844953
180.047,258.081734384
180.062,258.003038945
180.077,257.9237603
180.092,257.843900134
180.107,257.763460155
180.122,257.682442092
180.137,257.600847696
180.152,257.518678745
180.167,257.435937037
180.182,257.352624395
180.197,257.268742669
180.212,257.184293734
180.227,257.09927949
180.242,257.013701866
180.257,256.927562818
180.272,256.840864331
180.287,256.75360842
180.302,256.66579713
180.317,256.577432536
180.332,256.488516749
180.347,256.399051908
180.362,256.309040191
180.377,256.21848381
180.392,256.127385011
180.407,256.03574608
180.422,255.943569341
180.437,255.850857157
180.452,255.757611932
180.467,255.663836112
180.482,255.569532188
180.497,255.474702693
180.512,255.379350206
180.527,255.283477355
180.542,255.187086814
180.557,255.090181309
180.56,255.070738655
180.572,254.992763614
180.587,254.894836557
180.602,254.79640302
180.617,254.697465938
180.632,254.598028305
180.647,254.49809317
180.66,254.411082698
180.662,254.397663642
180.677,254.296742891
180.692,254.195334146
180.707,254.093440702
180.722,253.991065916
180.737,253.888213212
180.752,253.784886079
180.767,253.681088075
180.782,253.576822828
180.797,253.472094035
180.812,253.366905466
180.827,253.261260961
180.842,253.155164436
180.857,253.048619883
180.872,252.941631365
180.887,252.834203028
180.902,252.72633909
180.917,252.618043851
180.932,252.50932169
180.947,252.400177064
180.962,252.290614511
180.977,252.180638653
180.992,252.07025419
181.007,251.959465906
181.022,251.848278668
181.037,251.736697424
181.052,251.624727207
181.067,251.512373132
181.082,251.399640395
181.097,251.286534279
181.112,251.173060146
181.127,251.059223443
181.142,250.945029698
181.157,250.830484519
181.172,250.715593599
181.187,250.600362707
181.202,250.484797693
181.217,250.368904486
181.232,250.252689092
181.247,250.136157592
181.262,250.019316145
181.277,249.90217098
181.292,249.784728402
181.307,249.666994783
181.31,249.6434137
181.322,249.548976565
181.337,249.430680259
181.352,249.312112439
181.367,249.193279743
181.382,249.074188869
181.397,248.954846576
181.412,248.835259679
181.427,248.715435045
181.442,248.595379596
181.457,248.475100303
181.472,248.354604181
181.487,248.233898294
181.502,248.112989744
181.517,247.991885672
181.532,247.870593259
181.547,247.749119716
181.562,247.627472287
181.577,247.505658243
181.592,247.383684882
181.607,247.261559525
181.622,247.139289512
181.637,247.016882204
181.652,246.894344976
181.667,246.771685216
181.682,246.648910326
181.697,246.526027715
181.712,246.403044801
181.727,246.279969009
181.742,246.156807767
181.757,246.033568508
181.772,245.910258667
181.787,245.786885682
181.802,245.663456993
181.817,245.539980042
181.832,245.416462273
181.847,245.292911134
181.862,245.169334077
181.877,245.045738561
181.892,244.922132053
181.907,244.798522031
181.922,244.674915987
181.937,244.551321432
181.952,244.427745899
181.967,244.304196949
181.982,244.180682173
181.997,244.057209204
182.012,243.93378572
182.027,243.810419454
182.042,243.687118199
182.057,243.563889821
182.06,243.539253588
182.072,243.440742265
182.087,243.317683569
182.102,243.194721876
182.117,243.071865442
182.132,242.949122652
182.147,242.826502036
182.162,242.70401228
182.177,242.581662243
182.192,242.459460975
182.207,242.337417733
182.222,242.215541999
182.237,242.093843498
182.252,241.972332222
182.267,241.851018444
182.282,241.729912745
182.297,241.609026031
182.312,241.488369558
182.327,241.367954951
182.342,241.247794232
182.357,241.127899839
182.372,241.008284649
182.387,240.888962003
182.402,240.769945728
182.417,240.651250155
182.432,240.532890147
182.447,240.414881112
182.462,240.297239026
182.477,240.179980447
182.492,240.063122531
182.507,239.94668304
182.522,239.830680356
182.537,239.715133478
182.552,239.600062023
182.567,239.485486221
182.582,239.3714269
182.597,239.257905462
182.612,239.144943856
182.627,239.032564532
182.642,238.920790391
182.657,238.809644709
182.672,238.69915106
182.687,238.5893332
182.702,238.480214948
182.717,238.371820021
182.732,238.264171857
182.747,238.157293381
182.762,238.05120675
182.777,237.945933029
182.792,237.841491821
182.807,237.737900819
182.822,237.63517528
182.837,237.533327399
182.852,237.432365557
182.867,237.332293432
182.882,237.23310893
182.897,237.134802893
182.912,237.037357546
182.927,236.940744597
182.942,236.844922915
182.957,236.749835663
182.972,236.655406728
182.987,236.561536236
183.002,236.468094863
183.017,236.37491653
183.032,236.281788927
183.047,236.188441043
183.062,236.094526535
183.077,235.999601202
183.092,235.903091963
183.107,235.804253362
183.122,235.702105343
183.137,235.595342288
183.152,235.482196831
183.167,235.360230576
183.182,235.226003362
183.197,235.074535127
183.212,234.898405624
183.227,234.686218112
183.242,234.419998027
183.257,234.071244442
183.367,234.155802303
183.382,234.476961025
183.397,234.724063105
183.412,234.922517899
183.427,235.088308069
183.442,235.231625945
183.457,235.359158335
183.472,235.475426871
183.487,235.58357629
183.502,235.685848789
183.517,235.783877712
183.532,235.878874751
183.547,235.971752593
183.562,236.063207342
183.577,236.153775236
183.592,236.243872491
183.607,236.333823857
183.622,236.42388344
183.637,236.514250145
183.652,236.605079284
183.667,236.696491443
183.682,236.788579325
183.697,236.881413104
183.712,236.975044652
183.727,237.069510915
183.742,237.164836628
183.757,237.261036525
183.772,237.358117136
183.787,237.45607828
183.802,237.554914285
183.817,237.654615019
183.832,237.755166739
183.847,237.856552808
183.862,237.958754299
183.877,238.061750498
183.892,238.165519333
183.907,238.270037737
183.922,238.375281947
183.937,238.481227761
183.952,238.587850756
183.967,238.695126461
183.982,238.803030515
183.997,238.911538783
184.012,239.020627465
184.027,239.130273173
184.042,239.240453
184.057,239.351144572
184.072,239.462326091
184.087,239.573976358
184.102,239.686074799
184.117,239.798601479
184.132,239.911537103
184.147,240.024863021
184.162,240.138561223
184.177,240.252614331
184.192,240.367005588
184.207,240.481718844
184.222,240.596738539
184.237,240.712049684
184.252,240.827637846
184.267,240.943489121
184.282,241.059590117
184.297,241.17592793
184.312,241.29249012
184.327,241.409264693
184.342,241.526240074
184.357,241.643405085
184.372,241.760748926
184.387,241.878261148
184.402,241.995931637
184.417,242.113750589
184.432,242.231708492
184.447,242.349796105
184.462,242.46800444
184.477,242.586324742
184.492,242.704748476
184.507,242.823267304
184.522,242.941873075
184.537,243.060557806
184.552,243.179313669
184.56,243.242676554
184.567,243.298132976
184.582,243.417008171
184.597,243.535931811
184.612,243.654896561
184.627,243.77389518
184.642,243.892920511
184.657,244.011965475
184.672,244.131023061
184.687,244.250086317
184.702,244.369148346
184.717,244.488202296
184.732,244.607241358
184.747,244.726258758
184.762,244.845247756
184.777,244.964201637
184.792,245.08311371
184.807,245.201977308
184.822,245.32078578
184.837,245.439532492
184.852,245.558210826
184.867,245.676814175
184.882,245.795335948
184.897,245.913769562
184.912,246.032108448
184.927,246.150346048
184.942,246.268475818
184.957,246.386491222
184.972,246.504385741
184.987,246.62215287
185.002,246.739786118
185.017,246.85727901
185.032,246.974625092
185.047,247.091817928
185.062,247.208851104
185.077,247.32571823
185.092,247.44241294
185.107,247.558928898
185.122,247.675259795
185.137,247.791399355
185.152,247.907341335
185.167,248.02307953
185.182,248.138607769
185.197,248.253919927
185.212,248.369009916
185.227,248.483871696
185.242,248.598499273
185.257,248.712886702
185.272,248.827028089
185.287,248.940917592
185.302,249.054549424
185.31,249.115045729
185.317,249.167917857
185.332,249.28101722
185.347,249.3938419
185.362,249.50638635
185.377,249.618645085
185.392,249.730612684
185.407,249.842283794
185.422,249.95365313
185.437,250.064715475
185.452,250.175465683
185.467,250.285898681
185.482,250.396009465
185.497,250.505793108
185.512,250.615244754
185.527,250.724359625
185.542,250.833133017
185.557,250.941560302
185.572,251.04963693
185.587,251.157358426
185.602,251.264720393
185.617,251.371718514
185.632,251.478348546
185.647,251.584606326
185.662,251.690487769
185.677,251.795988866
185.692,251.901105688
185.707,252.005834381
185.722,252.110171169
185.737,252.214112353
185.752,252.31765431
185.767,252.420793492
185.782,252.523526427
185.797,252.625849718
185.812,252.727760041
185.827,252.829254147
185.842,252.930328857
185.857,253.030981066
185.872,253.131207738
185.887,253.231005909
185.902,253.330372683
185.917,253.429305233
185.932,253.527800798
185.947,253.625856685
185.96,253.710480769
185.962,253.723470264
185.977,253.820638971
185.992,253.917360305
186.007,254.013631827
186.022,254.109451157
186.037,254.204815977
186.052,254.299724028
186.06,254.350154124
186.067,254.394173106
186.082,254.488161066
186.097,254.581685817
186.112,254.674745323
186.127,254.7673376
186.142,254.859460716
186.157,254.951112788
186.172,255.042291987
186.187,255.132996528
186.202,255.223224675
186.217,255.312974737
186.232,255.40224507
186.247,255.491034072
186.262,255.579340184
186.277,255.667161889
186.292,255.75449771
186.307,255.841346211
186.322,255.927705993
186.337,256.013575694
186.352,256.098953991
186.367,256.183839594
186.382,256.268231248
186.397,256.352127733
186.412,256.435527859
186.427,256.518430471
186.442,256.600834443
186.457,256.682738678
186.472,256.764142111
186.487,256.845043703
186.502,256.925442444
186.517,257.00533735
186.532,257.084727463
186.547,257.163611853
186.562,257.24198961
186.577,257.319859853
186.592,257.397221721
186.607,257.474074378
186.622,257.550417009
186.637,257.626248821
186.652,257.701569043
186.667,257.776376924
186.682,257.850671733
186.697,257.924452759
186.71,257.987980186
186.712,257.99771931
186.727,258.070470714
186.742,258.142706317
186.757,258.214425483
186.772,258.285627593
186.787,258.356312048
186.802,258.426478263
186.817,258.496125672
186.832,258.565253726
186.847,258.633861891
186.862,258.70194965
186.877,258.769516503
186.892,258.836561965
186.907,258.903085565
186.922,258.969086852
186.937,259.034565385
186.952,259.099520743
186.967,259.163952518
186.982,259.227860319
186.997,259.291243768
187.012,259.354102503
187.027,259.416436177
187.042,259.47824446
187.057,259.539527034
187.072,259.600283599
187.087,259.660513868
187.102,259.72021757
187.117,259.77939445
187.132,259.838044267
187.147,259.896166797
187.162,259.953761831
187.177,260.010829174
187.192,260.067368648
187.207,260.123380091
187.222,260.178863357
187.237,260.233818314
187.252,260.288244851
187.267,260.342142866
187.282,260.39551228
187.297,260.448353027
187.312,260.500665059
187.327,260.552448344
187.342,260.603702868
187.357,260.654428633
187.372,260.704625659
187.387,260.754293984
187.402,260.803433663
187.417,260.852044769
187.432,260.900127391
187.447,260.947681639
187.46,260.988468023
187.462,260.99470764
187.477,261.04120554
187.492,261.087175502
187.507,261.13261771
187.522,261.177532366
187.537,261.221919689
187.552,261.26577992
187.567,261.309113319
187.582,261.351920163
187.597,261.394200753
187.612,261.435955405
187.627,261.477184459
187.642,261.517888272
187.657,261.558067223
187.672,261.59772171
187.687,261.636852154
187.702,261.675458993
187.717,261.713542688
187.732,261.751103721
187.747,261.788142592
187.762,261.824659826
187.777,261.860655966
187.792,261.896131577
187.807,261.931087246
187.822,261.965523581
187.837,261.99944121
187.852,262.032840784
187.867,262.065722974
187.882,262.098088475
187.897,262.129938001
187.912,262.161272289
187.927,262.192092097
187.942,262.222398204
187.957,262.252191412
187.972,262.281472545
187.987,262.310242447
188.002,262.338501985
188.017,262.366252046
188.032,262.393493541
188.047,262.420227402
188.062,262.44645458
188.077,262.472176051
188.092,262.497392812
188.107,262.522105878
188.122,262.54631629
188.137,262.570025108
188.152,262.593233414
188.167,262.615942309
188.182,262.63815292
188.197,262.65986639
188.21,262.6782835
188.212,262.681083886
188.227,262.701806594
188.242,262.722035722
188.257,262.7417725
188.272,262.761018175
188.287,262.779774017
188.302,262.798041315
188.317,262.81582138
188.332,262.833115541
188.347,262.849925149
188.362,262.866251572
188.377,262.8820962
188.392,262.897460441
188.407,262.912345724
188.422,262.926753495
188.437,262.94068522
188.452,262.954142385
188.467,262.967126492
188.482,262.979639063
188.497,262.991681638
188.512,263.003255776
188.527,263.014363052
188.542,263.02500506
188.557,263.035183412
188.572,263.044899734
188.587,263.054155674
188.602,263.062952893
188.617,263.071293069
188.632,263.079177899
188.647,263.086609094
188.66,263.092683857
188.662,263.09358838
188.677,263.100117503
188.692,263.106198219
188.707,263.111832303
188.722,263.117021544
188.737,263.121767747
188.752,263.126072728
