# 01004 ENAS Ny-Alesund Ii Observations at 12Z 21 Jun 2019
Frequency [GHz],TB
175.31,264.771241892
175.322,264.779494662
175.337,264.789634217
175.352,264.799576989
175.367,264.809322145
175.382,264.81886888
175.397,264.828216362
175.412,264.83736379
175.427,264.84631035
175.442,264.855055242
175.457,264.86359766
175.472,264.871936807
175.487,264.880071895
175.502,264.88800213
175.517,264.895726738
175.532,264.903244927
175.547,264.910555935
175.562,264.917658978
175.577,264.924553305
175.592,264.931238146
175.607,264.937712745
175.622,264.943976361
175.637,264.950028236
175.652,264.955867641
175.667,264.961493828
175.682,264.966906085
175.697,264.972103673
175.712,264.977085883
175.727,264.981851993
175.742,264.986401308
175.757,264.990733116
175.772,264.994846732
175.787,264.99874146
175.802,265.002416621
175.817,265.005871534
175.832,265.009105531
175.847,265.01211795
175.862,265.014908132
175.877,265.017475431
175.892,265.019819196
175.907,265.021938799
175.922,265.023833593
175.937,265.025502977
175.952,265.026946318
175.967,265.028163013
175.982,265.029152463
175.997,265.029914073
176.012,265.030447253
176.027,265.030751423
176.042,265.030826015
176.057,265.030670469
176.072,265.030284217
176.087,265.029666726
176.102,265.028817441
176.117,265.02773584
176.132,265.026421393
176.147,265.024873591
176.162,265.023091919
176.177,265.021075883
176.192,265.018824992
176.207,265.016338762
176.222,265.013616715
176.237,265.010658399
176.252,265.007463348
176.267,265.004031118
176.282,265.000361274
176.297,264.996453379
176.31,264.992873664
176.312,264.992307022
176.327,264.987921787
176.342,264.983297273
176.357,264.978433088
176.372,264.973328849
176.387,264.967984186
176.402,264.962398727
176.417,264.956572126
176.432,264.950504035
176.447,264.944194118
176.46,264.93852966
176.462,264.937642048
176.477,264.930847512
176.492,264.923810206
176.507,264.916529829
176.522,264.9090061
176.537,264.901238738
176.552,264.893227485
176.567,264.884972073
176.582,264.876472273
176.597,264.86772783
176.612,264.858738531
176.627,264.84950416
176.642,264.84002451
176.657,264.830299387
176.672,264.820328611
176.687,264.810112
176.702,264.799649391
176.717,264.788940639
176.732,264.777985596
176.747,264.766784131
176.762,264.755336118
176.777,264.743641455
176.792,264.731700037
176.807,264.719511767
176.822,264.707076573
176.837,264.694394383
176.852,264.68146514
176.867,264.668288794
176.882,264.65486531
176.897,264.641194657
176.912,264.627276817
176.927,264.613111785
176.942,264.598699571
176.957,264.58404018
176.972,264.569133639
176.987,264.553979985
177.002,264.538579262
177.017,264.522931533
177.032,264.50703685
177.047,264.4908953
177.062,264.474506963
177.077,264.457871936
177.092,264.440990327
177.107,264.423862253
177.122,264.406487834
177.137,264.388867211
177.152,264.371000533
177.167,264.352887947
177.182,264.334529621
177.197,264.315925731
177.21,264.299603869
177.212,264.297076461
177.227,264.277982002
177.242,264.258642558
177.257,264.239058341
177.272,264.219229575
177.287,264.199156482
177.302,264.178839304
177.31,264.16790376
177.317,264.158278293
177.332,264.137473696
177.347,264.116425784
177.362,264.095134829
177.377,264.073601109
177.392,264.05182492
177.407,264.029806559
177.422,264.007546322
177.437,263.985044527
177.452,263.962301496
177.467,263.939317552
177.482,263.91609304
177.497,263.892628293
177.512,263.868923666
177.527,263.84497951
177.542,263.820796187
177.557,263.796374074
177.572,263.771713538
177.587,263.746814968
177.602,263.721678737
177.617,263.696305255
177.632,263.670694904
177.647,263.644848103
177.66,263.622256588
177.662,263.618765254
177.677,263.592446765
177.692,263.565893061
177.707,263.539104558
177.722,263.512081695
177.737,263.48482489
177.752,263.45733458
177.767,263.429611207
177.782,263.401655211
177.797,263.373467031
177.812,263.345047122
177.827,263.316395932
177.842,263.287513906
177.857,263.258401505
177.872,263.229059182
177.887,263.199487394
177.902,263.169686604
177.917,263.139657269
177.932,263.109399845
177.947,263.078914794
177.96,263.052310652
177.962,263.048202585
177.977,263.017263666
177.992,262.986098511
178.007,262.954707567
178.022,262.923091305
178.037,262.891250169
178.052,262.859184629
178.067,262.826895132
178.082,262.794382133
178.097,262.761646074
178.112,262.728687412
178.127,262.695506586
178.142,262.662104037
178.157,262.628480202
178.172,262.594635514
178.187,262.560570402
178.202,262.526285295
178.217,262.491780603
178.232,262.457056747
178.247,262.422114136
178.262,262.386953165
178.277,262.351574239
178.292,262.315977749
178.307,262.280164069
178.322,262.244133589
178.337,262.207886665
178.352,262.171423666
178.367,262.134744938
178.382,262.097850835
178.397,262.060741688
178.41,262.028406731
178.412,262.023417821
178.427,261.985879558
178.442,261.948127203
178.457,261.910161054
178.472,261.8719814
178.487,261.833588521
178.502,261.794982678
178.517,261.756164129
178.532,261.717133117
178.547,261.677889874
178.562,261.638434617
178.577,261.598767554
178.592,261.558888882
178.607,261.518798777
178.622,261.478497413
178.637,261.437984937
178.652,261.397261495
178.667,261.356327209
178.682,261.315182189
178.697,261.273826537
178.712,261.232260329
178.727,261.19048363
178.742,261.148496493
178.757,261.106298948
178.772,261.063891016
178.787,261.021272701
178.802,260.978443985
178.817,260.935404828
178.832,260.892155192
178.847,260.848695001
178.862,260.805024172
178.877,260.761142602
178.892,260.717050164
178.907,260.672746728
178.922,260.628232129
178.937,260.583506185
178.952,260.538568707
178.967,260.493419472
178.982,260.448058245
178.997,260.40248477
179.012,260.35669877
179.027,260.310699952
179.042,260.264487996
179.057,260.218062558
179.072,260.171423293
179.087,260.124569811
179.102,260.077501714
179.117,260.030218582
179.132,259.982719966
179.147,259.935005417
179.16,259.893477748
179.162,259.887074423
179.177,259.838926492
179.192,259.790561091
179.207,259.741977667
179.222,259.693175639
179.237,259.64415441
179.252,259.594913367
179.267,259.545451863
179.282,259.495769234
179.297,259.445864784
179.312,259.395737812
179.327,259.345387575
179.342,259.294813324
179.357,259.244014271
179.372,259.192989611
179.387,259.141738527
179.402,259.090260159
179.417,259.038553638
179.432,258.986618064
179.447,258.934452515
179.462,258.882056054
179.477,258.829427709
179.492,258.776566492
179.507,258.723471378
179.522,258.670141345
179.537,258.616575322
179.552,258.562772225
179.567,258.508730949
179.582,258.454450361
179.597,258.399929301
179.612,258.345166596
179.627,258.290161042
179.642,258.234911413
179.657,258.179416466
179.672,258.123674919
179.687,258.067685493
179.702,258.011446854
179.717,257.95495767
179.732,257.898216582
179.747,257.841222187
179.762,257.783973092
179.777,257.726467859
179.792,257.668705033
179.807,257.61068314
179.822,257.552400676
179.837,257.493856126
179.852,257.435047937
179.867,257.375974559
179.882,257.316634389
179.897,257.257025825
179.91,257.205146706
179.912,257.197147234
179.927,257.136996966
179.942,257.076573355
179.957,257.015874692
179.972,256.954899273
179.987,256.893645356
180.002,256.832111186
180.017,256.770294988
180.032,256.708194963
180.047,256.645809294
180.062,256.583136142
180.077,256.520173655
180.092,256.456919949
180.107,256.393373135
180.122,256.329531295
180.137,256.265392501
180.152,256.200954793
180.167,256.13621621
180.182,256.071174755
180.197,256.005828431
180.212,255.940175202
180.227,255.874213038
180.242,255.807939878
180.257,255.74135365
180.272,255.674452262
180.287,255.607233598
180.302,255.539695549
180.317,255.471835969
180.332,255.403652702
180.347,255.335143591
180.362,255.266306439
180.377,255.197139061
180.392,255.127639241
180.407,255.057804755
180.422,254.987633362
180.437,254.917122822
180.452,254.846270864
180.467,254.775075223
180.482,254.703533612
180.497,254.631643727
180.512,254.559403276
180.527,254.486809933
180.542,254.413861379
180.557,254.34055528
180.56,254.325850947
180.572,254.266889289
180.587,254.192861059
180.602,254.118468233
180.617,254.043708454
180.632,253.968579341
180.647,253.89307853
180.66,253.827341985
180.662,253.817203636
180.677,253.740952273
180.692,253.664322062
180.707,253.587310611
180.722,253.509915534
180.737,253.432134433
180.752,253.353964923
180.767,253.275404607
180.782,253.196451096
180.797,253.117102015
180.812,253.037354964
180.827,252.95720758
180.842,252.876657483
180.857,252.795702308
180.872,252.714339697
180.887,252.632567302
180.902,252.550382781
180.917,252.467783808
180.932,252.384768065
180.947,252.301333256
180.962,252.217477091
180.977,252.1331973
180.992,252.048491631
181.007,251.963357856
181.022,251.877793761
181.037,251.791797167
181.052,251.705365904
181.067,251.618497843
181.082,251.531190871
181.097,251.443442919
181.112,251.355251935
181.127,251.266615918
181.142,251.177532896
181.157,251.088000931
181.172,250.998018132
181.187,250.907582659
181.202,250.816692704
181.217,250.725346522
181.232,250.63354241
181.247,250.541278724
181.262,250.448553881
181.277,250.355366349
181.292,250.261714675
181.307,250.167597462
181.31,250.148718034
181.322,250.073013383
181.337,249.977961199
181.352,249.882439742
181.367,249.786447922
181.382,249.689984743
181.397,249.593049288
181.412,249.495640751
181.427,249.397758423
181.442,249.299401689
181.457,249.200570047
181.472,249.101263126
181.487,249.001480643
181.502,248.901222474
181.517,248.800488606
181.532,248.69927917
181.547,248.597594448
181.562,248.495434852
181.577,248.392800969
181.592,248.289693545
181.607,248.186113494
181.622,248.082061911
181.637,247.977540079
181.652,247.87254947
181.667,247.767091765
181.682,247.661168861
181.697,247.554782854
181.712,247.447936104
181.727,247.340631186
181.742,247.232870924
181.757,247.124658423
181.772,247.015997041
181.787,246.906890433
181.802,246.797342532
181.817,246.687357601
181.832,246.5769402
181.847,246.46609524
181.862,246.35482797
181.877,246.243143993
181.892,246.131049313
181.907,246.018550296
181.922,245.905653729
181.937,245.792366823
181.952,245.67869722
181.967,245.56465303
181.982,245.450242831
181.997,245.335475698
182.012,245.220361222
182.027,245.104909521
182.042,244.989131276
182.057,244.873037738
182.06,244.849782229
182.072,244.756640756
182.087,244.639952808
182.102,244.522987008
182.117,244.405757137
182.132,244.288277678
182.147,244.170563832
182.162,244.052631544
182.177,243.934497532
182.192,243.816179322
182.207,243.697695261
182.222,243.57906456
182.237,243.460307333
182.252,243.341444593
182.267,243.222498328
182.282,243.103491495
182.297,242.984448075
182.312,242.86539311
182.327,242.746352713
182.342,242.627354133
182.357,242.508425762
182.372,242.389597202
182.387,242.270899254
182.402,242.152364005
182.417,242.034024826
182.432,241.915916438
182.447,241.798074916
182.462,241.680537745
182.477,241.563343849
182.492,241.446533633
182.507,241.330149
182.522,241.214233395
182.537,241.098831828
182.552,240.983990915
182.567,240.8697589
182.582,240.75618567
182.597,240.643322802
182.612,240.531223555
182.627,240.419942919
182.642,240.309537608
182.657,240.200066086
182.672,240.091588568
182.687,239.984167038
182.702,239.87786524
182.717,239.77274869
182.732,239.668884664
182.747,239.566342207
182.762,239.465192114
182.777,239.365506927
182.792,239.267360936
182.807,239.170830177
182.822,239.075992417
182.837,238.982927191
182.852,238.891715823
182.867,238.802441453
182.882,238.715189152
182.897,238.630045997
182.912,238.547101282
182.927,238.466446761
182.942,238.388177006
182.957,238.312389925
182.972,238.239187486
182.987,238.16867671
183.002,238.100971105
183.017,238.036192597
183.032,237.974474362
183.047,237.915964748
183.062,237.860833002
183.077,237.809277517
183.092,237.761538101
183.107,237.717914382
183.122,237.678794089
183.137,237.644697483
183.152,237.616349006
183.167,237.594796246
183.182,237.581613636
183.197,237.579262904
183.212,237.591751198
183.227,237.62585967
183.242,237.693418676
183.257,237.815059026
183.367,237.766805297
183.382,237.657986715
183.397,237.596968581
183.412,237.565773359
183.427,237.5541422
183.442,237.556155427
183.457,237.568280183
183.472,237.588323046
183.487,237.614866478
183.502,237.646957662
183.517,237.683931161
183.532,237.725304483
183.547,237.770714661
183.562,237.819878653
183.577,237.872567987
183.592,237.928592157
183.607,237.987787501
183.622,238.05000967
183.637,238.115128441
183.652,238.183024066
183.667,238.253584719
183.682,238.326704682
183.697,238.402283034
183.712,238.480222746
183.727,238.560429981
183.742,238.642813658
183.757,238.727285085
183.772,238.813757758
183.787,238.90214715
183.802,238.992370663
183.817,239.084347503
183.832,239.177998673
183.847,239.27324694
183.862,239.370016813
183.877,239.468234548
183.892,239.567828162
183.907,239.668727417
183.922,239.770863841
183.937,239.874170729
183.952,239.978583138
183.967,240.0840379
183.982,240.190473621
183.997,240.297830659
184.012,240.406051129
184.027,240.515078894
184.042,240.624859545
184.057,240.735340382
184.072,240.846470405
184.087,240.958200279
184.102,241.070482309
184.117,241.18327044
184.132,241.296520181
184.147,241.410188621
184.162,241.524234384
184.177,241.63861757
184.192,241.753299754
184.207,241.86824394
184.222,241.983414529
184.237,242.098777275
184.252,242.214299262
184.267,242.329948852
184.282,242.44569566
184.297,242.561510528
184.312,242.677365469
184.327,242.793233631
184.342,242.909089296
184.357,243.024907798
184.372,243.140665517
184.387,243.25633985
184.402,243.371909164
184.417,243.48735276
184.432,243.602650864
184.447,243.717784568
184.462,243.832735823
184.477,243.947487403
184.492,244.062022852
184.507,244.176326506
184.522,244.290383418
184.537,244.404179364
184.552,244.517700796
184.56,244.578128836
184.567,244.630934821
184.582,244.743869197
184.597,244.856492278
184.612,244.968793017
184.627,245.080760933
184.642,245.192386086
184.657,245.303659063
184.672,245.414570959
184.687,245.525113359
184.702,245.635278309
184.717,245.745058305
184.732,245.85444628
184.747,245.963435578
184.762,246.072019951
184.777,246.180193522
184.792,246.287950786
184.807,246.395286607
184.822,246.502196174
184.837,246.608675006
184.852,246.714718943
184.867,246.820324112
184.882,246.925486947
184.897,247.030204148
184.912,247.134472684
184.927,247.23828978
184.942,247.341652909
184.957,247.444559775
184.972,247.547008307
184.987,247.648996655
185.002,247.750523176
185.017,247.851586416
185.032,247.95218513
185.047,248.052318233
185.062,248.151984832
185.077,248.251184193
185.092,248.349915747
185.107,248.44817907
185.122,248.545973899
185.137,248.643300088
185.152,248.740157655
185.167,248.83654672
185.182,248.93246754
185.197,249.027920488
185.212,249.12290604
185.227,249.21742479
185.242,249.311477424
185.257,249.405064735
185.272,249.498187602
185.287,249.590847001
185.302,249.683043972
185.31,249.732027004
185.317,249.774779661
185.332,249.866055274
185.347,249.956872093
185.362,250.047231475
185.377,250.137134836
185.392,250.226583653
185.407,250.315579471
185.422,250.404123886
185.437,250.492218545
185.452,250.579865148
185.467,250.667065444
185.482,250.753821225
185.497,250.840134333
185.512,250.926006638
185.527,251.011440055
185.542,251.096436532
185.557,251.180998057
185.572,251.265126638
185.587,251.34882433
185.602,251.432093196
185.617,251.514935339
185.632,251.597352881
185.647,251.679347966
185.662,251.760922759
185.677,251.842079443
185.692,251.922820226
185.707,252.003147325
185.722,252.083062966
185.737,252.16256941
185.752,252.241668912
185.767,252.320363738
185.782,252.398656171
185.797,252.476548506
185.812,252.554043032
185.827,252.631142061
185.842,252.707847899
185.857,252.784162859
185.872,252.860089262
185.887,252.935629437
185.902,253.010785691
185.917,253.085560357
185.932,253.159955765
185.947,253.233974233
185.96,253.297820472
185.962,253.307618088
185.977,253.380889651
185.992,253.453791242
186.007,253.526325173
186.022,253.598493764
186.037,253.67029932
186.052,253.741744145
186.06,253.779701346
186.067,253.812830539
186.082,253.883560794
186.097,253.953937193
186.112,254.023962019
186.127,254.09363754
186.142,254.16296602
186.157,254.231949721
186.172,254.300590884
186.187,254.368891746
186.202,254.436854541
186.217,254.504481482
186.232,254.571774781
186.247,254.638736632
186.262,254.705369226
186.277,254.771674734
186.292,254.837655324
186.307,254.903313147
186.322,254.968650345
186.337,255.033669044
186.352,255.098371363
186.367,255.162759398
186.382,255.226835241
186.397,255.290600973
186.412,255.354058653
186.427,255.417210331
186.442,255.48005804
186.457,255.542603802
186.472,255.604849626
186.487,255.666797499
186.502,255.728449405
186.517,255.789807301
186.532,255.850873136
186.547,255.911648844
186.562,255.972136342
186.577,256.032337527
186.592,256.092254292
186.607,256.151888504
186.622,256.211242016
186.637,256.270316666
186.652,256.329114278
186.667,256.387636662
186.682,256.445885606
186.697,256.50386288
186.71,256.55389146
186.712,256.561570241
186.727,256.619009433
186.742,256.676182182
186.757,256.733090192
186.772,256.789735155
186.787,256.846118742
186.802,256.90224261
186.817,256.958108396
186.832,257.013717731
186.847,257.069072214
186.862,257.124173435
186.877,257.179022964
186.892,257.233622356
186.907,257.287973146
186.922,257.342076856
186.937,257.395934983
186.952,257.449549019
186.967,257.502920423
186.982,257.556050645
186.997,257.608941119
187.012,257.661593264
187.027,257.71400847
187.042,257.766188115
187.057,257.81813357
187.072,257.86984617
187.087,257.921327247
187.102,257.972578106
187.117,258.023600045
187.132,258.07439433
187.147,258.124962226
187.162,258.175304966
187.177,258.225423771
187.192,258.275319856
187.207,258.324994391
187.222,258.37444856
187.237,258.423683502
187.252,258.472700359
187.267,258.521500252
187.282,258.570084272
187.297,258.61845351
187.312,258.666609028
187.327,258.714551875
187.342,258.762283079
187.357,258.809803661
187.372,258.857114612
187.387,258.904216919
187.402,258.951111538
187.417,258.997799425
187.432,259.044281504
187.447,259.09055869
187.46,259.130500541
187.462,259.136631882
187.477,259.182501955
187.492,259.228169784
187.507,259.273636207
187.522,259.318902064
187.537,259.36396816
187.552,259.408835306
187.567,259.45350428
187.582,259.497975849
187.597,259.542250775
187.612,259.586329778
187.627,259.630213592
187.642,259.673902923
187.657,259.717398455
187.672,259.76070087
187.687,259.803810822
187.702,259.846728961
187.717,259.889455915
187.732,259.931992306
187.747,259.974338728
187.762,260.016495772
187.777,260.058464011
187.792,260.100244005
187.807,260.141836298
187.822,260.183241422
187.837,260.224459891
187.852,260.26549221
187.867,260.306338874
187.882,260.347000355
187.897,260.387477123
187.912,260.42776962
187.927,260.467878296
187.942,260.507803569
187.957,260.547545855
187.972,260.587105555
187.987,260.626483057
188.002,260.665678741
188.017,260.704692972
188.032,260.7435261
188.047,260.782178473
188.062,260.820650413
188.077,260.858942249
188.092,260.897054291
188.107,260.934986829
188.122,260.972740157
188.137,261.010314548
188.152,261.047710273
188.167,261.084927591
188.182,261.121966741
188.197,261.158827967
188.21,261.190630624
188.212,261.195511499
188.227,261.232017553
188.242,261.268346337
188.257,261.304498054
188.272,261.340472899
188.287,261.376271047
188.302,261.411892683
188.317,261.44733797
188.332,261.482607062
188.347,261.517700117
188.362,261.552617276
188.377,261.58735868
188.392,261.621924452
188.407,261.656314713
188.422,261.690529586
188.437,261.724569173
188.452,261.758433578
188.467,261.792122895
188.482,261.825637219
188.497,261.858976623
188.512,261.8921412
188.527,261.925131007
188.542,261.957946125
188.557,261.990586605
188.572,262.023052507
188.587,262.055343885
188.602,262.087460792
188.617,262.119403255
188.632,262.15117133
188.647,262.182765041
188.66,262.210005243
188.662,262.214184419
188.677,262.245429499
188.692,262.276500296
188.707,262.307396836
188.722,262.338119132
188.737,262.368667202
