# 78954 TBPB Grantley Adams Observations at 12Z 21 Jun 2019
Frequency [GHz],TB
175.31,279.839358399
175.322,279.818951257
175.337,279.793372435
175.352,279.767715745
175.367,279.741980961
175.382,279.716167855
175.397,279.6902762
175.412,279.664305764
175.427,279.638256315
175.442,279.612127619
175.457,279.585919441
175.472,279.559631543
175.487,279.533263688
175.502,279.506815633
175.517,279.480287138
175.532,279.453677957
175.547,279.426987845
175.562,279.400216555
175.577,279.373363837
175.592,279.34642944
175.607,279.319413112
175.622,279.292314597
175.637,279.265133639
175.652,279.237869981
175.667,279.210523361
175.682,279.183093518
175.697,279.155580189
175.712,279.127983107
175.727,279.100302005
175.742,279.072536614
175.757,279.044686663
175.772,279.016751878
175.787,278.988731984
175.802,278.960626705
175.817,278.932435761
175.832,278.904158871
175.847,278.875795753
175.862,278.847346122
175.877,278.818809691
175.892,278.790186172
175.907,278.761475274
175.922,278.732676704
175.937,278.703790168
175.952,278.674815368
175.967,278.645752007
175.982,278.616599783
175.997,278.587358393
176.012,278.558027533
176.027,278.528606896
176.042,278.499096173
176.057,278.469495052
176.072,278.439803221
176.087,278.410020365
176.102,278.380146165
176.117,278.350180303
176.132,278.320122457
176.147,278.289972304
176.162,278.259729516
176.177,278.229393767
176.192,278.198964726
176.207,278.168442062
176.222,278.137825439
176.237,278.10711452
176.252,278.076308968
176.267,278.045408441
176.282,278.014412595
176.297,277.983321086
176.31,277.956297461
176.312,277.952133565
176.327,277.920849683
176.342,277.889469087
176.357,277.857991424
176.372,277.826416337
176.387,277.794743466
176.402,277.762972451
176.417,277.731102928
176.432,277.699134532
176.447,277.667066894
176.46,277.63919438
176.462,277.634899645
176.477,277.602632412
176.492,277.57026482
176.507,277.537796491
176.522,277.505227048
176.537,277.472556106
176.552,277.439783284
176.567,277.406908193
176.582,277.373930446
176.597,277.340849651
176.612,277.307665414
176.627,277.274377341
176.642,277.240985031
176.657,277.207488086
176.672,277.173886101
176.687,277.140178672
176.702,277.106365391
176.717,277.072445847
176.732,277.038419629
176.747,277.00428632
176.762,276.970045503
176.777,276.935696759
176.792,276.901239665
176.807,276.866673797
176.822,276.831998727
176.837,276.797214025
176.852,276.76231926
176.867,276.727313997
176.882,276.692197799
176.897,276.656970226
176.912,276.621630836
176.927,276.586179185
176.942,276.550614825
176.957,276.514937307
176.972,276.479146179
176.987,276.443240987
177.002,276.407221272
177.017,276.371086576
177.032,276.334836436
177.047,276.298470387
177.062,276.261987962
177.077,276.225388691
177.092,276.188672101
177.107,276.151837718
177.122,276.114885063
177.137,276.077813655
177.152,276.040623013
177.167,276.00331265
177.182,275.965882079
177.197,275.928330807
177.21,275.895688357
177.212,275.890658342
177.227,275.852864187
177.242,275.814947844
177.257,275.77690881
177.272,275.738746581
177.287,275.70046065
177.302,275.662050508
177.31,275.641514133
177.317,275.623515641
177.332,275.584855535
177.347,275.546069671
177.362,275.507157528
177.377,275.468118583
177.392,275.428952308
177.407,275.389658176
177.422,275.350235653
177.437,275.310684204
177.452,275.271003291
177.467,275.231192374
177.482,275.191250908
177.497,275.151178348
177.512,275.110974142
177.527,275.070637739
177.542,275.030168583
177.557,274.989566115
177.572,274.948829773
177.587,274.907958993
177.602,274.866953206
177.617,274.825811841
177.632,274.784534325
177.647,274.74312008
177.66,274.707116687
177.662,274.701568526
177.677,274.659879078
177.692,274.618051149
177.707,274.57608415
177.722,274.533977487
177.737,274.491730563
177.752,274.449342777
177.767,274.406813526
177.782,274.364142202
177.797,274.321328195
177.812,274.278370891
177.827,274.235269672
177.842,274.192023916
177.857,274.148632998
177.872,274.105096291
177.887,274.061413161
177.902,274.017582972
177.917,273.973605084
177.932,273.929478853
177.947,273.885203632
177.96,273.846710753
177.962,273.840778768
177.977,273.796203606
177.992,273.751477486
178.007,273.706599744
178.022,273.661569712
178.037,273.616386716
178.052,273.571050081
178.067,273.525559125
178.082,273.479913163
178.097,273.434111504
178.112,273.388153453
178.127,273.342038311
178.142,273.295765374
178.157,273.249333933
178.172,273.202743273
178.187,273.155992677
178.202,273.10908142
178.217,273.062008772
178.232,273.014774
178.247,272.967376364
178.262,272.919815119
178.277,272.872089514
178.292,272.824198793
178.307,272.776142194
178.322,272.727918948
178.337,272.679528283
178.352,272.630969418
178.367,272.582241567
178.382,272.533343938
178.397,272.484275732
178.41,272.441611354
178.412,272.435036144
178.427,272.385624362
178.442,272.336039566
178.457,272.286280932
178.472,272.236347626
178.487,272.186238808
178.502,272.135953631
178.517,272.085491239
178.532,272.03485077
178.547,271.984031353
178.562,271.93303211
178.577,271.881852154
178.592,271.83049059
178.607,271.778946513
178.622,271.727219012
178.637,271.675307164
178.652,271.62321004
178.667,271.5709267
178.682,271.518456194
178.697,271.465797564
178.712,271.41294984
178.727,271.359912042
178.742,271.306683183
178.757,271.25326226
178.772,271.199648264
178.787,271.145840173
178.802,271.091836952
178.817,271.037637557
178.832,270.98324093
178.847,270.928646004
178.862,270.873851696
178.877,270.818856913
178.892,270.763660547
178.907,270.708261477
178.922,270.652658572
178.937,270.596850682
178.952,270.540836646
178.967,270.484615287
178.982,270.428185416
178.997,270.371545824
179.012,270.314695291
179.027,270.257632579
179.042,270.200356434
179.057,270.142865587
179.072,270.08515875
179.087,270.027234618
179.102,269.96909187
179.117,269.910729164
179.132,269.852145144
179.147,269.793338431
179.16,269.7421914
179.162,269.734307628
179.177,269.675051318
179.192,269.615568066
179.207,269.555856413
179.222,269.495914881
179.237,269.435741971
179.252,269.37533616
179.267,269.314695904
179.282,269.253819635
179.297,269.192705763
179.312,269.131352673
179.327,269.069758726
179.342,269.007922258
179.357,268.945841578
179.372,268.88351497
179.387,268.820940693
179.402,268.758116976
179.417,268.695042022
179.432,268.631714006
179.447,268.568131071
179.462,268.504291334
179.477,268.440192881
179.492,268.375833766
179.507,268.311212011
179.522,268.24632561
179.537,268.181172519
179.552,268.115750664
179.567,268.050057937
179.582,267.984092194
179.597,267.917851255
179.612,267.851332906
179.627,267.784534894
179.642,267.717454931
179.657,267.650090688
179.672,267.5824398
179.687,267.514499858
179.702,267.446268418
179.717,267.37774299
179.732,267.308921045
179.747,267.239800008
179.762,267.170377265
179.777,267.100650153
179.792,267.030615966
179.807,266.960271953
179.822,266.889615313
179.837,266.818643201
179.852,266.747352721
179.867,266.675740927
179.882,266.603804825
179.897,266.531541369
179.91,266.468645854
179.912,266.458947461
179.927,266.386019948
179.942,266.312755628
179.957,266.23915124
179.972,266.165203469
179.987,266.090908944
180.002,266.016264235
180.017,265.941265857
180.032,265.865910262
180.047,265.790193844
180.062,265.714112935
180.077,265.637663807
180.092,265.560842666
180.107,265.483645657
180.122,265.406068859
180.137,265.328108284
180.152,265.24975988
180.167,265.171019525
180.182,265.09188303
180.197,265.012346136
180.212,264.932404514
180.227,264.852053762
180.242,264.771289408
180.257,264.690106906
180.272,264.608501635
180.287,264.5264689
180.302,264.44400393
180.317,264.361101877
180.332,264.277757814
180.347,264.193966738
180.362,264.109723565
180.377,264.025023131
180.392,263.939860189
180.407,263.854229413
180.422,263.768125393
180.437,263.681542635
180.452,263.59447556
180.467,263.506918506
180.482,263.418865723
180.497,263.330311375
180.512,263.241249539
180.527,263.151674204
180.542,263.06157927
180.557,262.970958547
180.56,262.952770757
180.572,262.879805758
180.587,262.788114532
180.602,262.695878409
180.617,262.603090837
180.632,262.509745174
180.647,262.415834682
180.66,262.333983431
180.662,262.321352535
180.677,262.226291809
180.692,262.13064549
180.707,262.03440647
180.722,261.937567548
180.737,261.840121426
180.752,261.742060717
180.767,261.643377935
180.782,261.544065504
180.797,261.444115753
180.812,261.343520915
180.827,261.242273135
180.842,261.14036446
180.857,261.037786845
180.872,260.934532156
180.887,260.830592165
180.902,260.725958552
180.917,260.620622907
180.932,260.514576734
180.947,260.407811443
180.962,260.30031836
180.977,260.192088722
180.992,260.083113684
181.007,259.973384313
181.022,259.862891595
181.037,259.751626435
181.052,259.639579658
181.067,259.526742011
181.082,259.413104166
181.097,259.29865672
181.112,259.183390199
181.127,259.067295059
181.142,258.950361688
181.157,258.832580412
181.172,258.713941491
181.187,258.594435131
181.202,258.474051478
181.217,258.352780627
181.232,258.230612623
181.247,258.107537464
181.262,257.983545109
181.277,257.858625473
181.292,257.732768442
181.307,257.605963868
181.31,257.580488353
181.322,257.478201577
181.337,257.349471376
181.352,257.219763053
181.367,257.089066386
181.382,256.957371143
181.397,256.824667093
181.412,256.69094401
181.427,256.556191674
181.442,256.420399884
181.457,256.283558459
181.472,256.145657246
181.487,256.006686125
181.502,255.86663502
181.517,255.725493899
181.532,255.583252788
181.547,255.439901772
181.562,255.295431006
181.577,255.149830724
181.592,255.003091242
181.607,254.855202969
181.622,254.706156414
181.637,254.555942196
181.652,254.404551048
181.667,254.251973832
181.682,254.09820154
181.697,253.943225309
181.712,253.787036427
181.727,253.62962634
181.742,253.470986663
181.757,253.311109191
181.772,253.149985902
181.787,252.987608971
181.802,252.823970775
181.817,252.659063907
181.832,252.492881175
181.847,252.325415622
181.862,252.156660524
181.877,251.986609402
181.892,251.815256032
181.907,251.642594447
181.922,251.468618945
181.937,251.293324099
181.952,251.116704755
181.967,250.938756044
181.982,250.759473381
181.997,250.578852469
182.012,250.396889304
182.027,250.213580169
182.042,250.028921641
182.057,249.842910583
182.06,249.805545812
182.072,249.655544142
182.087,249.466819745
182.102,249.276735088
182.117,249.085288129
182.132,248.892477073
182.147,248.698300356
182.162,248.502756628
182.177,248.305844731
182.192,248.10756367
182.207,247.907912581
182.222,247.706890703
182.237,247.504497325
182.252,247.300731751
182.267,247.095593235
182.282,246.889080929
182.297,246.681193807
182.312,246.471930588
182.327,246.261289649
182.342,246.049268922
182.357,245.835865784
182.372,245.621076926
182.387,245.404898215
182.402,245.187324535
182.417,244.968349603
182.432,244.747965775
182.447,244.526163816
182.462,244.302932655
182.477,244.0782591
182.492,243.852127527
182.507,243.624519527
182.522,243.395413512
182.537,243.164784278
182.552,242.932602507
182.567,242.698834219
182.582,242.463440151
182.597,242.226375057
182.612,241.987586935
182.627,241.747016145
182.642,241.504594423
182.657,241.260243771
182.672,241.013875204
182.687,240.76538734
182.702,240.514664807
182.717,240.261576438
182.732,240.005973241
182.747,239.747686085
182.762,239.486523095
182.777,239.222266684
182.792,238.954670195
182.807,238.683454087
182.822,238.408301609
182.837,238.128853892
182.852,237.844704387
182.867,237.555392571
182.882,237.260396842
182.897,236.959126531
182.912,236.650912955
182.927,236.334999493
182.942,236.010530665
182.957,235.676540327
182.972,235.331939189
182.987,234.975502073
183.002,234.605855704
183.017,234.221468288
183.032,233.820642991
183.047,233.40151864
183.062,232.962082911
183.077,232.500206182
183.092,232.013708702
183.107,231.500480502
183.122,230.958683675
183.137,230.387081688
183.152,229.785562078
183.167,229.155948319
183.182,228.503232214
183.197,227.83738777
183.212,227.175908443
183.227,226.547011894
183.242,225.992710417
183.257,225.568673747
183.367,225.647607033
183.382,226.105117452
183.397,226.677577478
183.412,227.312532941
183.427,227.971785302
183.442,228.630216304
183.457,229.272544624
183.472,229.890273402
183.487,230.479353052
183.502,231.038536031
183.517,231.568268678
183.532,232.06996549
183.547,232.54554422
183.562,232.997134557
183.577,233.426900472
183.592,233.836936029
183.607,234.229208141
183.622,234.60552884
183.637,234.967545782
183.652,235.316743663
183.667,235.654451878
183.682,235.981855454
183.697,236.300007407
183.712,236.609841383
183.727,236.912183938
183.742,237.207766074
183.757,237.497233851
183.772,237.781158024
183.787,238.060042698
183.802,238.334333049
183.817,238.604422192
183.832,238.870657248
183.847,239.133344714
183.862,239.392755193
183.877,239.649127567
183.892,239.902672672
183.907,240.15357654
183.922,240.402003251
183.937,240.648097454
183.952,240.891986591
183.967,241.133782858
183.982,241.373584945
183.997,241.611479569
184.012,241.847542838
184.027,242.081841456
184.042,242.314433796
184.057,242.545370849
184.072,242.774697072
184.087,243.002451142
184.102,243.228666623
184.117,243.453372566
184.132,243.676594043
184.147,243.898352619
184.162,244.118666779
184.177,244.337552309
184.192,244.55502263
184.207,244.771089103
184.222,244.985761301
184.237,245.199047248
184.252,245.410953638
184.267,245.621486024
184.282,245.830648993
184.297,246.038446319
184.312,246.2448811
184.327,246.44995588
184.342,246.653672756
184.357,246.85603348
184.372,247.057039537
184.387,247.256692227
184.402,247.454992728
184.417,247.65194216
184.432,247.847541632
184.447,248.04179229
184.462,248.234695357
184.477,248.426252166
184.492,248.616464192
184.507,248.805333077
184.522,248.992860649
184.537,249.179048946
184.552,249.363900226
184.56,249.461941735
184.567,249.547416982
184.582,249.729601952
184.597,249.910458128
184.612,250.089988756
184.627,250.268197349
184.642,250.445087682
184.657,250.620663797
184.672,250.794930001
184.687,250.967890866
184.702,251.139551224
184.717,251.309916166
184.732,251.478991038
184.747,251.646781435
184.762,251.813293195
184.777,251.978532397
184.792,252.142505349
184.807,252.305218586
184.822,252.466678861
184.837,252.626893137
184.852,252.785868581
184.867,252.943612555
184.882,253.100132611
184.897,253.255436479
184.912,253.40953206
184.927,253.56242742
184.942,253.714130782
184.957,253.864650515
184.972,254.013995129
184.987,254.162173263
185.002,254.309193684
185.017,254.455065272
185.032,254.599797015
185.047,254.743398005
185.062,254.885877425
185.077,255.027244543
185.092,255.167508707
185.107,255.306679337
185.122,255.444765917
185.137,255.581777989
185.152,255.717725146
185.167,255.852617027
185.182,255.986463309
185.197,256.119273702
185.212,256.251057941
185.227,256.381825785
185.242,256.511587005
185.257,256.640351384
185.272,256.76812871
185.287,256.89492877
185.302,257.020761346
185.31,257.087479834
185.317,257.145636209
185.332,257.269563117
185.347,257.392551811
185.362,257.514612005
185.377,257.635753388
185.392,257.755985621
185.407,257.875318325
185.422,257.993761088
185.437,258.111323454
185.452,258.228014922
185.467,258.343844946
185.482,258.458822927
185.497,258.572958213
185.512,258.686260096
185.527,258.79873781
185.542,258.910400527
185.557,259.021257358
185.572,259.131317345
185.587,259.240589466
185.602,259.349082628
185.617,259.456805669
185.632,259.563767351
185.647,259.669976364
185.662,259.775441323
185.677,259.880170765
185.692,259.984173148
185.707,260.087456854
185.722,260.19003018
185.737,260.291901346
185.752,260.393078487
185.767,260.493569656
185.782,260.593382824
185.797,260.692525875
185.812,260.79100661
185.827,260.888832744
185.842,260.986011907
185.857,261.082551643
185.872,261.178459409
185.887,261.273742577
185.902,261.368408432
185.917,261.462464171
185.932,261.555916907
185.947,261.648773663
185.96,261.728772802
185.962,261.741041378
185.977,261.832726905
185.992,261.923837008
186.007,262.014378367
186.022,262.104357577
186.037,262.193781145
186.052,262.282655496
186.06,262.329832772
186.067,262.370986966
186.082,262.458781811
186.097,262.546046201
186.112,262.632786223
186.127,262.719007879
186.142,262.804717092
186.157,262.889919701
186.172,262.974621465
186.187,263.05882806
186.202,263.142545084
186.217,263.225778055
186.232,263.308532412
186.247,263.390813516
186.262,263.472626651
186.277,263.553977023
186.292,263.634869764
186.307,263.715309929
186.322,263.795302499
186.337,263.874852382
186.352,263.953964412
186.367,264.032643352
186.382,264.110893892
186.397,264.188720652
186.412,264.266128183
186.427,264.343120967
186.442,264.419703416
186.457,264.495879877
186.472,264.571654629
186.487,264.647031885
186.502,264.722015795
186.517,264.796610442
186.532,264.87081985
186.547,264.944647975
186.562,265.018098717
186.577,265.091175911
186.592,265.163883334
186.607,265.236224705
186.622,265.308203682
186.637,265.379823868
186.652,265.451088808
186.667,265.522001991
186.682,265.592566852
186.697,265.662786771
186.71,265.723367588
186.712,265.732665076
186.727,265.802205041
186.742,265.871409888
186.757,265.940282789
186.772,266.008826866
186.787,266.07704519
186.802,266.144940785
186.817,266.212516627
186.832,266.279775644
186.847,266.346720717
186.862,266.413354684
186.877,266.479680336
186.892,266.545700421
186.907,266.611417642
186.922,266.67683466
186.937,266.741954096
186.952,266.806778528
186.967,266.871310492
186.982,266.935552488
186.997,266.999506972
187.012,267.063176366
187.027,267.126563052
187.042,267.189669374
187.057,267.252497642
187.072,267.315050128
187.087,267.377329069
187.102,267.439336668
187.117,267.501075094
187.132,267.562546483
187.147,267.623752937
187.162,267.684696527
187.177,267.745379292
187.192,267.805803239
187.207,267.865970347
187.222,267.925882562
187.237,267.985541803
187.252,268.04494996
187.267,268.104108893
187.282,268.163020437
187.297,268.221686398
187.312,268.280108556
187.327,268.338288663
187.342,268.396228449
187.357,268.453929615
187.372,268.511393841
187.387,268.568622779
187.402,268.625618059
187.417,268.68238129
187.432,268.738914054
187.447,268.795217913
187.46,268.843830623
187.462,268.851294407
187.477,268.907145053
187.492,268.962771349
187.507,269.018174772
187.522,269.073356776
187.537,269.128318798
187.552,269.183062255
187.567,269.237588545
187.582,269.291899045
187.597,269.345995117
187.612,269.399878102
187.627,269.453549326
187.642,269.507010097
187.657,269.560261703
187.672,269.61330542
187.687,269.666142506
187.702,269.718774201
187.717,269.771201732
187.732,269.82342631
187.747,269.87544913
187.762,269.927271374
187.777,269.978894208
187.792,270.030318785
187.807,270.081546243
187.822,270.132577708
187.837,270.18341429
187.852,270.23405709
187.867,270.284507193
187.882,270.334765672
187.897,270.384833589
187.912,270.434711994
187.927,270.484401922
187.942,270.533904401
187.957,270.583220445
187.972,270.632351057
187.987,270.681297231
188.002,270.730059947
188.017,270.778640178
188.032,270.827038885
188.047,270.875257019
188.062,270.923295522
188.077,270.971155324
188.092,271.01883735
188.107,271.066342511
188.122,271.113671712
188.137,271.160825848
188.152,271.207805805
188.167,271.254612461
188.182,271.301246684
188.197,271.347709337
188.21,271.387838848
188.212,271.394001272
188.227,271.440123335
188.242,271.486076362
188.257,271.531861182
188.272,271.57747862
188.287,271.622929488
188.302,271.668214594
188.317,271.71333474
188.332,271.758290718
188.347,271.803083316
188.362,271.847713312
188.377,271.892181481
188.392,271.93648859
188.407,271.980635399
188.422,272.024622662
188.437,272.068451127
188.452,272.112121538
188.467,272.155634629
188.482,272.198991132
188.497,272.242191772
188.512,272.285237267
188.527,272.328128331
188.542,272.370865672
188.557,272.413449994
188.572,272.455881993
188.587,272.498162363
188.602,272.54029179
188.617,272.582270958
188.632,272.624100543
188.647,272.665781219
188.66,272.701784536
188.662,272.707313653
188.677,272.748698508
188.692,272.789936443
188.707,272.831028112
188.722,272.871974166
