# 01004 ENAS Ny-Alesund Ii Observations at 12Z 25 Oct 2019
Frequency [GHz],TB
175.31,256.118931647
175.322,256.161985996
175.337,256.215741452
175.352,256.269425917
175.367,256.323037693
175.382,256.376575079
175.397,256.430036349
175.412,256.483419779
175.427,256.536723614
175.442,256.58994608
175.457,256.643085421
175.472,256.696139834
175.487,256.749107507
175.502,256.801986627
175.517,256.854775355
175.532,256.90747184
175.547,256.960074218
175.562,257.012580608
175.577,257.064989113
175.592,257.117297828
175.607,257.169504827
175.622,257.221608167
175.637,257.273605896
175.652,257.325496045
175.667,257.37727663
175.682,257.428945649
175.697,257.480501085
175.712,257.531940916
175.727,257.583263089
175.742,257.634465549
175.757,257.685546218
175.772,257.736503002
175.787,257.787333801
175.802,257.838036489
175.817,257.88860893
175.832,257.939048975
175.847,257.989354453
175.862,258.03952318
175.877,258.089552966
175.892,258.139441585
175.907,258.18918682
175.922,258.238786414
175.937,258.288238121
175.952,258.337539655
175.967,258.386688724
175.982,258.435683031
175.997,258.484520245
176.012,258.533198042
176.027,258.581714054
176.042,258.630065923
176.057,258.678251257
176.072,258.726267669
176.087,258.774112734
176.102,258.821784029
176.117,258.869279107
176.132,258.916595511
176.147,258.963730759
176.162,259.010682368
176.177,259.057447826
176.192,259.104024619
176.207,259.150410201
176.222,259.196602032
176.237,259.242597535
176.252,259.288394141
176.267,259.333989246
176.282,259.379380236
176.297,259.424564493
176.31,259.463554916
176.312,259.469539373
176.327,259.514302221
176.342,259.558850366
176.357,259.603181128
176.372,259.647291798
176.387,259.691179677
176.402,259.734842027
176.417,259.778276107
176.432,259.821479168
176.447,259.864448431
176.46,259.901497198
176.462,259.907181118
176.477,259.949674432
176.492,259.991925556
176.507,260.033931668
176.522,260.075689929
176.537,260.117197488
176.552,260.158451481
176.567,260.199449025
176.582,260.240187232
176.597,260.280663202
176.612,260.320874007
176.627,260.360816725
176.642,260.400488415
176.657,260.439886118
176.672,260.479006871
176.687,260.517847694
176.702,260.556405599
176.717,260.594677583
176.732,260.632660628
176.747,260.670351722
176.762,260.707747817
176.777,260.744845876
176.792,260.781642837
176.807,260.818135633
176.822,260.85432119
176.837,260.890196417
176.852,260.92575822
176.867,260.961003488
176.882,260.995929105
176.897,261.030531954
176.912,261.064808896
176.927,261.098756782
176.942,261.132372471
176.957,261.1656528
176.972,261.198594604
176.987,261.231194705
177.002,261.263449923
177.017,261.295357073
177.032,261.326912963
177.047,261.358114381
177.062,261.388958133
177.077,261.419440993
177.092,261.449559757
177.107,261.479311189
177.122,261.50869207
177.137,261.537699162
177.152,261.566329235
177.167,261.594579042
177.182,261.622445346
177.197,261.649924898
177.21,261.673425162
177.212,261.677014451
177.227,261.703710754
177.242,261.730010557
177.257,261.755910601
177.272,261.781407635
177.287,261.806498407
177.302,261.831179654
177.31,261.844174414
177.317,261.855448128
177.332,261.879300574
177.347,261.902733738
177.362,261.925744368
177.377,261.94832922
177.392,261.970485037
177.407,261.99220859
177.422,262.013496627
177.437,262.03434592
177.452,262.054753236
177.467,262.074715349
177.482,262.094229039
177.497,262.11329109
177.512,262.131898296
177.527,262.150047458
177.542,262.16773538
177.557,262.184958879
177.572,262.201714777
177.587,262.217999913
177.602,262.233811129
177.617,262.249145277
177.632,262.263999226
177.647,262.27836985
177.66,262.290431029
177.662,262.292254039
177.677,262.305648696
177.692,262.318550739
177.707,262.330957093
177.722,262.342864707
177.737,262.354270543
177.752,262.365171578
177.767,262.375564798
177.782,262.385447224
177.797,262.39481588
177.812,262.403667815
177.827,262.412000099
177.842,262.419809812
177.857,262.42709407
177.872,262.433849999
177.887,262.440074754
177.902,262.445765508
177.917,262.450919466
177.932,262.455533845
177.947,262.459605899
177.96,262.462694221
177.962,262.463132896
177.977,262.466112147
177.992,262.468540974
178.007,262.470416737
178.022,262.471736824
178.037,262.472498642
178.052,262.472699653
178.067,262.472337326
178.082,262.47140917
178.097,262.469912726
178.112,262.467845581
178.127,262.465205338
178.142,262.461989647
178.157,262.458196188
178.172,262.453822684
178.187,262.448866886
178.202,262.443326598
178.217,262.437199651
178.232,262.430483922
178.247,262.423177324
178.262,262.415277818
178.277,262.406783404
178.292,262.39769213
178.307,262.388002081
178.322,262.377711395
178.337,262.366818246
178.352,262.35532086
178.367,262.343217523
178.382,262.330506545
178.397,262.317186306
178.41,262.305148053
178.412,262.303255226
178.427,262.28871178
178.442,262.273554488
178.457,262.257781934
178.472,262.241392747
178.487,262.224385612
178.502,262.20675927
178.517,262.188512516
178.532,262.169644202
178.547,262.150153246
178.562,262.130038607
178.577,262.109299319
178.592,262.08793447
178.607,262.065943203
178.622,262.043324732
178.637,262.020078325
178.652,261.996203322
178.667,261.971699116
178.682,261.946565173
178.697,261.920801022
178.712,261.894406252
178.727,261.867380525
178.742,261.839723569
178.757,261.811435175
178.772,261.782515213
178.787,261.752963611
178.802,261.72278037
178.817,261.691965567
178.832,261.660519347
178.847,261.628441921
178.862,261.595733581
178.877,261.56239468
178.892,261.528425658
178.907,261.493827026
178.922,261.458599358
178.937,261.422743316
178.952,261.38625963
178.967,261.34914911
178.982,261.311412639
178.997,261.273051176
179.012,261.234065762
179.027,261.194457511
179.042,261.154227615
179.057,261.113377345
179.072,261.07190805
179.087,261.029821155
179.102,260.987118175
179.117,260.943800688
179.132,260.899870359
179.147,260.855328935
179.16,260.816233462
179.162,260.810178235
179.177,260.764420167
179.192,260.718056711
179.207,260.671089929
179.222,260.623521967
179.237,260.57535504
179.252,260.526591457
179.267,260.477233599
179.282,260.427283917
179.297,260.376744961
179.312,260.325619343
179.327,260.273909766
179.342,260.221619005
179.357,260.168749914
179.372,260.115305426
179.387,260.061288553
179.402,260.006702382
179.417,259.951550078
179.432,259.895834882
179.447,259.839560112
179.462,259.782729157
179.477,259.725345489
179.492,259.667412648
179.507,259.608934247
179.522,259.549913975
179.537,259.490355591
179.552,259.430262927
179.567,259.369639882
179.582,259.30849043
179.597,259.246818608
179.612,259.184628525
179.627,259.121924354
179.642,259.058710337
179.657,258.994990775
179.672,258.93077004
179.687,258.86605256
179.702,258.800842825
179.717,258.73514539
179.732,258.668964864
179.747,258.602305918
179.762,258.535173271
179.777,258.467571705
179.792,258.399506052
179.807,258.330981195
179.822,258.262002067
179.837,258.192573654
179.852,258.122700984
179.867,258.052389136
179.882,257.981643227
179.897,257.910468421
179.91,257.848440678
179.912,257.838869919
179.927,257.766852963
179.942,257.694422836
179.957,257.621584844
179.972,257.54834434
179.987,257.474706701
180.002,257.400677338
180.017,257.326261681
180.032,257.251465195
180.047,257.176293366
180.062,257.100751699
180.077,257.02484572
180.092,256.948580975
180.107,256.871963024
180.122,256.794997438
180.137,256.717689798
180.152,256.640045699
180.167,256.562070743
180.182,256.483770531
180.197,256.40515067
180.212,256.326216766
180.227,256.246974427
180.242,256.16742925
180.257,256.087586831
180.272,256.007452752
180.287,255.927032592
180.302,255.846331908
180.317,255.765356247
180.332,255.684111136
180.347,255.602602083
180.362,255.520834573
180.377,255.438814065
180.392,255.356545994
180.407,255.274035769
180.422,255.191288757
180.437,255.108310302
180.452,255.025105708
180.467,254.941680243
180.482,254.858039132
180.497,254.774187563
180.512,254.690130674
180.527,254.605873562
180.542,254.521421276
180.557,254.43677881
180.56,254.419827931
180.572,254.35195111
180.587,254.266943065
180.602,254.181759513
180.617,254.096405231
180.632,254.010884935
180.647,253.925203284
180.66,253.850818888
180.662,253.839364871
180.677,253.753374226
180.692,253.667235813
180.707,253.580954027
180.722,253.494533197
180.737,253.407977574
180.752,253.321291348
180.767,253.234478632
180.782,253.147543458
180.797,253.060489791
180.812,252.973321517
180.827,252.886042442
180.842,252.798656301
180.857,252.71116674
180.872,252.623577334
180.887,252.535891572
180.902,252.448112864
180.917,252.360244539
180.932,252.272289842
180.947,252.184251938
180.962,252.096133911
180.977,252.007938756
180.992,251.919669394
181.007,251.83132866
181.022,251.742919304
181.037,251.654443999
181.052,251.565905334
181.067,251.477305818
181.082,251.38864788
181.097,251.299933868
181.112,251.211166052
181.127,251.122346628
181.142,251.033477708
181.157,250.944561336
181.172,250.855599478
181.187,250.76659403
181.202,250.677546813
181.217,250.588459583
181.232,250.499334026
181.247,250.410171761
181.262,250.320974348
181.277,250.231743282
181.292,250.14248
181.307,250.053185881
181.31,250.035323474
181.322,249.963862251
181.337,249.874510387
181.352,249.785131511
181.367,249.695726804
181.382,249.606297404
181.397,249.516844406
181.412,249.427368871
181.427,249.337871831
181.442,249.248354279
181.457,249.158817189
181.472,249.069261511
181.487,248.979688178
181.502,248.890098107
181.517,248.800492205
181.532,248.710871375
181.547,248.621236517
181.562,248.531588534
181.577,248.441928336
181.592,248.352256846
181.607,248.262575003
181.622,248.172883769
181.637,248.083184132
181.652,247.993477113
181.667,247.903763767
181.682,247.814045197
181.697,247.724322547
181.712,247.634597019
181.727,247.544869873
181.742,247.455142433
181.757,247.365416092
181.772,247.275692321
181.787,247.185972671
181.802,247.096258783
181.817,247.006552388
181.832,246.916855323
181.847,246.827169524
181.862,246.737497044
181.877,246.647840053
181.892,246.558200844
181.907,246.468581842
181.922,246.37898561
181.937,246.289414853
181.952,246.199872425
181.967,246.110361338
181.982,246.020884766
181.997,245.931446049
182.012,245.842048704
182.027,245.752696427
182.042,245.663393103
182.057,245.574142806
182.06,245.556299483
182.072,245.484949814
182.087,245.395818606
182.102,245.30675387
182.117,245.217760514
182.132,245.128843662
182.147,245.040008667
182.162,244.951261112
182.177,244.862606817
182.192,244.774051838
182.207,244.685602478
182.222,244.597265285
182.237,244.50904706
182.252,244.420954854
182.267,244.332995976
182.282,244.245177988
182.297,244.157508713
182.312,244.06999623
182.327,243.982648875
182.342,243.895475238
182.357,243.808484165
182.372,243.721684746
182.387,243.635086317
182.402,243.54869845
182.417,243.462530946
182.432,243.376593824
182.447,243.290897308
182.462,243.205451815
182.477,243.120267937
182.492,243.03535642
182.507,242.950728141
182.522,242.866394081
182.537,242.782365296
182.552,242.698652879
182.567,242.615267917
182.582,242.532221448
182.597,242.449524403
182.612,242.367187545
182.627,242.285221395
182.642,242.203636154
182.657,242.122441603
182.672,242.041646998
182.687,241.961260941
182.702,241.881291241
182.717,241.801744738
182.732,241.722627118
182.747,241.64394268
182.762,241.565694077
182.777,241.487882009
182.792,241.41050486
182.807,241.333558277
182.822,241.257034665
182.837,241.180922594
182.852,241.105206089
182.867,241.029863776
182.882,240.954867863
182.897,240.880182896
182.912,240.805764253
182.927,240.731556297
182.942,240.657490099
182.957,240.583480622
182.972,240.509423201
182.987,240.435189121
183.002,240.360620011
183.017,240.285520693
183.032,240.209649965
183.047,240.132708609
183.062,240.054323639
183.077,239.974027371
183.092,239.891229258
183.107,239.805177487
183.122,239.714905801
183.137,239.61915862
183.152,239.516283557
183.167,239.404073821
183.182,239.279531574
183.197,239.138503174
183.212,238.97510125
183.227,238.780764659
183.242,238.542705398
183.257,238.24142786
183.367,238.310728868
183.382,238.590239696
183.397,238.812311978
183.412,238.994442197
183.427,239.148148137
183.442,239.281192535
183.457,239.398949749
183.472,239.505234516
183.487,239.602814652
183.502,239.693736922
183.517,239.779539908
183.532,239.861396663
183.547,239.940212547
183.562,240.016693743
183.577,240.091396126
183.592,240.1647607
183.607,240.237139683
183.622,240.308815952
183.637,240.380017722
183.652,240.450929755
183.667,240.521701986
183.682,240.592456249
183.697,240.663291542
183.712,240.734288204
183.727,240.805511231
183.742,240.877012951
183.757,240.948835178
183.772,241.021010963
183.787,241.093566031
183.802,241.166519962
183.817,241.239887165
183.832,241.313677692
183.847,241.387897919
183.862,241.462551109
183.877,241.537637901
183.892,241.613156712
183.907,241.689104084
183.922,241.765474981
183.937,241.842263039
183.952,241.919460784
183.967,241.997059822
183.982,242.075050997
183.997,242.15342453
184.012,242.232170144
184.027,242.311277167
184.042,242.390734623
184.057,242.470531312
184.072,242.55065588
184.087,242.631096879
184.102,242.711842822
184.117,242.792882225
184.132,242.874203648
184.147,242.955795734
184.162,243.037647232
184.177,243.119747031
184.192,243.202084175
184.207,243.284647887
184.222,243.367427587
184.237,243.4504129
184.252,243.533593672
184.267,243.616959981
184.282,243.700502142
184.297,243.784210713
184.312,243.868076505
184.327,243.95209058
184.342,244.036244258
184.357,244.120529115
184.372,244.204936989
184.387,244.289459974
184.402,244.374090423
184.417,244.458820946
184.432,244.543644409
184.447,244.628553929
184.462,244.713542872
184.477,244.798604853
184.492,244.883733728
184.507,244.968923591
184.522,245.054168774
184.537,245.139463834
184.552,245.224803557
184.56,245.270334605
184.567,245.310182949
184.582,245.395597231
184.597,245.481041834
184.612,245.566512394
184.627,245.652004745
184.642,245.737514921
184.657,245.823039138
184.672,245.908573794
184.687,245.994115469
184.702,246.079660914
184.717,246.16520704
184.732,246.250750924
184.747,246.336289794
184.762,246.421821027
184.777,246.507342143
184.792,246.592850796
184.807,246.678344777
184.822,246.763821996
184.837,246.849280488
184.852,246.934718399
184.867,247.020133985
184.882,247.105525607
184.897,247.190891719
184.912,247.276230875
184.927,247.361541707
184.942,247.446822938
184.957,247.532073363
184.972,247.617291848
184.987,247.702477328
185.002,247.787628802
185.017,247.872745321
185.032,247.957825992
185.047,248.042869968
185.062,248.127876444
185.077,248.212844659
185.092,248.297773881
185.107,248.382663407
185.122,248.467512566
185.137,248.552320702
185.152,248.63708718
185.167,248.72181138
185.182,248.806492689
185.197,248.8911305
185.212,248.975724212
185.227,249.060273218
185.242,249.144776913
185.257,249.229234679
185.272,249.31364589
185.287,249.398009906
185.302,249.482326068
185.31,249.527274886
185.317,249.566593698
185.332,249.650812098
185.347,249.73498054
185.362,249.819098272
185.377,249.903164513
185.392,249.987178442
185.407,250.071139211
185.422,250.155045929
185.437,250.238897672
185.452,250.322693467
185.467,250.406432303
185.482,250.490113124
185.497,250.573734824
185.512,250.657296252
185.527,250.740796207
185.542,250.824233438
185.557,250.907606636
185.572,250.990914448
185.587,251.074155457
185.602,251.157328197
185.617,251.24043114
185.632,251.323462706
185.647,251.406421253
185.662,251.489305083
185.677,251.572112434
185.692,251.654841493
185.707,251.737490375
185.722,251.820057144
185.737,251.902539801
185.752,251.984936282
185.767,252.067244467
185.782,252.149462169
185.797,252.231587147
185.812,252.313617094
185.827,252.395549646
185.842,252.477382375
185.857,252.559112797
185.872,252.640738364
185.887,252.722256471
185.902,252.803664454
185.917,252.884959593
185.932,252.966139109
185.947,253.047200162
185.96,253.117355021
185.962,253.128139866
185.977,253.208955271
185.992,253.289643375
186.007,253.370201126
186.022,253.450625415
186.037,253.53091309
186.052,253.611060936
186.06,253.653748156
186.067,253.691065696
186.082,253.770924069
186.097,253.850632699
186.112,253.930188191
186.127,254.009587099
186.142,254.088825941
186.157,254.167901189
186.172,254.246809277
186.187,254.325546594
186.202,254.404109502
186.217,254.482494318
186.232,254.560697325
186.247,254.638714776
186.262,254.716542892
186.277,254.794177861
186.292,254.871615846
186.307,254.948852981
186.322,255.025885371
186.337,255.102709102
186.352,255.179320237
186.367,255.255714813
186.382,255.331888855
186.397,255.407838366
186.412,255.483559331
186.427,255.559047728
186.442,255.634299512
186.457,255.709310634
186.472,255.784077037
186.487,255.858594647
186.502,255.932859393
186.517,256.006867193
186.532,256.080613964
186.547,256.154095622
186.562,256.227308082
186.577,256.30024726
186.592,256.372909078
186.607,256.445289458
186.622,256.517384334
186.637,256.589189642
186.652,256.660701329
186.667,256.731915353
186.682,256.80282769
186.697,256.873434318
186.71,256.934376352
186.712,256.943731238
186.727,257.013714469
186.742,257.083380038
186.757,257.152724005
186.772,257.221742443
186.787,257.290431443
186.802,257.358787127
186.817,257.42680564
186.832,257.494483153
186.847,257.561815858
186.862,257.628799986
186.877,257.695431788
186.892,257.761707554
186.907,257.8276236
186.922,257.893176278
186.937,257.95836197
186.952,258.023177103
186.967,258.087618132
186.982,258.151681548
186.997,258.21536389
187.012,258.278661724
187.027,258.341571668
187.042,258.404090376
187.057,258.466214541
187.072,258.527940907
187.087,258.589266251
187.102,258.650187409
187.117,258.710701246
187.132,258.770804691
187.147,258.830494702
187.162,258.889768298
187.177,258.948622541
187.192,259.00705454
187.207,259.065061461
187.222,259.122640512
187.237,259.179788956
187.252,259.236504109
187.267,259.292783331
187.282,259.348624045
187.297,259.404023719
187.312,259.458979873
187.327,259.51349009
187.342,259.567552
187.357,259.621163285
187.372,259.674321686
187.387,259.727025001
187.402,259.779271075
187.417,259.831057817
187.432,259.882383189
187.447,259.933245204
187.46,259.976949321
187.462,259.983641934
187.477,260.033571517
187.492,260.08303213
187.507,260.132022017
187.522,260.180539479
187.537,260.22858287
187.552,260.276150599
187.567,260.323241141
187.582,260.369853013
187.597,260.415984802
187.612,260.461635146
187.627,260.506802735
187.642,260.551486328
187.657,260.595684727
187.672,260.639396798
187.687,260.682621459
187.702,260.72535769
187.717,260.767604518
187.732,260.809361034
187.747,260.850626378
187.762,260.89139975
187.777,260.931680401
187.792,260.971467639
187.807,261.010760826
187.822,261.049559381
187.837,261.087862766
187.852,261.125670513
187.867,261.162982194
187.882,261.199797439
187.897,261.23611593
187.912,261.2719374
187.927,261.307261636
187.942,261.342088476
187.957,261.376417806
187.972,261.410249567
187.987,261.443583749
188.002,261.476420387
188.017,261.508759572
188.032,261.54060144
188.047,261.571946174
188.062,261.602794014
188.077,261.633145233
188.092,261.663000164
188.107,261.69235918
188.122,261.721222702
188.137,261.749591194
188.152,261.777465171
188.167,261.804845185
188.182,261.831731837
188.197,261.85812577
188.21,261.880602484
188.212,261.884027668
188.227,261.909438262
188.242,261.934358324
188.257,261.958788662
188.272,261.982730129
188.287,262.006183622
188.302,262.029150071
188.317,262.051630444
188.332,262.073625756
188.347,262.095137055
188.362,262.116165427
188.377,262.136711994
188.392,262.156777919
188.407,262.17636439
188.422,262.19547264
188.437,262.214103939
188.452,262.232259583
188.467,262.249940903
188.482,262.267149265
188.497,262.283886071
188.512,262.300152748
188.527,262.315950758
188.542,262.33128159
188.557,262.346146773
188.572,262.360547849
188.587,262.37448641
188.602,262.387964059
188.617,262.400982433
188.632,262.413543199
188.647,262.425648045
188.66,262.435771452
188.662,262.437298693
188.677,262.448496882
188.692,262.459244386
188.707,262.469542989
188.722,262.479394515
188.737,262.488800803
