# 48698 WSSS Singapore Observations at 12Z 02 Dec 2019
Frequency [GHz],TB
175.31,271.087042457
175.322,271.064223986
175.337,271.035641432
175.352,271.006992649
175.367,270.978277466
175.382,270.949495713
175.397,270.920647217
175.412,270.891731807
175.427,270.862749309
175.442,270.83369955
175.457,270.804582356
175.472,270.775397551
175.487,270.746144959
175.502,270.716824403
175.517,270.687435706
175.532,270.657978689
175.547,270.628453174
175.562,270.59885898
175.577,270.569195927
175.592,270.539463834
175.607,270.509662517
175.622,270.479791794
175.637,270.449851482
175.652,270.419841394
175.667,270.389761346
175.682,270.359611151
175.697,270.329390622
175.712,270.29909957
175.727,270.268737807
175.742,270.238305142
175.757,270.207801385
175.772,270.177226344
175.787,270.146579826
175.802,270.115861638
175.817,270.085071584
175.832,270.054209471
175.847,270.023275101
175.862,269.992268277
175.877,269.961188801
175.892,269.930036473
175.907,269.898811094
175.922,269.867512462
175.937,269.836140374
175.952,269.804694628
175.967,269.773175019
175.982,269.741581342
175.997,269.709913391
176.012,269.678170958
176.027,269.646353835
176.042,269.614461812
176.057,269.582494679
176.072,269.550452224
176.087,269.518334233
176.102,269.486140494
176.117,269.453870791
176.132,269.421524907
176.147,269.389102626
176.162,269.356603729
176.177,269.324027996
176.192,269.291375206
176.207,269.258645136
176.222,269.225837565
176.237,269.192952266
176.252,269.159989014
176.267,269.126947582
176.282,269.093827742
176.297,269.060629263
176.31,269.03179346
176.312,269.027351915
176.327,268.993995465
176.342,268.96055968
176.357,268.927044325
176.372,268.893449163
176.387,268.859773956
176.402,268.826018465
176.417,268.79218245
176.432,268.758265668
176.447,268.724267876
176.46,268.694737406
176.462,268.690188829
176.477,268.656028281
176.492,268.621785983
176.507,268.587461687
176.522,268.55305514
176.537,268.51856609
176.552,268.483994284
176.567,268.449339466
176.582,268.414601377
176.597,268.37977976
176.612,268.344874352
176.627,268.309884893
176.642,268.274811118
176.657,268.239652761
176.672,268.204409555
176.687,268.16908123
176.702,268.133667516
176.717,268.098168139
176.732,268.062582825
176.747,268.026911298
176.762,267.991153278
176.777,267.955308487
176.792,267.919376641
176.807,267.883357457
176.822,267.847250648
176.837,267.811055926
176.852,267.774773001
176.867,267.738401582
176.882,267.701941373
176.897,267.66539208
176.912,267.628753402
176.927,267.59202504
176.942,267.555206691
176.957,267.51829805
176.972,267.48129881
176.987,267.444208661
177.002,267.407027293
177.017,267.36975439
177.032,267.332389636
177.047,267.294932714
177.062,267.257383301
177.077,267.219741074
177.092,267.182005707
177.107,267.144176872
177.122,267.106254238
177.137,267.068237471
177.152,267.030126234
177.167,266.99192019
177.182,266.953618996
177.197,266.915222308
177.21,266.881867667
177.212,266.87672978
177.227,266.838141062
177.242,266.799455801
177.257,266.760673642
177.272,266.721794227
177.287,266.682817195
177.302,266.643742182
177.31,266.622861985
177.317,266.60456882
177.332,266.565296741
177.347,266.525925569
177.362,266.486454931
177.377,266.446884445
177.392,266.40721373
177.407,266.367442399
177.422,266.327570064
177.437,266.287596333
177.452,266.247520809
177.467,266.207343094
177.482,266.167062785
177.497,266.126679475
177.512,266.086192757
177.527,266.045602215
177.542,266.004907434
177.557,265.964107993
177.572,265.923203468
177.587,265.882193431
177.602,265.84107745
177.617,265.79985509
177.632,265.758525911
177.647,265.71708947
177.66,265.681090778
177.662,265.675545319
177.677,265.633893006
177.692,265.592132077
177.707,265.550262071
177.722,265.508282524
177.737,265.466192967
177.752,265.423992929
177.767,265.381681931
177.782,265.339259493
177.797,265.296725129
177.812,265.254078347
177.827,265.211318652
177.842,265.168445546
177.857,265.125458522
177.872,265.082357071
177.887,265.03914068
177.902,264.995808829
177.917,264.952360994
177.932,264.908796645
177.947,264.865115249
177.96,264.827162943
177.962,264.821316265
177.977,264.777399149
177.992,264.73336335
178.007,264.689208314
178.022,264.64493348
178.037,264.60053828
178.052,264.556022142
178.067,264.511384491
178.082,264.466624741
178.097,264.421742303
178.112,264.376736583
178.127,264.33160698
178.142,264.286352887
178.157,264.24097369
178.172,264.195468771
178.187,264.149837504
178.202,264.104079257
178.217,264.058193392
178.232,264.012179264
178.247,263.966036223
178.262,263.91976361
178.277,263.873360761
178.292,263.826827005
178.307,263.780161664
178.322,263.733364053
178.337,263.686433479
178.352,263.639369243
178.367,263.59217064
178.382,263.544836954
178.397,263.497367466
178.41,263.456116831
178.412,263.449761446
178.427,263.40201816
178.442,263.354136862
178.457,263.306116801
178.472,263.257957219
178.487,263.209657349
178.502,263.161216414
178.517,263.112633632
178.532,263.063908212
178.547,263.015039354
178.562,262.96602625
178.577,262.916868084
178.592,262.86756403
178.607,262.818113255
178.622,262.768514917
178.637,262.718768163
178.652,262.668872136
178.667,262.618825964
178.682,262.568628769
178.697,262.518279665
178.712,262.467777754
178.727,262.41712213
178.742,262.366311877
178.757,262.315346069
178.772,262.264223771
178.787,262.212944039
178.802,262.161505916
178.817,262.109908439
178.832,262.05815063
178.847,262.006231506
178.862,261.95415007
178.877,261.901905316
178.892,261.849496227
178.907,261.796921774
178.922,261.744180921
178.937,261.691272616
178.952,261.6381958
178.967,261.584949402
178.982,261.531532338
178.997,261.477943514
179.012,261.424181825
179.027,261.370246154
179.042,261.316135372
179.057,261.261848337
179.072,261.207383899
179.087,261.152740891
179.102,261.097918138
179.117,261.042914451
179.132,260.987728627
179.147,260.932359454
179.16,260.884223581
179.162,260.876805706
179.177,260.821066142
179.192,260.765139511
179.207,260.709024549
179.222,260.652719977
179.237,260.596224505
179.252,260.539536828
179.267,260.482655629
179.282,260.425579576
179.297,260.368307325
179.312,260.310837517
179.327,260.25316878
179.342,260.195299727
179.357,260.137228957
179.372,260.078955057
179.387,260.020476597
179.402,259.961792134
179.417,259.902900209
179.432,259.84379935
179.447,259.784488069
179.462,259.724964864
179.477,259.665228218
179.492,259.605276597
179.507,259.545108454
179.522,259.484722225
179.537,259.424116332
179.552,259.363289179
179.567,259.302239158
179.582,259.24096464
179.597,259.179463985
179.612,259.117735533
179.627,259.055777611
179.642,258.993588526
179.657,258.931166572
179.672,258.868510024
179.687,258.805617141
179.702,258.742486166
179.717,258.679115323
179.732,258.61550282
179.747,258.551646848
179.762,258.48754558
179.777,258.423197171
179.792,258.35859976
179.807,258.293751466
179.822,258.228650391
179.837,258.16329462
179.852,258.097682217
179.867,258.031811231
179.882,257.96567969
179.897,257.899285603
179.91,257.841530139
179.912,257.832626962
179.927,257.765701739
179.942,257.698507887
179.957,257.631043339
179.972,257.563306009
179.987,257.495293792
180.002,257.427004562
180.017,257.358436174
180.032,257.289586462
180.047,257.220453239
180.062,257.151034301
180.077,257.081327418
180.092,257.011330343
180.107,256.941040807
180.122,256.870456519
180.137,256.799575166
180.152,256.728394414
180.167,256.656911909
180.182,256.58512527
180.197,256.513032099
180.212,256.440629971
180.227,256.367916441
180.242,256.294889039
180.257,256.221545273
180.272,256.147882626
180.287,256.073898559
180.302,255.999590506
180.317,255.924955879
180.332,255.849992065
180.347,255.774696424
180.362,255.699066293
180.377,255.623098982
180.392,255.546791775
180.407,255.47014193
180.422,255.393146678
180.437,255.315803224
180.452,255.238108744
180.467,255.160060388
180.482,255.081655277
180.497,255.002890503
180.512,254.92376313
180.527,254.844270192
180.542,254.764408694
180.557,254.684175611
180.56,254.668084135
180.572,254.603567885
180.587,254.522582432
180.602,254.441216131
180.617,254.359465833
180.632,254.277328354
180.647,254.19480048
180.66,254.122958025
180.662,254.111878961
180.677,254.028560515
180.692,253.944841823
180.707,253.860719535
180.722,253.776190263
180.737,253.691250584
180.752,253.605897037
180.767,253.520126127
180.782,253.433934318
180.797,253.347318039
180.812,253.260273678
180.827,253.172797585
180.842,253.084886071
180.857,252.996535403
180.872,252.907741812
180.887,252.818501483
180.902,252.728810563
180.917,252.638665152
180.932,252.548061309
180.947,252.45699505
180.962,252.365462344
180.977,252.273459118
180.992,252.18098125
181.007,252.088024574
181.022,251.994584876
181.037,251.900657896
181.052,251.806239326
181.067,251.711324807
181.082,251.615909934
181.097,251.519990251
181.112,251.423561252
181.127,251.326618382
181.142,251.229157034
181.157,251.131172548
181.172,251.032660216
181.187,250.933615273
181.202,250.834032907
181.217,250.733908247
181.232,250.633236374
181.247,250.532012313
181.262,250.430231035
181.277,250.327887458
181.292,250.224976446
181.307,250.121492807
181.31,250.100726904
181.322,250.017431298
181.337,249.912786619
181.352,249.807553416
181.367,249.701726282
181.382,249.595299756
181.397,249.488268321
181.412,249.380626409
181.427,249.272368399
181.442,249.163488615
181.457,249.05398133
181.472,248.943840768
181.487,248.833061098
181.502,248.721636442
181.517,248.609560873
181.532,248.496828413
181.547,248.383433041
181.562,248.26936869
181.577,248.154629245
181.592,248.039208554
181.607,247.923100422
181.622,247.806298614
181.637,247.68879686
181.652,247.570588855
181.667,247.451668263
181.682,247.332028719
181.697,247.211663831
181.712,247.090567183
181.727,246.968732344
181.742,246.846152862
181.757,246.722822278
181.772,246.598734124
181.787,246.473881929
181.802,246.348259227
181.817,246.22185956
181.832,246.094676482
181.847,245.966703573
181.862,245.837934437
181.877,245.708362715
181.892,245.577982094
181.907,245.446786311
181.922,245.314769166
181.937,245.181924533
181.952,245.048246366
181.967,244.913728719
181.982,244.778365751
181.997,244.642151742
182.012,244.505081112
182.027,244.367148431
182.042,244.228348439
182.057,244.088676066
182.06,244.060636473
182.072,243.948126446
182.087,243.806694947
182.102,243.664377186
182.117,243.521169058
182.132,243.377066763
182.147,243.23206683
182.162,243.086166154
182.177,242.939362024
182.192,242.791652161
182.207,242.643034757
182.222,242.493508514
182.237,242.343072688
182.252,242.191727141
182.267,242.039472384
182.282,241.88630964
182.297,241.7322409
182.312,241.577268983
182.327,241.421397611
182.342,241.264631476
182.357,241.106976321
182.372,240.948439026
182.387,240.789027695
182.402,240.628751757
182.417,240.467622069
182.432,240.305651026
182.447,240.142852686
182.462,239.979242893
182.477,239.814839421
182.492,239.649662117
182.507,239.483733063
182.522,239.317076746
182.537,239.149720236
182.552,238.981693384
182.567,238.813029031
182.582,238.643763223
182.597,238.473935456
182.612,238.303588924
182.627,238.132770788
182.642,237.961532464
182.657,237.789929928
182.672,237.618024035
182.687,237.445880864
182.702,237.273572084
182.717,237.101175328
182.732,236.928774604
182.747,236.756460716
182.762,236.58433171
182.777,236.412493336
182.792,236.241059538
182.807,236.070152951
182.822,235.899905428
182.837,235.730458568
182.852,235.561964266
182.867,235.394585266
182.882,235.228495718
182.897,235.063881735
182.912,234.900941933
182.927,234.739887959
182.942,234.580944989
182.957,234.424352178
182.972,234.270363057
182.987,234.119245852
183.002,233.971283702
183.017,233.826774757
183.032,233.686032112
183.047,233.549383553
183.062,233.417171064
183.077,233.289750048
183.092,233.167488197
183.107,233.05076396
183.122,232.939964528
183.137,232.835483266
183.152,232.737716528
183.167,232.647059787
183.182,232.563903051
183.197,232.488625563
183.212,232.421589823
183.227,232.363135055
183.242,232.313570318
183.257,232.273167505
183.367,232.270338432
183.382,232.309887782
183.397,232.358543593
183.412,232.416025492
183.427,232.482017517
183.442,232.556175102
183.457,232.638131901
183.472,232.7275062
183.487,232.823906732
183.502,232.926937817
183.517,233.036203775
183.532,233.151312631
183.547,233.271879159
183.562,233.397527313
183.577,233.527892135
183.592,233.662621193
183.607,233.801375625
183.622,233.943830858
183.637,234.089677049
183.652,234.238619294
183.667,234.390377661
183.682,234.544687066
183.697,234.701297038
183.712,234.859971378
183.727,235.02048776
183.742,235.182637264
183.757,235.346223879
183.772,235.511063974
183.787,235.676985751
183.802,235.843828696
183.817,236.011443018
183.832,236.1796891
183.847,236.348436958
183.862,236.51756571
183.877,236.686963057
183.892,236.856524791
183.907,237.026154308
183.922,237.195762154
183.937,237.36526558
183.952,237.534588128
183.967,237.703659228
183.982,237.872413822
183.997,238.040792006
184.012,238.208738693
184.027,238.376203291
184.042,238.543139407
184.057,238.709504562
184.072,238.875259925
184.087,239.040370066
184.102,239.204802719
184.117,239.368528568
184.132,239.531521037
184.147,239.693756103
184.162,239.855212112
184.177,240.015869614
184.192,240.175711208
184.207,240.334721392
184.222,240.492886431
184.237,240.650194225
184.252,240.806634197
184.267,240.962197173
184.282,241.11687529
184.297,241.27066189
184.312,241.423551437
184.327,241.575539432
184.342,241.726622332
184.357,241.876797485
184.372,242.026063056
184.387,242.174417965
184.402,242.321861834
184.417,242.468394927
184.432,242.614018102
184.447,242.758732766
184.462,242.902540826
184.477,243.045444653
184.492,243.187447044
184.507,243.328551184
184.522,243.468760614
184.537,243.608079205
184.552,243.746511124
184.56,243.819980452
184.567,243.884060808
184.582,244.020732947
184.597,244.156532451
184.612,244.291464436
184.627,244.425534201
184.642,244.558747214
184.657,244.691109088
184.672,244.822625573
184.687,244.953302535
184.702,245.083145946
184.717,245.212161871
184.732,245.340356457
184.747,245.467735919
184.762,245.594306532
184.777,245.720074623
184.792,245.845046562
184.807,245.969228748
184.822,246.092627613
184.837,246.215249603
184.852,246.33710118
184.867,246.458188812
184.882,246.578518971
184.897,246.698098121
184.912,246.816932723
184.927,246.935029222
184.942,247.052394048
184.957,247.169033611
184.972,247.284954296
184.987,247.400162463
185.002,247.514664441
185.017,247.628466528
185.032,247.741574985
185.047,247.853996039
185.062,247.965735876
185.077,248.076800641
185.092,248.187196437
185.107,248.296929323
185.122,248.406005312
185.137,248.51443037
185.152,248.622210414
185.167,248.729351316
185.182,248.835858892
185.197,248.941738913
185.212,249.046997095
185.227,249.151639102
185.242,249.255670549
185.257,249.359096993
185.272,249.461923941
185.287,249.564156845
185.302,249.665801104
185.31,249.719772533
185.317,249.766862063
185.332,249.86734501
185.347,249.967255183
185.362,250.066597762
185.377,250.165377876
185.392,250.263600597
185.407,250.361270946
185.422,250.458393888
185.437,250.554974335
185.452,250.651017146
185.467,250.746527126
185.482,250.84150903
185.497,250.935967557
185.512,251.029907356
185.527,251.123333024
185.542,251.216249108
185.557,251.308660101
185.572,251.40057045
185.587,251.491984548
185.602,251.582906741
185.617,251.673341325
185.632,251.763292549
185.647,251.852764613
185.662,251.94176167
185.677,252.030287825
185.692,252.118347139
185.707,252.205943626
185.722,252.293081254
185.737,252.379763947
185.752,252.465995587
185.767,252.551780009
185.782,252.637121008
185.797,252.722022334
185.812,252.806487698
185.827,252.890520767
185.842,252.97412517
185.857,253.057304493
185.872,253.140062286
185.887,253.222402057
185.902,253.304327276
185.917,253.385841376
185.932,253.466947753
185.947,253.547649764
185.96,253.61726699
185.962,253.627950733
185.977,253.707853944
185.992,253.78736265
186.007,253.866480067
186.022,253.945209376
186.037,254.023553726
186.052,254.101516232
186.06,254.142941168
186.067,254.179099976
186.082,254.256308007
186.097,254.333143345
186.112,254.409608976
186.127,254.485707855
186.142,254.561442908
186.157,254.636817029
186.172,254.711833084
186.187,254.78649391
186.202,254.860802313
186.217,254.934761073
186.232,255.008372941
186.247,255.08164064
186.262,255.154566866
186.277,255.227154288
186.292,255.299405548
186.307,255.371323264
186.322,255.442910025
186.337,255.514168397
186.352,255.58510092
186.367,255.655710108
186.382,255.725998451
186.397,255.795968417
186.412,255.865622447
186.427,255.93496296
186.442,256.003992351
186.457,256.072712993
186.472,256.141127234
186.487,256.209237402
186.502,256.2770458
186.517,256.344554713
186.532,256.411766399
186.547,256.478683099
186.562,256.545307031
186.577,256.611640391
186.592,256.677685355
186.607,256.743444079
186.622,256.808918698
186.637,256.874111327
186.652,256.939024061
186.667,257.003658975
186.682,257.068018124
186.697,257.132103546
186.71,257.187424389
186.712,257.195917256
186.727,257.259461254
186.742,257.322737519
186.757,257.385748011
186.772,257.448494673
186.787,257.510979429
186.802,257.573204184
186.817,257.635170828
186.832,257.69688123
186.847,257.758337244
186.862,257.819540704
186.877,257.880493429
186.892,257.941197219
186.907,258.00165386
186.922,258.061865118
186.937,258.121832744
186.952,258.181558472
186.967,258.24104402
186.982,258.300291089
186.997,258.359301366
187.012,258.41807652
187.027,258.476618204
187.042,258.534928057
187.057,258.593007702
187.072,258.650858745
187.087,258.70848278
187.102,258.765881383
187.117,258.823056115
187.132,258.880008525
187.147,258.936740145
187.162,258.993252492
187.177,259.04954707
187.192,259.105625368
187.207,259.161488861
187.222,259.217139009
187.237,259.27257726
187.252,259.327805045
187.267,259.382823785
187.282,259.437634885
187.297,259.492239736
187.312,259.546639719
187.327,259.600836197
187.342,259.654830523
187.357,259.708624037
187.372,259.762218064
187.387,259.815613919
187.402,259.868812903
187.417,259.921816302
187.432,259.974625394
187.447,260.027241442
187.46,260.072686833
187.462,260.079665697
187.477,260.131899398
187.492,260.183943772
187.507,260.235800034
187.522,260.287469389
187.537,260.338953027
187.552,260.390252128
187.567,260.441367862
187.582,260.492301385
187.597,260.543053845
187.612,260.593626374
187.627,260.644020098
187.642,260.694236129
187.657,260.74427557
187.672,260.79413951
187.687,260.843829033
187.702,260.893345206
187.717,260.94268909
187.732,260.991861735
187.747,261.040864179
187.762,261.089697452
187.777,261.138362572
187.792,261.186860549
187.807,261.235192381
187.822,261.283359059
187.837,261.331361561
187.852,261.379200859
187.867,261.426877913
187.882,261.474393674
187.897,261.521749085
187.912,261.56894508
187.927,261.615982581
187.942,261.662862503
187.957,261.709585754
187.972,261.756153231
187.987,261.802565821
188.002,261.848824405
188.017,261.894929855
188.032,261.940883034
188.047,261.986684795
188.062,262.032335987
188.077,262.077837447
188.092,262.123190005
188.107,262.168394483
188.122,262.213451697
188.137,262.258362452
188.152,262.303127547
188.167,262.347747773
188.182,262.392223914
188.197,262.436556746
188.21,262.474863206
188.212,262.480747037
188.227,262.524795549
188.242,262.568703035
188.257,262.612470243
188.272,262.656097913
188.287,262.699586776
188.302,262.74293756
188.317,262.786150982
188.332,262.829227756
188.347,262.872168586
188.362,262.914974172
188.377,262.957645205
188.392,263.000182372
188.407,263.042586352
188.422,263.084857818
188.437,263.126997437
188.452,263.169005869
188.467,263.210883768
188.482,263.252631784
188.497,263.294250559
188.512,263.335740729
188.527,263.377102925
188.542,263.418337772
188.557,263.459445888
188.572,263.500427888
188.587,263.541284379
188.602,263.582015964
188.617,263.622623239
188.632,263.663106797
188.647,263.703467223
188.66,263.738347108
188.662,263.743705099
188.677,263.783820999
188.692,263.823815495
188.707,263.863689153
188.722,263.903442532
188.737,263.943076188
