# 10410 EDZE Essen Observations at 12Z 03 Jul 2019
Frequency [GHz],TB
175.31,274.494323128
175.322,274.497232804
175.337,274.500704504
175.352,274.503991918
175.367,274.507094494
175.382,274.510011688
175.397,274.512742964
175.412,274.515287784
175.427,274.517645621
175.442,274.519815951
175.457,274.521798254
175.472,274.52359202
175.487,274.525196736
175.502,274.526611905
175.517,274.527837028
175.532,274.528871611
175.547,274.529715172
175.562,274.530367229
175.577,274.530827309
175.592,274.531094943
175.607,274.53116967
175.622,274.531051033
175.637,274.530738581
175.652,274.53023187
175.667,274.529530465
175.682,274.528633932
175.697,274.527541846
175.712,274.52625379
175.727,274.524769349
175.742,274.52308812
175.757,274.521209704
175.772,274.519133707
175.787,274.516859745
175.802,274.514387437
175.817,274.511716414
175.832,274.508846311
175.847,274.505776769
175.862,274.502507436
175.877,274.49903797
175.892,274.495368036
175.907,274.491497302
175.922,274.487425447
175.937,274.483152157
175.952,274.478677124
175.967,274.474000049
175.982,274.46912064
175.997,274.464038612
176.012,274.458753687
176.027,274.453265598
176.042,274.447574082
176.057,274.441678885
176.072,274.435579761
176.087,274.429276472
176.102,274.422768789
176.117,274.416056489
176.132,274.409139357
176.147,274.402017186
176.162,274.394689779
176.177,274.387156947
176.192,274.379418506
176.207,274.371474284
176.222,274.363324113
176.237,274.354967838
176.252,274.346405309
176.267,274.337636384
176.282,274.328660933
176.297,274.319478829
176.31,274.311353757
176.312,274.310089957
176.327,274.300494211
176.342,274.290691491
176.357,274.280681705
176.372,274.270464774
176.387,274.260040621
176.402,274.249409182
176.417,274.2385704
176.432,274.227524227
176.447,274.216270624
176.46,274.206349686
176.462,274.204809556
176.477,274.193141003
176.492,274.181264949
176.507,274.169181389
176.522,274.156890324
176.537,274.144391764
176.552,274.131685732
176.567,274.118772251
176.582,274.105651359
176.597,274.092323102
176.612,274.078787528
176.627,274.065044704
176.642,274.051094695
176.657,274.03693758
176.672,274.022573444
176.687,274.008002382
176.702,273.993224496
176.717,273.978239894
176.732,273.963048697
176.747,273.94765103
176.762,273.932047028
176.777,273.916236832
176.792,273.900220594
176.807,273.883998469
176.822,273.867570625
176.837,273.850937233
176.852,273.834098475
176.867,273.81705454
176.882,273.799805623
176.897,273.782351928
176.912,273.764693662
176.927,273.746831045
176.942,273.728764303
176.957,273.710493666
176.972,273.692019374
176.987,273.67334167
177.002,273.654460807
177.017,273.635377046
177.032,273.616090649
177.047,273.59660189
177.062,273.576911045
177.077,273.557018399
177.092,273.536924243
177.107,273.516628871
177.122,273.496132586
177.137,273.475435695
177.152,273.45453851
177.167,273.433441352
177.182,273.412144541
177.197,273.390648406
177.21,273.371857449
177.212,273.368953281
177.227,273.347059504
177.242,273.324967418
177.257,273.302677369
177.272,273.28018971
177.287,273.257504793
177.302,273.234622981
177.31,273.222338963
177.317,273.211544633
177.332,273.188270119
177.347,273.164799807
177.362,273.14113407
177.377,273.117273283
177.392,273.093217826
177.407,273.06896808
177.422,273.044524428
177.437,273.019887256
177.452,272.995056951
177.467,272.970033902
177.482,272.944818499
177.497,272.919411136
177.512,272.893812205
177.527,272.8680221
177.542,272.842041212
177.557,272.81586994
177.572,272.789508679
177.587,272.762957819
177.602,272.736217756
177.617,272.709288884
177.632,272.682171596
177.647,272.654866281
177.66,272.631049885
177.662,272.62737333
177.677,272.599693131
177.692,272.57182607
177.707,272.543772528
177.722,272.51553289
177.737,272.487107532
177.752,272.458496828
177.767,272.429701154
177.782,272.400720873
177.797,272.37155635
177.812,272.342207946
177.827,272.312676014
177.842,272.282960907
177.857,272.253062966
177.872,272.222982534
177.887,272.192719941
177.902,272.162275517
177.917,272.131649581
177.932,272.100842448
177.947,272.069854425
177.96,272.042852049
177.962,272.038685811
177.977,272.007336897
177.992,271.975807967
178.007,271.944099296
178.022,271.912211152
178.037,271.88014379
178.052,271.847897459
178.067,271.815472398
178.082,271.782868833
178.097,271.750086983
178.112,271.717127053
178.127,271.68398924
178.142,271.650673729
178.157,271.617180689
178.172,271.583510283
178.187,271.549662657
178.202,271.515637946
178.217,271.481436272
178.232,271.44705774
178.247,271.412502447
178.262,271.377770471
178.277,271.342861877
178.292,271.307776714
178.307,271.272515017
178.322,271.237076805
178.337,271.201462079
178.352,271.165670825
178.367,271.129703014
178.382,271.093558597
178.397,271.057237508
178.41,271.025616259
178.412,271.020739664
178.427,270.984064962
178.442,270.947213283
178.457,270.910184487
178.472,270.872978416
178.487,270.835594891
178.502,270.798033712
178.517,270.760294664
178.532,270.722377503
178.547,270.684281972
178.562,270.646007785
178.577,270.607554641
178.592,270.568922213
178.607,270.530110152
178.622,270.491118088
178.637,270.451945622
178.652,270.412592338
178.667,270.373057796
178.682,270.333341528
178.697,270.293443041
178.712,270.253361822
178.727,270.213097326
178.742,270.172648991
178.757,270.132016222
178.772,270.091198399
178.787,270.050194879
178.802,270.009004989
178.817,269.967628028
178.832,269.926063271
178.847,269.884309962
178.862,269.84236732
178.877,269.80023453
178.892,269.757910756
178.907,269.715395128
178.922,269.672686747
178.937,269.629784683
178.952,269.586687981
178.967,269.543395653
178.982,269.499906679
178.997,269.456220011
179.012,269.412334566
179.027,269.368249236
179.042,269.323962876
179.057,269.279474311
179.072,269.234782333
179.087,269.189885704
179.102,269.144783153
179.117,269.099473372
179.132,269.053955027
179.147,269.008226741
179.16,268.968424661
179.162,268.962287116
179.177,268.916134709
179.192,268.869768048
179.207,268.823185627
179.222,268.776385905
179.237,268.729367306
179.252,268.682128219
179.267,268.634666999
179.282,268.586981963
179.297,268.539071397
179.312,268.490933549
179.327,268.442566628
179.342,268.393968816
179.357,268.345138248
179.372,268.296073031
179.387,268.246771232
179.402,268.197230883
179.417,268.147449976
179.432,268.097426468
179.447,268.047158284
179.462,267.996643303
179.477,267.945879374
179.492,267.894864304
179.507,267.843595866
179.522,267.792071794
179.537,267.740289784
179.552,267.688247495
179.567,267.635942548
179.582,267.583372525
179.597,267.530534974
179.612,267.477427401
179.627,267.424047276
179.642,267.370392031
179.657,267.316459061
179.672,267.262245716
179.687,267.20774932
179.702,267.152967151
179.717,267.097896449
179.732,267.042534418
179.747,266.986878225
179.762,266.930924997
179.777,266.874671823
179.792,266.818115758
179.807,266.761253813
179.822,266.704082967
179.837,266.646600157
179.852,266.588802287
179.867,266.530686222
179.882,266.472248788
179.897,266.413486774
179.91,266.36229464
179.912,266.354396936
179.927,266.294975989
179.942,266.235220613
179.957,266.175127452
179.972,266.114693113
179.987,266.053914169
180.002,265.992787154
180.017,265.931308569
180.032,265.869474881
180.047,265.807282516
180.062,265.744727874
180.077,265.681807313
180.092,265.618517162
180.107,265.554853714
180.122,265.49081323
180.137,265.426391937
180.152,265.361586029
180.167,265.296391669
180.182,265.230804989
180.197,265.164822088
180.212,265.098439035
180.227,265.031651868
180.242,264.964456597
180.257,264.896849201
180.272,264.828825632
180.287,264.760381811
180.302,264.691513635
180.317,264.622216972
180.332,264.552487663
180.347,264.482321525
180.362,264.41171435
180.377,264.340661907
180.392,264.269159936
180.407,264.197204161
180.422,264.12479028
180.437,264.051913972
180.452,263.978570894
180.467,263.904756685
180.482,263.830466965
180.497,263.755697337
180.512,263.680443384
180.527,263.604700679
180.542,263.528464776
180.557,263.451731218
180.56,263.436324394
180.572,263.374495532
180.587,263.29675324
180.602,263.218499846
180.617,263.13973085
180.632,263.060441745
180.647,262.980628012
180.66,262.91102825
180.662,262.90028513
180.677,262.819408576
180.692,262.737993821
180.707,262.656036337
180.722,262.573531592
180.737,262.490475063
180.752,262.406862224
180.767,262.322688553
180.782,262.23794954
180.797,262.152640678
180.812,262.066757472
180.827,261.980295438
180.842,261.893250102
180.857,261.80561701
180.872,261.71739172
180.887,261.628569812
180.902,261.539146884
180.917,261.449118558
180.932,261.358480481
180.947,261.267228325
180.962,261.175357792
180.977,261.082864615
180.992,260.98974456
181.007,260.89599343
181.022,260.80160706
181.037,260.706581336
181.052,260.610912177
181.067,260.514595553
181.082,260.41762748
181.097,260.320004027
181.112,260.221721313
181.127,260.122775516
181.142,260.023162874
181.157,259.922879684
181.172,259.821922312
181.187,259.720287188
181.202,259.617970819
181.217,259.514969784
181.232,259.41128074
181.247,259.306900426
181.262,259.201825668
181.277,259.096053378
181.292,258.989580566
181.307,258.882404334
181.31,258.860884429
181.322,258.774521885
181.337,258.66593053
181.352,258.556627684
181.367,258.44661088
181.382,258.335877767
181.397,258.224426115
181.412,258.112253822
181.427,257.999358918
181.442,257.885739568
181.457,257.771394082
181.472,257.656320915
181.487,257.540518674
181.502,257.423986128
181.517,257.306722202
181.532,257.188726002
181.547,257.0699968
181.562,256.950534058
181.577,256.83033742
181.592,256.709406732
181.607,256.587742038
181.622,256.465343594
181.637,256.342211874
181.652,256.218347575
181.667,256.093751627
181.682,255.968425205
181.697,255.842369726
181.712,255.715586874
181.727,255.588078593
181.742,255.459847108
181.757,255.330894929
181.772,255.201224864
181.787,255.070840023
181.802,254.939743839
181.817,254.807940071
181.832,254.675432819
181.847,254.542226533
181.862,254.408326029
181.877,254.273736499
181.892,254.138463526
181.907,254.002513096
181.922,253.865891613
181.937,253.728605911
181.952,253.590663275
181.967,253.452071451
181.982,253.312838664
181.997,253.172973633
182.012,253.032485594
182.027,252.891384308
182.042,252.749680089
182.057,252.607383817
182.06,252.578854514
182.072,252.46450696
182.087,252.321061591
182.102,252.177060414
182.117,252.032516781
182.132,251.887444714
182.147,251.741858929
182.162,251.595774862
182.177,251.449208684
182.192,251.302177335
182.207,251.154698543
182.222,251.00679085
182.237,250.85847364
182.252,250.709767163
182.267,250.560692562
182.282,250.411271901
182.297,250.261528191
182.312,250.111485417
182.327,249.961168568
182.342,249.810603658
182.357,249.659817759
182.372,249.508839026
182.387,249.357696719
182.402,249.20642123
182.417,249.055044111
182.432,248.903598087
182.447,248.752117083
182.462,248.600636241
182.477,248.449191929
182.492,248.297821765
182.507,248.14656461
182.522,247.995460585
182.537,247.84455106
182.552,247.693878649
182.567,247.543487197
182.582,247.393421751
182.597,247.243728533
182.612,247.094454895
182.627,246.945649262
182.642,246.797361062
182.657,246.64964064
182.672,246.502539161
182.687,246.356108481
182.702,246.210401001
182.717,246.065469495
182.732,245.921366918
182.747,245.778146162
182.762,245.635859796
182.777,245.494559758
182.792,245.354296998
182.807,245.215121084
182.822,245.077079743
182.837,244.940218346
182.852,244.804579336
182.867,244.67020157
182.882,244.537119609
182.897,244.405362906
182.912,244.27495494
182.927,244.145912255
182.942,244.01824344
182.957,243.891948049
182.972,243.767015507
182.987,243.643424032
183.002,243.521139664
183.017,243.400115523
183.032,243.280291483
183.047,243.161594551
183.062,243.043940385
183.077,242.927236601
183.092,242.81138882
183.107,242.696310823
183.122,242.581940819
183.137,242.468266545
183.152,242.355362871
183.167,242.243446417
183.182,242.132952056
183.197,242.024634778
183.212,241.919695366
183.227,241.819916292
183.242,241.727772158
183.257,241.646447983
183.367,241.649384608
183.382,241.72949031
183.397,241.819567244
183.412,241.916603148
183.427,242.018304352
183.442,242.123046466
183.457,242.229752767
183.472,242.337758747
183.487,242.446691898
183.502,242.556376442
183.517,242.666762825
183.532,242.777877855
183.547,242.88979065
183.562,243.00259006
183.577,243.116370168
183.592,243.231221311
183.607,243.347224823
183.622,243.46445025
183.637,243.582954158
183.652,243.702779955
183.667,243.823958341
183.682,243.946508112
183.697,244.070437166
183.712,244.195743584
183.727,244.322416719
183.742,244.450438262
183.757,244.579783242
183.772,244.71042096
183.787,244.842315848
183.802,244.975428242
183.817,245.109715081
183.832,245.245130543
183.847,245.381626599
183.862,245.519153514
183.877,245.657660284
183.892,245.797095024
183.907,245.937405309
183.922,246.078538467
183.937,246.220441842
183.952,246.36306301
183.967,246.506349976
183.982,246.650251338
183.997,246.794716424
184.012,246.939695411
184.027,247.08513942
184.042,247.231000603
184.057,247.377232203
184.072,247.523788607
184.087,247.670625387
184.102,247.817699329
184.117,247.964968456
184.132,248.112392036
184.147,248.259930595
184.162,248.407545907
184.177,248.555201004
184.192,248.702860149
184.207,248.850488836
184.222,248.998053769
184.237,249.145522841
184.252,249.29286512
184.267,249.440050817
184.282,249.58705127
184.297,249.733838913
184.312,249.880387254
184.327,250.026670843
184.342,250.17266525
184.357,250.318347037
184.372,250.463693727
184.387,250.60868378
184.402,250.753296562
184.417,250.897512321
184.432,251.041312164
184.447,251.184678018
184.462,251.327592618
184.477,251.470039474
184.492,251.612002847
184.507,251.753467729
184.522,251.894419812
184.537,252.03484547
184.552,252.174731736
184.56,252.24911291
184.567,252.314066279
184.582,252.452837381
184.597,252.591033921
184.612,252.728645351
184.627,252.865661678
184.642,253.002073444
184.657,253.13787171
184.672,253.273048034
184.687,253.407594462
184.702,253.541503502
184.717,253.674768111
184.732,253.807381684
184.747,253.939338035
184.762,254.070631382
184.777,254.201256338
184.792,254.331207883
184.807,254.460481376
184.822,254.589072517
184.837,254.716977351
184.852,254.844192249
184.867,254.970713898
184.882,255.096539295
184.897,255.221665726
184.912,255.346090766
184.927,255.469812262
184.942,255.592828328
184.957,255.715137334
184.972,255.836737896
184.987,255.95762887
185.002,256.077809339
185.017,256.197278613
185.032,256.316036211
185.047,256.434081862
185.062,256.551415495
185.077,256.668037226
185.092,256.783947364
185.107,256.899146392
185.122,257.013634969
185.137,257.127413914
185.152,257.240484215
185.167,257.352847008
185.182,257.464503581
185.197,257.575455365
185.212,257.68570393
185.227,257.795250977
185.242,257.904098338
185.257,258.012247965
185.272,258.119701936
185.287,258.226462433
185.302,258.332531757
185.31,258.388820275
185.317,258.43791231
185.332,258.542606596
185.347,258.64661722
185.362,258.749946875
185.377,258.852598348
185.392,258.954574512
185.407,259.055878321
185.422,259.156512811
185.437,259.256481091
185.452,259.355786345
185.467,259.454431823
185.482,259.552420847
185.497,259.649756797
185.512,259.746443118
185.527,259.842483307
185.542,259.937880922
185.557,260.03263957
185.572,260.126762906
185.587,260.220254636
185.602,260.313118508
185.617,260.405358311
185.632,260.496977878
185.647,260.587981077
185.662,260.678371805
185.677,260.768154006
185.692,260.857331644
185.707,260.945908713
185.722,261.033889238
185.737,261.121277267
185.752,261.20807687
185.767,261.29429214
185.782,261.379927185
185.797,261.464986139
185.812,261.549473145
185.827,261.633392361
185.842,261.716747961
185.857,261.799544126
185.872,261.881785051
185.887,261.963474932
185.902,262.044617981
185.917,262.125218408
185.932,262.20528043
185.947,262.284808266
185.96,262.353303554
185.962,262.363806135
185.977,262.442278255
185.992,262.520228847
186.007,262.597662126
186.022,262.674582304
186.037,262.750993588
186.052,262.826900181
186.06,262.867178782
186.067,262.902306276
186.082,262.977216059
186.097,263.05163371
186.112,263.125563394
186.127,263.199009271
186.142,263.271975481
186.157,263.344466161
186.172,263.416485426
186.187,263.488037384
186.202,263.55912612
186.217,263.629755711
186.232,263.699930212
186.247,263.769653661
186.262,263.838930079
186.277,263.907763469
186.292,263.976157815
186.307,264.044117076
186.322,264.111645197
186.337,264.178746096
186.352,264.245423675
186.367,264.311681808
186.382,264.377524349
186.397,264.442955128
186.412,264.507977951
186.427,264.5725966
186.442,264.636814832
186.457,264.700636379
186.472,264.764064946
186.487,264.827104215
186.502,264.889757837
186.517,264.952029442
186.532,265.013922628
186.547,265.075440968
186.562,265.136588007
186.577,265.197367261
186.592,265.257782219
186.607,265.317836341
186.622,265.377533058
186.637,265.436875772
186.652,265.495867857
186.667,265.554512655
186.682,265.61281348
186.697,265.670773617
186.71,265.720732673
186.712,265.72839632
186.727,265.785684813
186.742,265.842642289
186.757,265.89927191
186.772,265.955576813
186.787,266.011560096
186.802,266.067224832
186.817,266.122574062
186.832,266.177610796
186.847,266.232338012
186.862,266.286758658
186.877,266.34087565
186.892,266.394691875
186.907,266.448210188
186.922,266.501433411
186.937,266.554364336
186.952,266.607005725
186.967,266.659360308
186.982,266.711430783
186.997,266.763219818
187.012,266.81473005
187.027,266.865964084
187.042,266.916924494
187.057,266.967613825
187.072,267.018034588
187.087,267.068189266
187.102,267.118080309
187.117,267.167710138
187.132,267.217081141
187.147,267.266195679
187.162,267.315056079
187.177,267.36366464
187.192,267.41202363
187.207,267.460135286
187.222,267.508001816
187.237,267.555625398
187.252,267.603008179
187.267,267.650152278
187.282,267.697059784
187.297,267.743732755
187.312,267.790173223
187.327,267.836383187
187.342,267.882364618
187.357,267.928119461
187.372,267.973649629
187.387,268.018957009
187.402,268.064043456
187.417,268.1089108
187.432,268.153560843
187.447,268.197995356
187.46,268.236332279
187.462,268.242216087
187.477,268.286224751
187.492,268.33002304
187.507,268.373612619
187.522,268.416995122
187.537,268.460172158
187.552,268.503145311
187.567,268.545916137
187.582,268.588486168
187.597,268.630856905
187.612,268.673029831
187.627,268.715006394
187.642,268.756788023
187.657,268.798376121
187.672,268.839772066
187.687,268.880977207
187.702,268.921992874
187.717,268.96282037
187.732,269.003460975
187.747,269.043915942
187.762,269.084186504
187.777,269.12427387
187.792,269.164179223
187.807,269.203903726
187.822,269.243448516
187.837,269.282814712
187.852,269.322003405
187.867,269.36101567
187.882,269.399852553
187.897,269.438515085
187.912,269.477004273
187.927,269.515321099
187.942,269.553466531
187.957,269.591441511
187.972,269.629246963
187.987,269.666883789
188.002,269.704352873
188.017,269.741655076
188.032,269.778791244
188.047,269.8157622
188.062,269.852568749
188.077,269.889211676
188.092,269.925691752
188.107,269.962009722
188.122,269.998166321
188.137,270.03416226
188.152,270.069998235
188.167,270.105674923
188.182,270.141192988
188.197,270.176553071
188.21,270.207071172
188.212,270.2117558
188.227,270.246801787
188.242,270.281691626
188.257,270.316425896
188.272,270.351005161
188.287,270.385429968
188.302,270.41970085
188.317,270.453818322
188.332,270.487782888
188.347,270.521595038
188.362,270.555255244
188.377,270.588763967
188.392,270.622121652
188.407,270.655328732
188.422,270.688385626
188.437,270.721292741
188.452,270.754050469
188.467,270.786659191
188.482,270.819119277
188.497,270.851431082
188.512,270.883594951
188.527,270.915611216
188.542,270.947480197
188.557,270.979202207
188.572,271.010777543
188.587,271.042206494
188.602,271.073489337
188.617,271.104626341
188.632,271.135617763
188.647,271.166463849
188.66,271.19307975
188.662,271.197164839
188.677,271.227720962
188.692,271.258132436
188.707,271.28839947
188.722,271.318522269
188.737,271.348501025
