# 48698 WSSS Singapore Observations at 12Z 22 Nov 2019
Frequency [GHz],TB
175.31,271.762172459
175.322,271.739793037
175.337,271.711760773
175.352,271.683663911
175.367,271.655502273
175.382,271.627275676
175.397,271.598983939
175.412,271.570626879
175.427,271.542204312
175.442,271.513716052
175.457,271.485161914
175.472,271.456541711
175.487,271.427855254
175.502,271.399102354
175.517,271.370282822
175.532,271.341396465
175.547,271.312443091
175.562,271.283422509
175.577,271.254334521
175.592,271.225178934
175.607,271.195955551
175.622,271.166664173
175.637,271.137304602
175.652,271.107876639
175.667,271.078380081
175.682,271.048814727
175.697,271.019180373
175.712,270.989476815
175.727,270.959703847
175.742,270.929861263
175.757,270.899948853
175.772,270.869966409
175.787,270.839913721
175.802,270.809790577
175.817,270.779596764
175.832,270.749332067
175.847,270.718996272
175.862,270.688589162
175.877,270.658110519
175.892,270.627560123
175.907,270.596937755
175.922,270.566243193
175.937,270.535476213
175.952,270.504636592
175.967,270.473724104
175.982,270.442738521
175.997,270.411679615
176.012,270.380547157
176.027,270.349340916
176.042,270.318060659
176.057,270.286706152
176.072,270.255277161
176.087,270.223773447
176.102,270.192194775
176.117,270.160540902
176.132,270.128811591
176.147,270.097006596
176.162,270.065125675
176.177,270.033168583
176.192,270.001135072
176.207,269.969024893
176.222,269.936837798
176.237,269.904573535
176.252,269.87223185
176.267,269.839812489
176.282,269.807315195
176.297,269.774739713
176.31,269.74644418
176.312,269.742085781
176.327,269.709353139
176.342,269.676541524
176.357,269.643650673
176.372,269.610680318
176.387,269.577630194
176.402,269.54450003
176.417,269.511289556
176.432,269.477998498
176.447,269.444626583
176.46,269.415638639
176.462,269.411173535
176.477,269.377639074
176.492,269.344022923
176.507,269.310324799
176.522,269.27654442
176.537,269.242681499
176.552,269.20873575
176.567,269.174706885
176.582,269.140594612
176.597,269.106398639
176.612,269.072118672
176.627,269.037754414
176.642,269.003305568
176.657,268.968771831
176.672,268.934152903
176.687,268.89944848
176.702,268.864658254
176.717,268.829781917
176.732,268.79481916
176.747,268.75976967
176.762,268.724633132
176.777,268.68940923
176.792,268.654097645
176.807,268.618698056
176.822,268.583210141
176.837,268.547633573
176.852,268.511968026
176.867,268.47621317
176.882,268.440368673
176.897,268.404434201
176.912,268.368409417
176.927,268.332293983
176.942,268.296087558
176.957,268.259789798
176.972,268.223400358
176.987,268.186918889
177.002,268.15034504
177.017,268.113678459
177.032,268.076918791
177.047,268.040065676
177.062,268.003118755
177.077,267.966077665
177.092,267.928942039
177.107,267.891711511
177.122,267.854385708
177.137,267.816964258
177.152,267.779446783
177.167,267.741832907
177.182,267.704122246
177.197,267.666314418
177.21,267.633468735
177.212,267.628409033
177.227,267.590405704
177.242,267.552304037
177.257,267.514103636
177.272,267.475804104
177.287,267.437405038
177.302,267.398906035
177.31,267.378332229
177.317,267.360306687
177.332,267.321606584
177.347,267.282805313
177.362,267.243902457
177.377,267.204897597
177.392,267.16579031
177.407,267.126580171
177.422,267.08726675
177.437,267.047849616
177.452,267.008328332
177.467,266.968702461
177.482,266.928971559
177.497,266.889135182
177.512,266.84919288
177.527,266.809144202
177.542,266.768988691
177.557,266.728725888
177.572,266.68835533
177.587,266.64787655
177.602,266.60728908
177.617,266.566592443
177.632,266.525786164
177.647,266.48486976
177.66,266.449319423
177.662,266.443842746
177.677,266.402704634
177.692,266.361454931
177.707,266.320093139
177.722,266.278618758
177.737,266.237031283
177.752,266.195330206
177.767,266.153515011
177.782,266.111585184
177.797,266.069540202
177.812,266.02737954
177.827,265.985102667
177.842,265.942709049
177.857,265.900198147
177.872,265.857569418
177.887,265.814822313
177.902,265.771956281
177.917,265.728970763
177.932,265.685865199
177.947,265.642639021
177.96,265.60507833
177.962,265.599291659
177.977,265.555822535
177.992,265.512231069
178.007,265.468516673
178.022,265.424678758
178.037,265.380716725
178.052,265.336629974
178.067,265.292417897
178.082,265.248079882
178.097,265.203615312
178.112,265.159023562
178.127,265.114304005
178.142,265.069456005
178.157,265.024478923
178.172,264.979372113
178.187,264.934134922
178.202,264.888766694
178.217,264.843266765
178.232,264.797634464
178.247,264.751869116
178.262,264.705970039
178.277,264.659936544
178.292,264.613767936
178.307,264.567463513
178.322,264.521022568
178.337,264.474444385
178.352,264.427728243
178.367,264.380873414
178.382,264.333879161
178.397,264.286744743
178.41,264.245780957
178.412,264.23946941
178.427,264.192052404
178.442,264.144492961
178.457,264.09679031
178.472,264.04894367
178.487,264.000952254
178.502,263.952815268
178.517,263.904531908
178.532,263.856101363
178.547,263.807522814
178.562,263.758795434
178.577,263.709918386
178.592,263.660890826
178.607,263.611711902
178.622,263.56238075
178.637,263.512896501
178.652,263.463258274
178.667,263.413465181
178.682,263.363516322
178.697,263.313410791
178.712,263.26314767
178.727,263.212726031
178.742,263.162144938
178.757,263.111403444
178.772,263.060500591
178.787,263.009435412
178.802,262.958206929
178.817,262.906814152
178.832,262.855256084
178.847,262.803531712
178.862,262.751640016
178.877,262.699579962
178.892,262.647350506
178.907,262.594950592
178.922,262.542379152
178.937,262.489635106
178.952,262.436717362
178.967,262.383624816
178.982,262.33035635
178.997,262.276910835
179.012,262.223287127
179.027,262.169484072
179.042,262.1155005
179.057,262.061335227
179.072,262.006987058
179.087,261.952454782
179.102,261.897737174
179.117,261.842832996
179.132,261.787740993
179.147,261.732459897
179.16,261.684395667
179.162,261.676988425
179.177,261.621325278
179.192,261.565469142
179.207,261.509418686
179.222,261.453172564
179.237,261.396729416
179.252,261.340087861
179.267,261.283246505
179.282,261.226203935
179.297,261.168958722
179.312,261.111509419
179.327,261.053854562
179.342,260.995992667
179.357,260.937922235
179.372,260.879641746
179.387,260.821149663
179.402,260.762444427
179.417,260.703524463
179.432,260.644388176
179.447,260.585033949
179.462,260.525460146
179.477,260.465665112
179.492,260.405647169
179.507,260.34540462
179.522,260.284935745
179.537,260.224238803
179.552,260.163312033
179.567,260.102153648
179.582,260.040761841
179.597,259.979134783
179.612,259.91727062
179.627,259.855167476
179.642,259.79282345
179.657,259.730236617
179.672,259.667405029
179.687,259.604326712
179.702,259.540999669
179.717,259.477421874
179.732,259.41359128
179.747,259.349505809
179.762,259.285163362
179.777,259.220561809
179.792,259.155698995
179.807,259.090572738
179.822,259.025180827
179.837,258.959521025
179.852,258.893591066
179.867,258.827388654
179.882,258.760911465
179.897,258.694157147
179.91,258.636077397
179.912,258.627123317
179.927,258.559807562
179.942,258.492207439
179.957,258.424320475
179.972,258.356144165
179.987,258.287675973
180.002,258.218913333
180.017,258.149853646
180.032,258.080494278
180.047,258.010832568
180.062,257.940865818
180.077,257.870591297
180.092,257.800006242
180.107,257.729107856
180.122,257.657893307
180.137,257.58635973
180.152,257.514504223
180.167,257.44232385
180.182,257.36981564
180.197,257.296976587
180.212,257.223803648
180.227,257.150293744
180.242,257.076443758
180.257,257.00225054
180.272,256.9277109
180.287,256.852821611
180.302,256.777579409
180.317,256.701980993
180.332,256.626023022
180.347,256.54970212
180.362,256.473014869
180.377,256.395957814
180.392,256.318527461
180.407,256.240720278
180.422,256.162532692
180.437,256.083961092
180.452,256.005001826
180.467,255.925651204
180.482,255.845905496
180.497,255.76576093
180.512,255.685213697
180.527,255.604259946
180.542,255.522895786
180.557,255.441117285
180.56,255.424711515
180.572,255.358920473
180.587,255.276301338
180.602,255.193255827
180.617,255.109779849
180.632,255.025869271
180.647,254.941519919
180.66,254.868058973
180.662,254.856727581
180.677,254.771488002
180.692,254.68579689
180.707,254.599649912
180.722,254.513042694
180.737,254.425970823
180.752,254.338429848
180.767,254.250415276
180.782,254.161922579
180.797,254.072947185
180.812,253.983484489
180.827,253.893529844
180.842,253.803078567
180.857,253.712125938
180.872,253.620667197
180.887,253.528697552
180.902,253.43621217
180.917,253.343206187
180.932,253.249674699
180.947,253.155612773
180.962,253.061015436
180.977,252.965877686
180.992,252.870194487
181.007,252.77396077
181.022,252.677171435
181.037,252.579821353
181.052,252.481905362
181.067,252.383418273
181.082,252.284354871
181.097,252.184709908
181.112,252.084478115
181.127,251.983654196
181.142,251.882232829
181.157,251.780208671
181.172,251.677576355
181.187,251.574330495
181.202,251.470465684
181.217,251.365976496
181.232,251.260857488
181.247,251.155103201
181.262,251.048708161
181.277,250.941666882
181.292,250.833973865
181.307,250.725623599
181.31,250.703874191
181.322,250.616610569
181.337,250.506929248
181.352,250.396574105
181.367,250.285539605
181.382,250.173820212
181.397,250.061410388
181.412,249.948304596
181.427,249.834497305
181.442,249.719982985
181.457,249.604756117
181.472,249.488811189
181.487,249.372142701
181.502,249.254745165
181.517,249.136613111
181.532,249.017741084
181.547,248.898123651
181.562,248.777755401
181.577,248.656630947
181.592,248.53474493
181.607,248.412092021
181.622,248.288666924
181.637,248.164464377
181.652,248.039479156
181.667,247.913706079
181.682,247.787140008
181.697,247.659775849
181.712,247.531608562
181.727,247.402633158
181.742,247.272844706
181.757,247.142238333
181.772,247.010809234
181.787,246.878552668
181.802,246.745463967
181.817,246.611538542
181.832,246.47677188
181.847,246.341159557
181.862,246.204697238
181.877,246.067380683
181.892,245.929205754
181.907,245.79016842
181.922,245.650264762
181.937,245.509490984
181.952,245.367843415
181.967,245.225318519
181.982,245.081912905
181.997,244.937623335
182.012,244.79244673
182.027,244.646380186
182.042,244.499420984
182.057,244.351566598
182.06,244.321888092
182.072,244.202814715
182.087,244.053163242
182.102,243.90261033
182.117,243.751154384
182.132,243.598794085
182.147,243.445528408
182.162,243.291356648
182.177,243.13627844
182.192,242.980293784
182.207,242.823403078
182.222,242.665607146
182.237,242.506907271
182.252,242.347305232
182.267,242.186803345
182.282,242.025404504
182.297,241.863112228
182.312,241.699930713
182.327,241.535864887
182.342,241.370920468
182.357,241.205104031
182.372,241.038423076
182.387,240.870886107
182.402,240.70250271
182.417,240.533283642
182.432,240.363240932
182.447,240.192387976
182.462,240.020739652
182.477,239.848312441
182.492,239.67512455
182.507,239.501196054
182.522,239.326549041
182.537,239.151207768
182.552,238.975198834
182.567,238.798551355
182.582,238.62129716
182.597,238.443470989
182.612,238.265110717
182.627,238.086257577
182.642,237.906956407
182.657,237.727255907
182.672,237.547208905
182.687,237.36687265
182.702,237.186309104
182.717,237.005585256
182.732,236.824773453
182.747,236.643951736
182.762,236.463204193
182.777,236.282621327
182.792,236.10230043
182.807,235.922345972
182.822,235.742869996
182.837,235.563992524
182.852,235.385841973
182.867,235.20855557
182.882,235.032279785
182.897,234.857170765
182.912,234.683394783
182.927,234.511128703
182.942,234.340560473
182.957,234.171889646
182.972,234.005327975
182.987,233.841100077
183.002,233.679444238
183.017,233.520613388
183.032,233.364876333
183.047,233.212519331
183.062,233.063848141
183.077,232.919190678
183.092,232.778900456
183.107,232.643360981
183.122,232.512991272
183.137,232.388252587
183.152,232.269656293
183.167,232.157772492
183.182,232.053238537
183.197,231.956765757
183.212,231.86914173
183.227,231.791224282
183.242,231.72392256
183.257,231.668160787
183.367,231.668182979
183.382,231.723566664
183.397,231.790275656
183.412,231.86738688
183.427,231.954002693
183.442,232.049282513
183.457,232.152458124
183.472,232.262837275
183.487,232.379800037
183.502,232.502791483
183.517,232.631313074
183.532,232.764914203
183.547,232.90318462
183.562,233.045748031
183.577,233.192256896
183.592,233.342388298
183.607,233.495840728
183.622,233.652331604
183.637,233.811595361
183.652,233.973381978
183.667,234.137455819
183.682,234.303594715
183.697,234.471589198
183.712,234.641241863
183.727,234.812366796
183.742,234.984789062
183.757,235.158344222
183.772,235.332877877
183.787,235.508245219
183.802,235.684310603
183.817,235.860947121
183.832,236.038036181
183.847,236.215467097
183.862,236.393136691
183.877,236.570948892
183.892,236.748814357
183.907,236.926650094
183.922,237.104379102
183.937,237.281930018
183.952,237.459236785
183.967,237.636238325
183.982,237.812878229
183.997,237.989104462
184.012,238.164869084
184.027,238.340127977
184.042,238.514840594
184.057,238.68896972
184.072,238.862481242
184.087,239.035343936
184.102,239.207529264
184.117,239.379011189
184.132,239.549765992
184.147,239.719772107
184.162,239.889009968
184.177,240.057461858
184.192,240.225111777
184.207,240.391945314
184.222,240.557949529
184.237,240.72311284
184.252,240.887424928
184.267,241.050876633
184.282,241.213459875
184.297,241.375167566
184.312,241.535993535
184.327,241.695932465
184.342,241.854979818
184.357,242.013131784
184.372,242.17038522
184.387,242.326737605
184.402,242.482186988
184.417,242.636731946
184.432,242.790371548
184.447,242.943105313
184.462,243.094933181
184.477,243.245855477
184.492,243.395872888
184.507,243.544986434
184.522,243.693197443
184.537,243.840507531
184.552,243.98691858
184.56,244.064637593
184.567,244.132432722
184.582,244.277052317
184.597,244.42077994
184.612,244.56361837
184.627,244.705570568
184.642,244.846639672
184.657,244.986828984
184.672,245.126141955
184.687,245.264582182
184.702,245.402153394
184.717,245.538859445
184.732,245.674704307
184.747,245.809692062
184.762,245.943826896
184.777,246.077113091
184.792,246.20955502
184.807,246.341157143
184.822,246.471924
184.837,246.601860205
184.852,246.730970445
184.867,246.859259472
184.882,246.986732103
184.897,247.11339321
184.912,247.239247723
184.927,247.364300622
184.942,247.488556934
184.957,247.612021732
184.972,247.73470013
184.987,247.856597281
185.002,247.977718373
185.017,248.098068628
185.032,248.217653297
185.047,248.336477659
185.062,248.454547019
185.077,248.571866704
185.092,248.688442062
185.107,248.804278458
185.122,248.919381275
185.137,249.033755908
185.152,249.147407765
185.167,249.260342262
185.182,249.372564825
185.197,249.484080885
185.212,249.594895877
185.227,249.705015238
185.242,249.814444407
185.257,249.923188818
185.272,250.031253908
185.287,250.138645103
185.302,250.24536783
185.31,250.302015157
185.317,250.351427502
185.332,250.456829527
185.347,250.561579303
185.362,250.665682212
185.377,250.769143628
185.392,250.871968908
185.407,250.974163392
185.422,251.075732407
185.437,251.176681259
185.452,251.277015235
185.467,251.376739603
185.482,251.47585961
185.497,251.574380477
185.512,251.672307407
185.527,251.769645576
185.542,251.866400133
185.557,251.962576205
185.572,252.05817889
185.587,252.153213258
185.602,252.247684351
185.617,252.341597182
185.632,252.434956734
185.647,252.527767961
185.662,252.620035782
185.677,252.711765089
185.692,252.802960738
185.707,252.893627554
185.722,252.983770328
185.737,253.073393817
185.752,253.162502746
185.767,253.251101801
185.782,253.339195636
185.797,253.426788869
185.812,253.513886082
185.827,253.60049182
185.842,253.686610593
185.857,253.772246873
185.872,253.857405096
185.887,253.94208966
185.902,254.026304927
185.917,254.110055218
185.932,254.193344821
185.947,254.276177983
185.96,254.347600767
185.962,254.358558913
185.977,254.440491783
185.992,254.521980727
186.007,254.60302984
186.022,254.683643178
186.037,254.763824761
186.052,254.843578569
186.06,254.885940382
186.067,254.922908542
186.082,255.001818585
186.097,255.080312563
186.112,255.158394304
186.127,255.236067595
186.142,255.313336187
186.157,255.390203794
186.172,255.46667409
186.187,255.542750711
186.202,255.618437257
186.217,255.69373729
186.232,255.768654334
186.247,255.843191876
186.262,255.917353365
186.277,255.991142215
186.292,256.064561803
186.307,256.137615466
186.322,256.210306509
186.337,256.2826382
186.352,256.354613769
186.367,256.426236411
186.382,256.497509288
186.397,256.568435522
186.412,256.639018205
186.427,256.709260391
186.442,256.779165102
186.457,256.848735321
186.472,256.917974004
186.487,256.986884066
186.502,257.055468394
186.517,257.12372984
186.532,257.191671221
186.547,257.259295326
186.562,257.326604906
186.577,257.393602685
186.592,257.460291352
186.607,257.526673565
186.622,257.592751953
186.637,257.658529111
186.652,257.724007605
186.667,257.78918997
186.682,257.854078713
186.697,257.918676309
186.71,257.974427277
186.712,257.982985203
186.727,258.047007814
186.742,258.110746531
186.757,258.174203711
186.772,258.237381689
186.787,258.300282766
186.802,258.362909219
186.817,258.425263298
186.832,258.487347225
186.847,258.549163193
186.862,258.610713374
186.877,258.671999908
186.892,258.733024914
186.907,258.793790481
186.922,258.854298678
186.937,258.914551545
186.952,258.974551099
186.967,259.034299333
186.982,259.093798215
186.997,259.15304969
187.012,259.212055679
187.027,259.270818081
187.042,259.329338771
187.057,259.387619601
187.072,259.445662404
187.087,259.503468986
187.102,259.561041135
187.117,259.618380617
187.132,259.675489176
187.147,259.732368534
187.162,259.789020395
187.177,259.845446441
187.192,259.901648335
187.207,259.957627719
187.222,260.013386216
187.237,260.06892543
187.252,260.124246945
187.267,260.179352327
187.282,260.234243124
187.297,260.288920865
187.312,260.34338706
187.327,260.397643203
187.342,260.45169077
187.357,260.505531219
187.372,260.55916599
187.387,260.61259651
187.402,260.665824186
187.417,260.718850409
187.432,260.771676554
187.447,260.824303982
187.46,260.869754717
187.462,260.876734035
187.477,260.928968043
187.492,260.981007318
187.507,261.032853158
187.522,261.084506846
187.537,261.135969652
187.552,261.187242829
187.567,261.238327616
187.582,261.289225241
187.597,261.339936914
187.612,261.390463835
187.627,261.440807189
187.642,261.490968146
187.657,261.540947867
187.672,261.590747496
187.687,261.640368168
187.702,261.689811003
187.717,261.739077109
187.732,261.788167583
187.747,261.837083508
187.762,261.885825958
187.777,261.934395993
187.792,261.982794663
187.807,262.031023006
187.822,262.079082049
187.837,262.126972807
187.852,262.174696287
187.867,262.222253481
187.882,262.269645376
187.897,262.316872943
187.912,262.363937148
187.927,262.410838942
187.942,262.45757927
187.957,262.504159065
187.972,262.550579251
187.987,262.596840743
188.002,262.642944446
188.017,262.688891255
188.032,262.734682058
188.047,262.780317732
188.062,262.825799146
188.077,262.871127162
188.092,262.916302629
188.107,262.961326391
188.122,263.006199284
188.137,263.050922133
188.152,263.095495758
188.167,263.139920968
188.182,263.184198566
188.197,263.228329347
188.21,263.266457874
188.212,263.272314098
188.227,263.316153598
188.242,263.359848619
188.257,263.403399927
188.272,263.446808277
188.287,263.490074421
188.302,263.533199101
188.317,263.576183054
188.332,263.61902701
188.347,263.661731689
188.362,263.704297808
188.377,263.746726077
188.392,263.789017199
188.407,263.831171868
188.422,263.873190776
188.437,263.915074606
188.452,263.956824035
188.467,263.998439736
188.482,264.039922373
188.497,264.081272605
188.512,264.122491088
188.527,264.163578468
188.542,264.204535387
188.557,264.245362483
188.572,264.286060387
188.587,264.326629723
188.602,264.367071112
188.617,264.40738517
188.632,264.447572505
188.647,264.487633722
188.66,264.522251891
188.662,264.52756942
188.677,264.567380194
188.692,264.607066633
188.707,264.64662932
188.722,264.686068836
188.737,264.725385756
