# 01004 ENAS Ny-Alesund Ii Observations at 12Z 13 Nov 2019
Frequency [GHz],TB
175.31,244.003782319
175.322,244.068766237
175.337,244.150028066
175.352,244.231324151
175.367,244.312653171
175.382,244.394013789
175.397,244.475404651
175.412,244.556824392
175.427,244.638271631
175.442,244.719744974
175.457,244.801243009
175.472,244.882764312
175.487,244.964307444
175.502,245.045870948
175.517,245.127453359
175.532,245.209053188
175.547,245.290668937
175.562,245.372299092
175.577,245.453942119
175.592,245.535596476
175.607,245.6172606
175.622,245.698932914
175.637,245.780611826
175.652,245.862295727
175.667,245.943982995
175.682,246.025671988
175.697,246.10736105
175.712,246.189048511
175.727,246.270732682
175.742,246.35241186
175.757,246.434084324
175.772,246.515748337
175.787,246.597402147
175.802,246.679043984
175.817,246.760672064
175.832,246.842284584
175.847,246.923879723
175.862,247.005455648
175.877,247.087010506
175.892,247.168542429
175.907,247.250049528
175.922,247.331529904
175.937,247.412981635
175.952,247.494402786
175.967,247.5757914
175.982,247.65714551
175.997,247.738463125
176.012,247.819742242
176.027,247.900980837
176.042,247.982176871
176.057,248.063328287
176.072,248.144433009
176.087,248.225488946
176.102,248.306493989
176.117,248.387446011
176.132,248.468342867
176.147,248.549182396
176.162,248.629962418
176.177,248.710680734
176.192,248.791335133
176.207,248.87192338
176.222,248.952443224
176.237,249.032892399
176.252,249.113268619
176.267,249.193569582
176.282,249.273792962
176.297,249.353936426
176.31,249.423327627
176.312,249.433997614
176.327,249.513974153
176.342,249.59386365
176.357,249.673663695
176.372,249.753371861
176.387,249.832985703
176.402,249.912502755
176.417,249.991920541
176.432,250.071236556
176.447,250.15044829
176.46,250.219012145
176.462,250.229553205
176.477,250.308548749
176.492,250.387432354
176.507,250.466201433
176.522,250.54485338
176.537,250.623385575
176.552,250.701795378
176.567,250.78008013
176.582,250.858237158
176.597,250.936263769
176.612,251.014157256
176.627,251.091914891
176.642,251.16953393
176.657,251.247011611
176.672,251.324345162
176.687,251.401531782
176.702,251.478568661
176.717,251.555452972
176.732,251.632181869
176.747,251.70875249
176.762,251.785161958
176.777,251.861407374
176.792,251.937485832
176.807,252.013394403
176.822,252.08913014
176.837,252.164690087
176.852,252.240071268
176.867,252.315270692
176.882,252.390285351
176.897,252.465112223
176.912,252.539748271
176.927,252.614190441
176.942,252.688435666
176.957,252.762480863
176.972,252.836322935
176.987,252.909958768
177.002,252.983385236
177.017,253.056599199
177.032,253.129597501
177.047,253.202376975
177.062,253.274934438
177.077,253.347266693
177.092,253.419370532
177.107,253.491242733
177.122,253.56288006
177.137,253.634279267
177.152,253.705437093
177.167,253.776350266
177.182,253.847015502
177.197,253.917429507
177.21,253.978249202
177.212,253.987588971
177.227,254.057490579
177.242,254.127131
177.257,254.196506894
177.272,254.265614913
177.287,254.334451697
177.302,254.403013874
177.31,254.439466919
177.317,254.471298068
177.332,254.539300887
177.347,254.607018937
177.362,254.674448812
177.377,254.741587095
177.392,254.80843037
177.407,254.874975204
177.422,254.941218162
177.437,255.007155801
177.452,255.07278467
177.467,255.138101316
177.482,255.203102274
177.497,255.267784082
177.512,255.332143265
177.527,255.396176349
177.542,255.459879853
177.557,255.523250291
177.572,255.586284178
177.587,255.648978025
177.602,255.711328338
177.617,255.773331621
177.632,255.834984379
177.647,255.896283116
177.66,255.949119621
177.662,255.957224333
177.677,256.017804531
177.692,256.078020214
177.707,256.137867883
177.722,256.197344046
177.737,256.256445202
177.752,256.315167866
177.767,256.373508547
177.782,256.431463759
177.797,256.489030019
177.812,256.546203851
177.827,256.602981782
177.842,256.659360344
177.857,256.715336077
177.872,256.770905526
177.887,256.826065243
177.902,256.880811789
177.917,256.935141731
177.932,256.989051647
177.947,257.042538125
177.96,257.088547926
177.962,257.095597761
177.977,257.148227161
177.992,257.200422945
178.007,257.252181744
178.022,257.3035002
178.037,257.35437497
178.052,257.404802724
178.067,257.454780146
178.082,257.504303934
178.097,257.553370807
178.112,257.601977493
178.127,257.650120742
178.142,257.697797319
178.157,257.745004012
178.172,257.791737622
178.187,257.837994971
178.202,257.883772905
178.217,257.929068289
178.232,257.973878009
178.247,258.018198975
178.262,258.062028118
178.277,258.105362397
178.292,258.148198788
178.307,258.190534301
178.322,258.232365968
178.337,258.273690847
178.352,258.314506025
178.367,258.354808615
178.382,258.394595761
178.397,258.433864639
178.41,258.467476278
178.412,258.472612447
178.427,258.510836423
178.442,258.548533833
178.457,258.585701974
178.472,258.622338178
178.487,258.658439811
178.502,258.694004274
178.517,258.729029002
178.532,258.763511467
178.547,258.797449176
178.562,258.830839678
178.577,258.863680554
178.592,258.895969428
178.607,258.927703964
178.622,258.958881864
178.637,258.98950087
178.652,259.01955877
178.667,259.049053394
178.682,259.077982607
178.697,259.106344327
178.712,259.134136514
178.727,259.161357169
178.742,259.188004344
178.757,259.214076133
178.772,259.239570681
178.787,259.264486177
178.802,259.288820858
178.817,259.312573014
178.832,259.335740979
178.847,259.358323141
178.862,259.380317936
178.877,259.401723853
178.892,259.42253943
178.907,259.442763259
178.922,259.462393985
178.937,259.481430305
178.952,259.499870969
178.967,259.517714785
178.982,259.534960607
178.997,259.551607353
179.012,259.567653994
179.027,259.583099553
179.042,259.597943112
179.057,259.612183812
179.072,259.625820845
179.087,259.638853465
179.102,259.651280981
179.117,259.663102761
179.132,259.674318231
179.147,259.684926875
179.16,259.693629824
179.162,259.694928236
179.177,259.704321914
179.192,259.71310757
179.207,259.721284924
179.222,259.728853751
179.237,259.735813893
179.252,259.742165244
179.267,259.74790776
179.282,259.753041458
179.297,259.757566412
179.312,259.761482757
179.327,259.764790686
179.342,259.76749045
179.357,259.769582365
179.372,259.771066797
179.387,259.771944178
179.402,259.772214995
179.417,259.771879792
179.432,259.770939176
179.447,259.769393807
179.462,259.767244402
179.477,259.764491739
179.492,259.761136649
179.507,259.757180021
179.522,259.752622795
179.537,259.747465975
179.552,259.74171061
179.567,259.735357808
179.582,259.728408731
179.597,259.720864589
179.612,259.712726648
179.627,259.703996224
179.642,259.694674684
179.657,259.684763443
179.672,259.674263965
179.687,259.663177766
179.702,259.6515064
179.717,259.639251478
179.732,259.626414647
179.747,259.612997604
179.762,259.599002087
179.777,259.584429873
179.792,259.569282785
179.807,259.553562682
179.822,259.537271463
179.837,259.520411062
179.852,259.502983452
179.867,259.484990638
179.882,259.466434659
179.897,259.447317586
179.91,259.430297219
179.912,259.427641522
179.927,259.407408597
179.942,259.386620967
179.957,259.365280818
179.972,259.343390357
179.987,259.320951816
180.002,259.297967447
180.017,259.274439521
180.032,259.25037033
180.047,259.22576218
180.062,259.200617388
180.077,259.174938291
180.092,259.148727232
180.107,259.121986564
180.122,259.094718648
180.137,259.066925849
180.152,259.038610537
180.167,259.009775083
180.182,258.980421857
180.197,258.950553228
180.212,258.920171559
180.227,258.889279208
180.242,258.857878523
180.257,258.825971844
180.272,258.793561497
180.287,258.760649793
180.302,258.727239028
180.317,258.693331478
180.332,258.658929398
180.347,258.624035021
180.362,258.588650554
180.377,258.552778177
180.392,258.516420042
180.407,258.479578267
180.422,258.442254937
180.437,258.404452103
180.452,258.366171775
180.467,258.327415926
180.482,258.288186484
180.497,258.248485334
180.512,258.208314313
180.527,258.167675211
180.542,258.126569766
180.557,258.084999663
180.56,258.076630028
180.572,258.042966531
180.587,258.000471943
180.602,257.957517413
180.617,257.914104393
180.632,257.870234269
180.647,257.825908365
180.66,257.787124878
180.662,257.781127936
180.677,257.735894168
180.692,257.690208175
180.707,257.644070998
180.722,257.597483601
180.737,257.550446872
180.752,257.502961622
180.767,257.455028577
180.782,257.406648384
180.797,257.357821603
180.812,257.308548709
180.827,257.258830088
180.842,257.20866604
180.857,257.15805677
180.872,257.107002393
180.887,257.055502929
180.902,257.003558304
180.917,256.951168345
180.932,256.898332781
180.947,256.845051246
180.962,256.791323269
180.977,256.737148279
180.992,256.682525602
181.007,256.627454462
181.022,256.571933977
181.037,256.515963159
181.052,256.459540916
181.067,256.402666049
181.082,256.345337249
181.097,256.287553103
181.112,256.229312087
181.127,256.170612569
181.142,256.11145281
181.157,256.051830961
181.172,255.991745064
181.187,255.931193052
181.202,255.87017275
181.217,255.808681876
181.232,255.746718038
181.247,255.684278739
181.262,255.621361375
181.277,255.557963236
181.292,255.494081508
181.307,255.429713275
181.31,255.416780984
181.322,255.364855516
181.337,255.299505115
181.352,255.233658849
181.367,255.167313407
181.382,255.100465377
181.397,255.033111256
181.412,254.965247453
181.427,254.896870284
181.442,254.827975985
181.457,254.758560709
181.472,254.688620529
181.487,254.618151444
181.502,254.547149382
181.517,254.475610202
181.532,254.403529703
181.547,254.330903623
181.562,254.257727647
181.577,254.183997412
181.592,254.109708512
181.607,254.034856504
181.622,253.959436914
181.637,253.883445244
181.652,253.806876976
181.667,253.729727586
181.682,253.651992542
181.697,253.573667322
181.712,253.494747415
181.727,253.415228333
181.742,253.33510562
181.757,253.254374862
181.772,253.173031698
181.787,253.091071828
181.802,253.008491026
181.817,252.925285155
181.832,252.841450171
181.847,252.756982146
181.862,252.671877275
181.877,252.586131889
181.892,252.499742476
181.907,252.41270569
181.922,252.325018372
181.937,252.23667756
181.952,252.147680514
181.967,252.058024728
181.982,251.967707949
181.997,251.876728199
182.012,251.785083794
182.027,251.692773361
182.042,251.599795865
182.057,251.506150626
182.06,251.487341415
182.072,251.411837341
182.087,251.316856112
182.102,251.221207466
182.117,251.12489238
182.132,251.027912306
182.147,250.930269196
182.162,250.83196553
182.177,250.733004339
182.192,250.633389235
182.207,250.533124437
182.222,250.432214799
182.237,250.330665836
182.252,250.228483753
182.267,250.125675476
182.282,250.022248672
182.297,249.918211783
182.312,249.813574053
182.327,249.708345549
182.342,249.602537192
182.357,249.496160777
182.372,249.389229
182.387,249.281755478
182.402,249.173754768
182.417,249.065242385
182.432,248.956234815
182.447,248.846749528
182.462,248.736804986
182.477,248.626420642
182.492,248.515616943
182.507,248.404415318
182.522,248.292838167
182.537,248.180908833
182.552,248.068651578
182.567,247.956091533
182.582,247.843254649
182.597,247.730167632
182.612,247.616857853
182.627,247.503353255
182.642,247.389682227
182.657,247.275873462
182.672,247.161955785
182.687,247.04795795
182.702,246.933908399
182.717,246.819834986
182.732,246.705764642
182.747,246.591722993
182.762,246.477733907
182.777,246.363818966
182.792,246.249996843
182.807,246.136282579
182.822,246.022686725
182.837,245.909214343
182.852,245.795863811
182.867,245.68262543
182.882,245.569479751
182.897,245.456395594
182.912,245.34332767
182.927,245.230213722
182.942,245.116971066
182.957,245.003492378
182.972,244.889640535
182.987,244.775242235
183.002,244.660080051
183.017,244.543882435
183.032,244.426311016
183.047,244.30694427
183.062,244.185256254
183.077,244.060588535
183.092,243.932112548
183.107,243.798778284
183.122,243.659243019
183.137,243.511770314
183.152,243.354083688
183.167,243.183149491
183.182,242.994846278
183.197,242.783447582
183.212,242.540790922
183.227,242.254914286
183.242,241.907820407
183.257,241.472114147
183.367,241.574709388
183.382,241.98049475
183.397,242.305768721
183.412,242.575170277
183.427,242.804886314
183.442,243.005741758
183.457,243.185176146
183.472,243.348444256
183.487,243.499350967
183.502,243.640711649
183.517,243.774648486
183.532,243.902786391
183.547,244.026385856
183.562,244.146435176
183.577,244.263715871
183.592,244.378850021
183.607,244.492335137
183.622,244.604570268
183.637,244.715875859
183.652,244.826509043
183.667,244.936675576
183.682,245.046539255
183.697,245.156229422
183.712,245.265847001
183.727,245.375469397
183.742,245.485154493
183.757,245.594943952
183.772,245.704865934
183.787,245.814937372
183.802,245.925165866
183.817,246.035551281
183.832,246.146087088
183.847,246.256761504
183.862,246.367558453
183.877,246.478458393
183.892,246.589439009
183.907,246.700475813
183.922,246.81154265
183.937,246.922612139
183.952,247.033656039
183.967,247.144645567
183.982,247.255551673
183.997,247.366345267
184.012,247.476997415
184.027,247.587479505
184.042,247.697763388
184.057,247.807821492
184.072,247.917626919
184.087,248.027153529
184.102,248.136375999
184.117,248.245269879
184.132,248.35381163
184.147,248.461978654
184.162,248.569749319
184.177,248.677102967
184.192,248.784019928
184.207,248.890481518
184.222,248.996470037
184.237,249.101968761
184.252,249.206961931
184.267,249.311434739
184.282,249.415373313
184.297,249.518764694
184.312,249.621596817
184.327,249.72385849
184.342,249.825539366
184.357,249.926629923
184.372,250.027121435
184.387,250.127005945
184.402,250.226276242
184.417,250.324925831
184.432,250.422948906
184.447,250.520340324
184.462,250.617095579
184.477,250.71321077
184.492,250.808682583
184.507,250.903508257
184.522,250.997685561
184.537,251.09121277
184.552,251.18408864
184.56,251.233355822
184.567,251.276312382
184.582,251.367883637
184.597,251.458802459
184.612,251.549069286
184.627,251.638684922
184.642,251.727650512
184.657,251.815967528
184.672,251.903637741
184.687,251.990663209
184.702,252.077046252
184.717,252.162789439
184.732,252.24789557
184.747,252.332367656
184.762,252.416208905
184.777,252.499422708
184.792,252.582012622
184.807,252.663982357
184.822,252.745335761
184.837,252.826076809
184.852,252.906209589
184.867,252.985738289
184.882,253.064667188
184.897,253.143000643
184.912,253.220743079
184.927,253.297898982
184.942,253.374472882
184.957,253.450469353
184.972,253.525892997
184.987,253.600748442
185.002,253.675040328
185.017,253.748773304
185.032,253.821952018
185.047,253.894581115
185.062,253.966665224
185.077,254.038208958
185.092,254.109216905
185.107,254.179693622
185.122,254.249643635
185.137,254.319071427
185.152,254.387981439
185.167,254.456378064
185.182,254.524265643
185.197,254.591648462
185.212,254.658530746
185.227,254.724916659
185.242,254.790810299
185.257,254.856215698
185.272,254.921136813
185.287,254.985577532
185.302,255.049541665
185.31,255.083462291
185.317,255.113032946
185.332,255.176055028
185.347,255.238611484
185.362,255.300705805
185.377,255.362341397
185.392,255.42352158
185.407,255.484249588
185.422,255.544528569
185.437,255.604361581
185.452,255.663751592
185.467,255.722701485
185.482,255.781214046
185.497,255.839291976
185.512,255.89693788
185.527,255.954154278
185.542,256.010943592
185.557,256.067308159
185.572,256.123250218
185.587,256.178771924
185.602,256.233875335
185.617,256.288562422
185.632,256.342835064
185.647,256.396695051
185.662,256.450144084
185.677,256.503183774
185.692,256.555815645
185.707,256.608041133
185.722,256.659861588
185.737,256.711278273
185.752,256.762292366
185.767,256.812904963
185.782,256.863117075
185.797,256.912929631
185.812,256.962343479
185.827,257.011359387
185.842,257.059978045
185.857,257.108200064
185.872,257.15602598
185.887,257.20345625
185.902,257.250491263
185.917,257.297131329
185.932,257.343376692
185.947,257.38922752
185.96,257.428645854
185.962,257.434683919
185.977,257.479745923
185.992,257.524413502
186.007,257.56868656
186.022,257.612564941
186.037,257.656048424
186.052,257.69913673
186.06,257.721955462
186.067,257.741829522
186.082,257.784126406
186.097,257.82602693
186.112,257.867530592
186.127,257.908636835
186.142,257.949345054
186.157,257.989654591
186.172,258.029564745
186.187,258.069074766
186.202,258.108183861
186.217,258.146891194
186.232,258.18519589
186.247,258.223097031
186.262,258.260593663
186.277,258.297684797
186.292,258.334369408
186.307,258.370646439
186.322,258.406514801
186.337,258.441973376
186.352,258.477021018
186.367,258.511656553
186.382,258.545878785
186.397,258.579686492
186.412,258.613078431
186.427,258.646053341
186.442,258.678609939
186.457,258.710746928
186.472,258.742462995
186.487,258.77375681
186.502,258.804627036
186.517,258.83507232
186.532,258.865091302
186.547,258.894682614
186.562,258.923844882
186.577,258.952576726
186.592,258.980876762
186.607,259.008743606
186.622,259.036175869
186.637,259.063172166
186.652,259.089731115
186.667,259.115851333
186.682,259.141531445
186.697,259.16677008
186.71,259.188285404
186.712,259.191565875
186.727,259.215917474
186.742,259.239823533
186.757,259.263282717
186.772,259.286293702
186.787,259.308855181
186.802,259.330965856
186.817,259.35262445
186.832,259.373829696
186.847,259.394580351
186.862,259.414875185
186.877,259.434712993
186.892,259.454092585
186.907,259.473012797
186.922,259.491472484
186.937,259.509470528
186.952,259.527005831
186.967,259.544077325
186.982,259.560683963
186.997,259.57682473
187.012,259.592498633
187.027,259.607704711
187.042,259.622442033
187.057,259.636709694
187.072,259.650506823
187.087,259.663832577
187.102,259.676686147
187.117,259.689066757
187.132,259.700973663
187.147,259.712406153
187.162,259.723363552
187.177,259.733845216
187.192,259.743850541
187.207,259.753378954
187.222,259.76242992
187.237,259.771002941
187.252,259.779097554
187.267,259.786713335
187.282,259.793849897
187.297,259.800506889
187.312,259.806684001
187.327,259.81238096
187.342,259.817597532
187.357,259.822333521
187.372,259.826588771
187.387,259.830363166
187.402,259.833656627
187.417,259.836469118
187.432,259.83880064
187.447,259.840651235
187.46,259.84186613
187.462,259.842020985
187.477,259.842910011
187.492,259.843318476
187.507,259.843246581
187.522,259.842694568
187.537,259.841662719
187.552,259.840151357
187.567,259.838160844
187.582,259.835691581
187.597,259.83274401
187.612,259.829318615
187.627,259.825415914
187.642,259.821036472
187.657,259.816180885
187.672,259.810849795
187.687,259.805043882
187.702,259.79876386
187.717,259.792010487
187.732,259.784784559
187.747,259.777086907
187.762,259.768918403
187.777,259.760279954
187.792,259.751172509
187.807,259.741597049
187.822,259.731554596
187.837,259.721046206
187.852,259.710072973
187.867,259.698636026
187.882,259.686736529
187.897,259.674375684
187.912,259.661554726
187.927,259.648274923
187.942,259.634537583
187.957,259.620344042
187.972,259.605695671
187.987,259.590593876
188.002,259.575040095
188.017,259.559035797
188.032,259.542582484
188.047,259.52568169
188.062,259.508334979
188.077,259.490543946
188.092,259.472310217
188.107,259.453635448
188.122,259.434521322
188.137,259.414969553
188.152,259.394981885
188.167,259.374560086
188.182,259.353705954
188.197,259.332421316
188.21,259.313627826
188.212,259.31070802
188.227,259.288567947
188.242,259.266002998
188.257,259.243015102
188.272,259.219606215
188.287,259.195778311
188.302,259.171533393
188.317,259.146873488
188.332,259.121800643
188.347,259.096316927
188.362,259.070424432
188.377,259.044125275
188.392,259.017421587
188.407,258.990315525
188.422,258.962809263
188.437,258.934904998
188.452,258.906604942
188.467,258.877911328
188.482,258.848826407
188.497,258.819352446
188.512,258.789491733
188.527,258.759246567
188.542,258.728619268
188.557,258.697612171
188.572,258.666227623
188.587,258.634467991
188.602,258.602335651
188.617,258.569832998
188.632,258.536962436
188.647,258.503726386
188.66,258.474628047
188.662,258.470127278
188.677,258.436167556
188.692,258.401849677
188.707,258.367176105
188.722,258.33214932
