# 48698 WSSS Singapore Observations at 12Z 19 Jul 2019
Frequency [GHz],TB
175.31,283.36965843
175.322,283.350035297
175.337,283.325432574
175.352,283.300747615
175.367,283.275980161
175.382,283.25112995
175.397,283.226196721
175.412,283.201180219
175.427,283.176080166
175.442,283.150896302
175.457,283.125628352
175.472,283.100276037
175.487,283.074839091
175.502,283.049317222
175.517,283.023710146
175.532,282.998017591
175.547,282.972239259
175.562,282.94637486
175.577,282.920424099
175.592,282.894386676
175.607,282.868262295
175.622,282.842050649
175.637,282.815751429
175.652,282.789364329
175.667,282.762889036
175.682,282.736325234
175.697,282.709672595
175.712,282.682930806
175.727,282.656099541
175.742,282.629178466
175.757,282.602167246
175.772,282.575065549
175.787,282.54787303
175.802,282.520589354
175.817,282.493214169
175.832,282.465747125
175.847,282.438187871
175.862,282.410536044
175.877,282.382791284
175.892,282.35495323
175.907,282.327021516
175.922,282.298995758
175.937,282.270875588
175.952,282.242660625
175.967,282.214350482
175.982,282.185944777
175.997,282.157443119
176.012,282.128845107
176.027,282.100150336
176.042,282.071358416
176.057,282.042468926
176.072,282.013481468
176.087,281.984395613
176.102,281.955210947
176.117,281.925927043
176.132,281.896543474
176.147,281.867059804
176.162,281.837475597
176.177,281.807790415
176.192,281.778003799
176.207,281.748115311
176.222,281.718124496
176.237,281.68803088
176.252,281.657834012
176.267,281.627533417
176.282,281.597128624
176.297,281.566619152
176.31,281.540092562
176.312,281.536004516
176.327,281.505284232
176.342,281.474457804
176.357,281.443524731
176.372,281.412484521
176.387,281.381336655
176.402,281.350080621
176.417,281.31871591
176.432,281.287241989
176.447,281.255658339
176.46,281.228196661
176.462,281.223964419
176.477,281.192159685
176.492,281.160243613
176.507,281.128215637
176.522,281.096075209
176.537,281.063821771
176.552,281.031454751
176.567,280.998973578
176.582,280.966377689
176.597,280.933666491
176.612,280.900839396
176.627,280.867895817
176.642,280.834835147
176.657,280.801656792
176.672,280.768360138
176.687,280.734944562
176.702,280.701409446
176.717,280.667754168
176.732,280.633978089
176.747,280.600080569
176.762,280.566060962
176.777,280.531918615
176.792,280.497652879
176.807,280.463263071
176.822,280.42874854
176.837,280.394108603
176.852,280.359342574
176.867,280.324449762
176.882,280.289429474
176.897,280.254281006
176.912,280.219003656
176.927,280.1835967
176.942,280.148059411
176.957,280.112391076
176.972,280.076590953
176.987,280.040658296
177.002,280.004592356
177.017,279.968392383
177.032,279.932057611
177.047,279.895587264
177.062,279.858980578
177.077,279.822236761
177.092,279.785355023
177.107,279.748334563
177.122,279.711174584
177.137,279.673874269
177.152,279.636432798
177.167,279.598849339
177.182,279.561123065
177.197,279.523253144
177.21,279.490315675
177.212,279.4852387
177.227,279.4470789
177.242,279.408772865
177.257,279.37031973
177.272,279.331718615
177.287,279.292968628
177.302,279.254068874
177.31,279.233260792
177.317,279.215018457
177.332,279.175816462
177.347,279.136461963
177.362,279.096954042
177.377,279.057291762
177.392,279.017474176
177.407,278.977500337
177.422,278.937369287
177.437,278.897080051
177.452,278.856631654
177.467,278.816023118
177.482,278.775253446
177.497,278.734321633
177.512,278.693226677
177.527,278.651967551
177.542,278.610543234
177.557,278.568952693
177.572,278.527194877
177.587,278.485268735
177.602,278.443173204
177.617,278.400907211
177.632,278.358469682
177.647,278.315859532
177.66,278.278790242
177.662,278.273075646
177.677,278.230116931
177.692,278.186982268
177.707,278.143670533
177.722,278.100180587
177.737,278.056511288
177.752,278.012661488
177.767,277.968630019
177.782,277.924415709
177.797,277.880017378
177.812,277.835433837
177.827,277.790663884
177.842,277.745706306
177.857,277.700559891
177.872,277.655223396
177.887,277.609695596
177.902,277.563975234
177.917,277.518061049
177.932,277.471951786
177.947,277.425646149
177.96,277.385354767
177.962,277.379142859
177.977,277.332440611
177.992,277.285538103
178.007,277.238434014
178.022,277.191127011
178.037,277.143615756
178.052,277.0958989
178.067,277.047975082
178.082,276.999842937
178.097,276.951501073
178.112,276.90294811
178.127,276.854182639
178.142,276.805203254
178.157,276.756008528
178.172,276.706597029
178.187,276.656967313
178.202,276.607117926
178.217,276.5570474
178.232,276.50675426
178.247,276.45623703
178.262,276.405494191
178.277,276.354524253
178.292,276.303325695
178.307,276.251896982
178.322,276.200236575
178.337,276.148342924
178.352,276.096214462
178.367,276.043849623
178.382,275.991246818
178.397,275.938404452
178.41,275.892412719
178.412,275.885320922
178.427,275.831994604
178.442,275.778423876
178.457,275.724607102
178.472,275.670542622
178.487,275.616228783
178.502,275.56166391
178.517,275.506846319
178.532,275.451774319
178.547,275.396446201
178.562,275.340860252
178.577,275.285014743
178.592,275.228907933
178.607,275.172538077
178.622,275.11590342
178.637,275.059002179
178.652,275.001832585
178.667,274.944392834
178.682,274.886681131
178.697,274.828695652
178.712,274.770434581
178.727,274.71189608
178.742,274.6530783
178.757,274.59397938
178.772,274.534597459
178.787,274.474930654
178.802,274.414977084
178.817,274.354734833
178.832,274.294202004
178.847,274.233376674
178.862,274.172256911
178.877,274.11084078
178.892,274.049126316
178.907,273.987111573
178.922,273.924794567
178.937,273.862173328
178.952,273.799245857
178.967,273.73601016
178.982,273.672464219
178.997,273.608606023
179.012,273.544433538
179.027,273.479944724
179.042,273.415137537
179.057,273.350009928
179.072,273.284559808
179.087,273.218785135
179.102,273.152683794
179.117,273.086253718
179.132,273.019492799
179.147,272.952398921
179.16,272.893979946
179.162,272.884969985
179.177,272.817203857
179.192,272.749098407
179.207,272.680651497
179.222,272.611860977
179.237,272.542724704
179.252,272.473240507
179.267,272.403406229
179.282,272.333219686
179.297,272.262678711
179.312,272.191781106
179.327,272.120524689
179.342,272.04890726
179.357,271.976926619
179.372,271.904580555
179.387,271.831866848
179.402,271.758783304
179.417,271.685327679
179.432,271.611497761
179.447,271.537291316
179.462,271.462706112
179.477,271.387739915
179.492,271.312390488
179.507,271.23665559
179.522,271.160532969
179.537,271.084020397
179.552,271.007115612
179.567,270.92981637
179.582,270.852120427
179.597,270.774025531
179.612,270.695529429
179.627,270.616629875
179.642,270.537324617
179.657,270.457611412
179.672,270.377488013
179.687,270.29695217
179.702,270.216001643
179.717,270.13463419
179.732,270.052847578
179.747,269.970639566
179.762,269.888007921
179.777,269.804950428
179.792,269.72146485
179.807,269.637548979
179.822,269.553200603
179.837,269.468417516
179.852,269.383197512
179.867,269.297538403
179.882,269.211437997
179.897,269.124894122
179.91,269.049529032
179.912,269.037904602
179.927,268.950467281
179.942,268.862579997
179.957,268.774240606
179.972,268.685446979
179.987,268.596196992
180.002,268.506488521
180.017,268.416319475
180.032,268.325687757
180.047,268.234591294
180.062,268.143028004
180.077,268.050995844
180.092,267.958492771
180.107,267.865516756
180.122,267.772065785
180.137,267.678137861
180.152,267.583730993
180.167,267.488843218
180.182,267.393472581
180.197,267.297617139
180.212,267.201274974
180.227,267.104444178
180.242,267.007122862
180.257,266.909309154
180.272,266.811001195
180.287,266.712197153
180.302,266.612895202
180.317,266.51309355
180.332,266.412790404
180.347,266.311983996
180.362,266.210672589
180.377,266.108854439
180.392,266.006527846
180.407,265.90369111
180.422,265.800342564
180.437,265.696480547
180.452,265.592103422
180.467,265.487209563
180.482,265.381797382
180.497,265.275865283
180.512,265.169411702
180.527,265.062435086
180.542,264.954933907
180.557,264.84690664
180.56,264.825237927
180.572,264.738351795
180.587,264.62926787
180.602,264.5196534
180.617,264.409506925
180.632,264.298827006
180.647,264.187612203
180.66,264.090792276
180.662,264.075861091
180.677,263.963572266
180.692,263.85074432
180.707,263.737375859
180.722,263.623465503
180.737,263.509011866
180.752,263.394013568
180.767,263.278469244
180.782,263.162377507
180.797,263.045736999
180.812,262.928546345
180.827,262.810804153
180.842,262.692509051
180.857,262.573659649
180.872,262.454254535
180.887,262.334292299
180.902,262.213771519
180.917,262.09269075
180.932,261.971048527
180.947,261.848843357
180.962,261.726073739
180.977,261.602738136
180.992,261.478834974
181.007,261.354362656
181.022,261.22931954
181.037,261.103703952
181.052,260.977514164
181.067,260.850748409
181.082,260.723404871
181.097,260.595481677
181.112,260.466976891
181.127,260.337888523
181.142,260.208214511
181.157,260.077952729
181.172,259.947100968
181.187,259.81565695
181.202,259.683618312
181.217,259.550982595
181.232,259.417747262
181.247,259.283909667
181.262,259.149467073
181.277,259.014416638
181.292,258.878755393
181.307,258.742480285
181.31,258.715151315
181.322,258.60558811
181.337,258.468075565
181.352,258.329939201
181.367,258.191175454
181.382,258.051780611
181.397,257.911750809
181.412,257.771082059
181.427,257.629770212
181.442,257.487810971
181.457,257.345199863
181.472,257.201932277
181.487,257.058003422
181.502,256.913408346
181.517,256.768141922
181.532,256.622198851
181.547,256.475573659
181.562,256.328260698
181.577,256.180254125
181.592,256.031547934
181.607,255.882135927
181.622,255.732011734
181.637,255.581168798
181.652,255.429600373
181.667,255.277299559
181.682,255.124259256
181.697,254.970472205
181.712,254.815930973
181.727,254.660627968
181.742,254.504555432
181.757,254.347705451
181.772,254.190069984
181.787,254.031640838
181.802,253.8724097
181.817,253.712368138
181.832,253.551507617
181.847,253.389819517
181.862,253.227295132
181.877,253.063925702
181.892,252.899702415
181.907,252.734616452
181.922,252.568658979
181.937,252.401821176
181.952,252.234094275
181.967,252.065469564
181.982,251.895938439
181.997,251.725492409
182.012,251.554123133
182.027,251.38182248
182.042,251.208582509
182.057,251.034395553
182.06,250.999443875
182.072,250.859254254
182.087,250.683151573
182.102,250.50608086
182.117,250.328035892
182.132,250.149010924
182.147,249.969000727
182.162,249.788000659
182.177,249.606006696
182.192,249.423015515
182.207,249.23902454
182.222,249.054031988
182.237,248.868036969
182.252,248.681039533
182.267,248.49304072
182.282,248.304042671
182.297,248.114048687
182.312,247.923063277
182.327,247.731092294
182.342,247.538142969
182.357,247.344224021
182.372,247.149345737
182.387,246.953520064
182.402,246.756760714
182.417,246.559083235
182.432,246.360505144
182.447,246.161046013
182.462,245.960727568
182.477,245.759573813
182.492,245.55761114
182.507,245.35486845
182.522,245.151377261
182.537,244.947171845
182.552,244.742289359
182.567,244.536769949
182.582,244.330656923
182.597,244.123996859
182.612,243.916839764
182.627,243.709239201
182.642,243.501252451
182.657,243.292940625
182.672,243.084368857
182.687,242.875606397
182.702,242.666726754
182.717,242.457807858
182.732,242.248932117
182.747,242.040186563
182.762,241.831662884
182.777,241.623457483
182.792,241.415671468
182.807,241.208410594
182.822,241.001785129
182.837,240.795909621
182.852,240.59090257
182.867,240.38688589
182.882,240.183984275
182.897,239.982324216
182.912,239.782032758
182.927,239.583235841
182.942,239.386056132
182.957,239.190610174
182.972,238.997004703
182.987,238.805331842
183.002,238.615662853
183.017,238.428039985
183.032,238.242465855
183.047,238.058889401
183.062,237.87718744
183.077,237.697140033
183.092,237.518397524
183.107,237.340435934
183.122,237.162496121
183.137,236.983499929
183.152,236.801933659
183.167,236.615684777
183.182,236.421812479
183.197,236.216226796
183.212,235.993252152
183.227,235.745082549
183.242,235.46128658
183.257,235.129096277
183.367,235.202825437
183.382,235.517339384
183.397,235.786861651
183.412,236.023698742
183.427,236.237583231
183.442,236.435722041
183.457,236.623337428
183.472,236.804189261
183.487,236.980980323
183.502,237.155651228
183.517,237.329590772
183.532,237.503785685
183.547,237.678927678
183.562,237.855490653
183.577,238.033786889
183.592,238.214008253
183.607,238.396256867
183.622,238.580567907
183.637,238.766926864
183.652,238.955282572
183.667,239.14555719
183.682,239.337653777
183.697,239.531462172
183.712,239.726863455
183.727,239.923733435
183.742,240.121945276
183.757,240.321371534
183.772,240.521885714
183.787,240.723363427
183.802,240.925683261
183.817,241.128727419
183.832,241.332382151
183.847,241.536538097
183.862,241.741090476
183.877,241.945939164
183.892,242.15098877
183.907,242.356148624
183.922,242.561332699
183.937,242.766459557
183.952,242.971452244
183.967,243.176238149
183.982,243.380748906
183.997,243.584920218
184.012,243.788691745
184.027,243.992006953
184.042,244.194812951
184.057,244.397060375
184.072,244.598703212
184.087,244.799698681
184.102,245.000007102
184.117,245.199591736
184.132,245.398418676
184.147,245.596456723
184.162,245.793677235
184.177,245.990054042
184.192,246.185563314
184.207,246.380183444
184.222,246.573894951
184.237,246.766680381
184.252,246.958524179
184.267,247.149412616
184.282,247.339333699
184.297,247.528277042
184.312,247.716233827
184.327,247.903196681
184.342,248.089159603
184.357,248.274117899
184.372,248.45806809
184.387,248.641007827
184.402,248.822935846
184.417,249.003851882
184.432,249.183756603
184.447,249.362651547
184.462,249.540539065
184.477,249.717422242
184.492,249.89330488
184.507,250.068191387
184.522,250.242086787
184.537,250.414996602
184.552,250.586926871
184.56,250.678224696
184.567,250.757884043
184.582,250.927875001
184.597,251.096906936
184.612,251.264987387
184.627,251.432124152
184.642,251.598325272
184.657,251.763599002
184.672,251.927953753
184.687,252.091398096
184.702,252.253940718
184.717,252.415590376
184.732,252.576355923
184.747,252.736246219
184.762,252.895270165
184.777,253.053436652
184.792,253.210754547
184.807,253.36723269
184.822,253.522879855
184.837,253.677704754
184.852,253.831716023
184.867,253.984922182
184.882,254.137331677
184.897,254.288952807
184.912,254.439793768
184.927,254.589862609
184.942,254.739167253
184.957,254.887715457
184.972,255.035514855
184.987,255.182572896
185.002,255.328896885
185.017,255.474493966
185.032,255.619371108
185.047,255.763535115
185.062,255.906992623
185.077,256.049750109
185.092,256.19181386
185.107,256.333190018
185.122,256.473884536
185.137,256.613903212
185.152,256.753251667
185.167,256.891935372
185.182,257.029959625
185.197,257.16732957
185.212,257.304050192
185.227,257.440126319
185.242,257.575562634
185.257,257.71036367
185.272,257.844533811
185.287,257.97807731
185.302,258.110998278
185.31,258.181636287
185.317,258.243300685
185.332,258.374988379
185.347,258.506065088
185.362,258.636534408
185.377,258.766399824
185.392,258.895664704
185.407,259.024332303
185.422,259.152405784
185.437,259.279888195
185.452,259.406782494
185.467,259.533091541
185.482,259.658818109
185.497,259.783964888
185.512,259.90853448
185.527,260.032529411
185.542,260.155952144
185.557,260.278805055
185.572,260.401090463
185.587,260.522810619
185.602,260.643967721
185.617,260.764563909
185.632,260.884601257
185.647,261.004081816
185.662,261.123007553
185.677,261.241380428
185.692,261.359202339
185.707,261.476475148
185.722,261.593200691
185.737,261.709380765
185.752,261.825017133
185.767,261.94011154
185.782,262.054665701
185.797,262.168681309
185.812,262.282160031
185.827,262.395103521
185.842,262.507513422
185.857,262.61939135
185.872,262.73073892
185.887,262.84155773
185.902,262.951849366
185.917,263.061615418
185.932,263.170857451
185.947,263.279577053
185.96,263.37337932
185.962,263.387775775
185.977,263.495455195
185.992,263.602616875
186.007,263.709262378
186.022,263.815393278
186.037,263.921011146
186.052,264.026117546
186.06,264.081965706
186.067,264.130714062
186.082,264.234802281
186.097,264.338383791
186.112,264.441460185
186.127,264.544033068
186.142,264.646104051
186.157,264.747674757
186.172,264.848746807
186.187,264.949321844
186.202,265.049401519
186.217,265.148987492
186.232,265.248081421
186.247,265.346684992
186.262,265.444799899
186.277,265.542427839
186.292,265.639570526
186.307,265.73622969
186.322,265.832407061
186.337,265.92810439
186.352,266.023323436
186.367,266.118065972
186.382,266.212333783
186.397,266.306128664
186.412,266.399452417
186.427,266.492306865
186.442,266.584693836
186.457,266.67661518
186.472,266.768072743
186.487,266.859068379
186.502,266.949603977
186.517,267.039681417
186.532,267.129302593
186.547,267.218469412
186.562,267.307183798
186.577,267.395447665
186.592,267.483262951
186.607,267.570631603
186.622,267.65755557
186.637,267.744036826
186.652,267.830077326
186.667,267.915679061
186.682,268.000844015
186.697,268.085574177
186.71,268.158656835
186.712,268.169871553
186.727,268.253738151
186.742,268.337175978
186.757,268.420187069
186.772,268.50277344
186.787,268.584937124
186.802,268.66668017
186.817,268.748004607
186.832,268.82891249
186.847,268.909405863
186.862,268.98948679
186.877,269.069157331
186.892,269.148419546
186.907,269.227275492
186.922,269.305727248
186.937,269.383776882
186.952,269.461426463
186.967,269.538678071
186.982,269.615533781
186.997,269.691995669
187.012,269.768065811
187.027,269.843746283
187.042,269.919039166
187.057,269.99394654
187.072,270.068470482
187.087,270.14261307
187.102,270.216376374
187.117,270.289762477
187.132,270.362773446
187.147,270.435411359
187.162,270.507678286
187.177,270.579576282
187.192,270.651107422
187.207,270.722273769
187.222,270.793077383
187.237,270.863520308
187.252,270.933604608
187.267,271.003332325
187.282,271.072705509
187.297,271.141726193
187.312,271.210396418
187.327,271.278718213
187.342,271.346693604
187.357,271.414324608
187.372,271.481613252
187.387,271.548561539
187.402,271.615171471
187.417,271.681445051
187.432,271.747384274
187.447,271.812991126
187.46,271.869583069
187.462,271.878267577
187.477,271.943215616
187.492,272.007837208
187.507,272.072134306
187.522,272.136108869
187.537,272.199762846
187.552,272.263098169
187.567,272.326116778
187.582,272.388820595
187.597,272.451211533
187.612,272.513291516
187.627,272.575062425
187.642,272.636526162
187.657,272.697684614
187.672,272.758539664
187.687,272.819093172
187.702,272.879347005
187.717,272.939303011
187.732,272.99896304
187.747,273.058328921
187.762,273.11740248
187.777,273.17618554
187.792,273.234679909
187.807,273.292887384
187.822,273.350809759
187.837,273.408448816
187.852,273.465806323
187.867,273.522884055
187.882,273.579683763
187.897,273.636207175
187.912,273.692456054
187.927,273.748432112
187.942,273.804137065
187.957,273.859572625
187.972,273.914740497
187.987,273.969642363
188.002,274.024279895
188.017,274.078654781
188.032,274.132768661
188.047,274.186623203
188.062,274.240220042
188.077,274.293560806
188.092,274.346647121
188.107,274.399480603
188.122,274.452062842
188.137,274.504395447
188.152,274.556479997
188.167,274.608318053
188.182,274.659911194
188.197,274.711260968
188.21,274.75556844
188.212,274.762368917
188.227,274.813236584
188.242,274.863865491
188.257,274.914257151
188.272,274.96441307
188.287,275.014334743
188.302,275.064023665
188.317,275.113481309
188.332,275.162709132
188.347,275.211708614
188.362,275.26048118
188.377,275.30902828
188.392,275.357351343
188.407,275.405451791
188.422,275.453331023
188.437,275.500990451
188.452,275.548431469
188.467,275.595655451
188.482,275.642663767
188.497,275.689457793
188.512,275.736038865
188.527,275.782408346
188.542,275.828567561
188.557,275.87451783
188.572,275.920260486
188.587,275.965796827
188.602,276.011128154
188.617,276.05625575
188.632,276.101180904
188.647,276.145904884
188.66,276.184503914
188.662,276.190428944
188.677,276.234754359
188.692,276.278882356
188.707,276.322814169
188.722,276.36655104
188.737,276.410094167
