# 10410 EDZE Essen Observations at 12Z 19 Jul 2019
Frequency [GHz],TB
175.31,273.915253705
175.322,273.899781005
175.337,273.880297223
175.352,273.860654535
175.367,273.840852818
175.382,273.820891946
175.397,273.800771807
175.412,273.780492283
175.427,273.760053267
175.442,273.739454652
175.457,273.718696334
175.472,273.697778216
175.487,273.676700202
175.502,273.6554622
175.517,273.634064123
175.532,273.612505887
175.547,273.590787412
175.562,273.568908622
175.577,273.546869443
175.592,273.524669806
175.607,273.502309646
175.622,273.479788902
175.637,273.457107514
175.652,273.434265428
175.667,273.411262594
175.682,273.388098965
175.697,273.364774496
175.712,273.341289149
175.727,273.317642885
175.742,273.293835673
175.757,273.269867482
175.772,273.245738287
175.787,273.221448067
175.802,273.196996801
175.817,273.172384474
175.832,273.147611074
175.847,273.122676593
175.862,273.097581026
175.877,273.072324369
175.892,273.046906626
175.907,273.0213278
175.922,272.995587899
175.937,272.969686935
175.952,272.943624922
175.967,272.917401877
175.982,272.891017821
175.997,272.864472778
176.012,272.837766774
176.027,272.810899839
176.042,272.783872006
176.057,272.75668331
176.072,272.72933379
176.087,272.701823487
176.102,272.674152445
176.117,272.646320712
176.132,272.618328336
176.147,272.59017537
176.162,272.561861869
176.177,272.53338789
176.192,272.504753492
176.207,272.475958738
176.222,272.447003693
176.237,272.417888424
176.252,272.388612999
176.267,272.35917749
176.282,272.329581972
176.297,272.299826519
176.31,272.27390915
176.312,272.269911209
176.327,272.239836121
176.342,272.209601338
176.357,272.179206943
176.372,272.14865302
176.387,272.117939657
176.402,272.087066942
176.417,272.056034964
176.432,272.024843816
176.447,271.99349359
176.46,271.96619479
176.462,271.96198438
176.477,271.930316282
176.492,271.898489392
176.507,271.866503807
176.522,271.834359628
176.537,271.802056952
176.552,271.769595881
176.567,271.736976515
176.582,271.704198957
176.597,271.671263309
176.612,271.638169674
176.627,271.604918155
176.642,271.571508856
176.657,271.53794188
176.672,271.504217332
176.687,271.470335316
176.702,271.436295936
176.717,271.402099295
176.732,271.367745498
176.747,271.333234647
176.762,271.298566846
176.777,271.263742197
176.792,271.2287608
176.807,271.193622758
176.822,271.15832817
176.837,271.122877136
176.852,271.087269753
176.867,271.051506118
176.882,271.015586327
176.897,270.979510474
176.912,270.943278652
176.927,270.906890952
176.942,270.870347462
176.957,270.833648274
176.972,270.796793468
176.987,270.759783131
177.002,270.722617344
177.017,270.685296186
177.032,270.647819733
177.047,270.610188061
177.062,270.57240124
177.077,270.534459341
177.092,270.496362428
177.107,270.458110565
177.122,270.419703811
177.137,270.381142224
177.152,270.342425858
177.167,270.303554762
177.182,270.264528983
177.197,270.225348563
177.21,270.191267143
177.212,270.186013542
177.227,270.146523954
177.242,270.10687983
177.257,270.067081198
177.272,270.02712808
177.287,269.987020493
177.302,269.946758451
177.31,269.925222211
177.317,269.906341963
177.332,269.865771034
177.347,269.82504566
177.362,269.784165839
177.377,269.743131557
177.392,269.701942799
177.407,269.660599542
177.422,269.619101759
177.437,269.577449418
177.452,269.535642479
177.467,269.493680897
177.482,269.451564622
177.497,269.409293597
177.512,269.366867758
177.527,269.324287037
177.542,269.281551355
177.557,269.238660632
177.572,269.195614776
177.587,269.152413692
177.602,269.109057276
177.617,269.065545418
177.632,269.021877999
177.647,268.978054894
177.66,268.939948835
177.662,268.934075971
177.677,268.889941089
177.692,268.845650099
177.707,268.801202846
177.722,268.756599167
177.737,268.711838889
177.752,268.66692183
177.767,268.621847805
177.782,268.576616615
177.797,268.531228055
177.812,268.485681911
177.827,268.439977959
177.842,268.394115969
177.857,268.3480957
177.872,268.301916902
177.887,268.255579316
177.902,268.209082674
177.917,268.162426699
177.932,268.115611102
177.947,268.068635588
177.96,268.027793885
177.962,268.021499852
177.977,267.974203574
177.992,267.926746432
178.007,267.879128088
178.022,267.831348196
178.037,267.7834064
178.052,267.735302334
178.067,267.687035621
178.082,267.638605873
178.097,267.590012693
178.112,267.541255673
178.127,267.492334392
178.142,267.443248422
178.157,267.393997321
178.172,267.344580638
178.187,267.29499791
178.202,267.245248664
178.217,267.195332414
178.232,267.145248664
178.247,267.094996905
178.262,267.044576621
178.277,266.993987279
178.292,266.943228339
178.307,266.892299246
178.322,266.841199435
178.337,266.789928329
178.352,266.73848534
178.367,266.686869866
178.382,266.635081296
178.397,266.583119004
178.41,266.537944006
178.412,266.530982355
178.427,266.478670701
178.442,266.426183378
178.457,266.373519716
178.472,266.320679031
178.487,266.267660622
178.502,266.214463783
178.517,266.161087789
178.532,266.107531909
178.547,266.053795394
178.562,265.999877486
178.577,265.945777412
178.592,265.891494389
178.607,265.837027621
178.622,265.782376297
178.637,265.727539595
178.652,265.672516683
178.667,265.617306711
178.682,265.561908821
178.697,265.50632214
178.712,265.450545783
178.727,265.394578851
178.742,265.338420435
178.757,265.28206961
178.772,265.225525442
178.787,265.16878698
178.802,265.111853263
178.817,265.054723317
178.832,264.997396155
178.847,264.939870776
178.862,264.882146167
178.877,264.824221305
178.892,264.766095149
178.907,264.707766649
178.922,264.649234741
178.937,264.59049835
178.952,264.531556384
178.967,264.472407745
178.982,264.413051315
178.997,264.353485968
179.012,264.293710564
179.027,264.233723951
179.042,264.173524964
179.057,264.113112425
179.072,264.052485145
179.087,263.99164192
179.102,263.930581535
179.117,263.869302764
179.132,263.807804365
179.147,263.746085088
179.16,263.692415405
179.162,263.684143668
179.177,263.621978828
179.192,263.559589279
179.207,263.49697372
179.222,263.434130839
179.237,263.371059309
179.252,263.307757794
179.267,263.244224945
179.282,263.180459401
179.297,263.11645979
179.312,263.052224726
179.327,262.987752815
179.342,262.923042647
179.357,262.858092805
179.372,262.792901858
179.387,262.727468364
179.402,262.66179087
179.417,262.595867912
179.432,262.529698015
179.447,262.463279691
179.462,262.396611444
179.477,262.329691767
179.492,262.262519139
179.507,262.195092033
179.522,262.127408908
179.537,262.059468216
179.552,261.991268394
179.567,261.922807872
179.582,261.85408507
179.597,261.785098399
179.612,261.715846258
179.627,261.646327036
179.642,261.576539116
179.657,261.506480868
179.672,261.436150654
179.687,261.365546829
179.702,261.294667735
179.717,261.223511709
179.732,261.152077078
179.747,261.080362159
179.762,261.008365263
179.777,260.936084692
179.792,260.863518741
179.807,260.790665696
179.822,260.717523834
179.837,260.644091429
179.852,260.570366743
179.867,260.496348035
179.882,260.422033553
179.897,260.347421543
179.91,260.28251577
179.912,260.272510241
179.927,260.197297879
179.942,260.121782681
179.957,260.045962867
179.972,259.969836652
179.987,259.893402242
180.002,259.816657843
180.017,259.739601652
180.032,259.662231864
180.047,259.584546668
180.062,259.50654425
180.077,259.428222793
180.092,259.349580472
180.107,259.270615466
180.122,259.191325944
180.137,259.111710076
180.152,259.03176603
180.167,258.951491968
180.182,258.870886055
180.197,258.789946451
180.212,258.708671315
180.227,258.627058808
180.242,258.545107087
180.257,258.462814308
180.272,258.380178632
180.287,258.297198215
180.302,258.213871216
180.317,258.130195794
180.332,258.046170111
180.347,257.961792328
180.362,257.877060612
180.377,257.791973127
180.392,257.706528044
180.407,257.620723535
180.422,257.534557776
180.437,257.448028946
180.452,257.361135229
180.467,257.273874814
180.482,257.186245893
180.497,257.098246665
180.512,257.009875333
180.527,256.921130108
180.542,256.832009205
180.557,256.742510849
180.56,256.724565726
180.572,256.652633267
180.587,256.5623747
180.602,256.471733391
180.617,256.380707595
180.632,256.289295574
180.647,256.197495601
180.66,256.117620484
180.662,256.105305955
180.677,256.012724929
180.692,255.919750823
180.707,255.82638195
180.722,255.732616631
180.737,255.638453202
180.752,255.543890009
180.767,255.448925409
180.782,255.353557775
180.797,255.25778549
180.812,255.16160695
180.827,255.065020567
180.842,254.968024766
180.857,254.870617986
180.872,254.772798683
180.887,254.674565324
180.902,254.575916395
180.917,254.476850398
180.932,254.377365849
180.947,254.277461283
180.962,254.17713525
180.977,254.076386319
180.992,253.975213075
181.007,253.873614123
181.022,253.771588085
181.037,253.669133602
181.052,253.566249333
181.067,253.46293396
181.082,253.359186181
181.097,253.255004715
181.112,253.150388303
181.127,253.045335705
181.142,252.939845702
181.157,252.833917099
181.172,252.727548721
181.187,252.620739415
181.202,252.513488052
181.217,252.405793524
181.232,252.29765475
181.247,252.189070669
181.262,252.080040247
181.277,251.970562475
181.292,251.860636367
181.307,251.750260966
181.31,251.728131888
181.322,251.63943534
181.337,251.528158585
181.352,251.416429821
181.367,251.304248205
181.382,251.191612914
181.397,251.078523161
181.412,250.964978188
181.427,250.850977271
181.442,250.736519716
181.457,250.621604865
181.472,250.506232095
181.487,250.390400822
181.502,250.274110495
181.517,250.157360609
181.532,250.040150695
181.547,249.922480331
181.562,249.80434914
181.577,249.685756788
181.592,249.566702997
181.607,249.447187538
181.622,249.327210235
181.637,249.206770975
181.652,249.085869701
181.667,248.964506424
181.682,248.84268122
181.697,248.720394241
181.712,248.597645713
181.727,248.474435943
181.742,248.350765325
181.757,248.226634344
181.772,248.102043582
181.787,247.976993726
181.802,247.851485571
181.817,247.725520031
181.832,247.599098143
181.847,247.47222108
181.862,247.344890153
181.877,247.217106828
181.892,247.088872732
181.907,246.960189663
181.922,246.831059603
181.937,246.70148473
181.952,246.571467434
181.967,246.441010325
181.982,246.310116254
181.997,246.178788327
182.012,246.047029917
182.027,245.914844692
182.042,245.782236628
182.057,245.649210028
182.06,245.622554888
182.072,245.51576955
182.087,245.381920224
182.102,245.247667482
182.117,245.113017182
182.132,244.977975633
182.147,244.842549631
182.162,244.706746483
182.177,244.570574048
182.192,244.434040764
182.207,244.297155692
182.222,244.159928552
182.237,244.022369764
182.252,243.884490494
182.267,243.746302699
182.282,243.607819177
182.297,243.469053615
182.312,243.330020647
182.327,243.19073591
182.342,243.051216101
182.357,242.911479042
182.372,242.771543746
182.387,242.631430484
182.402,242.491160857
182.417,242.350757872
182.432,242.210246019
182.447,242.069651351
182.462,241.92900157
182.477,241.788326116
182.492,241.647656254
182.507,241.507025165
182.522,241.366468053
182.537,241.226022229
182.552,241.085727224
182.567,240.945624885
182.582,240.805759485
182.597,240.666177827
182.612,240.52692935
182.627,240.388066242
182.642,240.249643543
182.657,240.111719259
182.672,239.974354465
182.687,239.837613411
182.702,239.701563625
182.717,239.566276014
182.732,239.431824956
182.747,239.298288394
182.762,239.165747921
182.777,239.034288859
182.792,238.904000331
182.807,238.774975324
182.822,238.647310751
182.837,238.521107501
182.852,238.396470476
182.867,238.273508636
182.882,238.152335025
182.897,238.033066803
182.912,237.915825275
182.927,237.800735919
182.942,237.687928427
182.957,237.577536753
182.972,237.469699184
182.987,237.364558422
183.002,237.262261705
183.017,237.162960952
183.032,237.066812939
183.047,236.973979506
183.062,236.884627779
183.077,236.798930395
183.092,236.717065682
183.107,236.639217774
183.122,236.565576549
183.137,236.49633736
183.152,236.431700383
183.167,236.371869515
183.182,236.317050648
183.197,236.267449236
183.212,236.223267036
183.227,236.184698044
183.242,236.151923678
183.257,236.125107428
183.367,236.11888497
183.382,236.143948426
183.397,236.174933321
183.412,236.211671548
183.427,236.253978403
183.442,236.301657827
183.457,236.354507051
183.472,236.412320459
183.487,236.474892637
183.502,236.542020622
183.517,236.61350546
183.532,236.68915319
183.547,236.768775382
183.562,236.852189359
183.577,236.939218198
183.592,237.029690603
183.607,237.123440705
183.622,237.220307839
183.637,237.320136331
183.652,237.422775291
183.667,237.528078451
183.682,237.635904024
183.697,237.746114601
183.712,237.858577063
183.727,237.973162527
183.742,238.089746296
183.757,238.208207824
183.772,238.328430694
183.787,238.45030258
183.802,238.573715226
183.817,238.698564415
183.832,238.824749929
183.847,238.952175503
183.862,239.080748779
183.877,239.210381248
183.892,239.34098818
183.907,239.472488554
183.922,239.604804974
183.937,239.737863593
183.952,239.871594011
183.967,240.005929187
183.982,240.140805334
183.997,240.276161821
184.012,240.411941067
184.027,240.548088432
184.042,240.684552111
184.057,240.821283028
184.072,240.958234726
184.087,241.095363262
184.102,241.232627099
184.117,241.369987004
184.132,241.507405942
184.147,241.644848984
184.162,241.782283199
184.177,241.919677567
184.192,242.057002881
184.207,242.194231662
184.222,242.33133807
184.237,242.468297821
184.252,242.605088108
184.267,242.741687521
184.282,242.878075978
184.297,243.014234648
184.312,243.150145889
184.327,243.285793176
184.342,243.421161047
184.357,243.556235039
184.372,243.691001634
184.387,243.825448201
184.402,243.959562953
184.417,244.093334891
184.432,244.226753764
184.447,244.35981002
184.462,244.492494769
184.477,244.624799744
184.492,244.75671726
184.507,244.888240184
184.522,245.019361899
184.537,245.150076272
184.552,245.28037763
184.56,245.349700982
184.567,245.410260726
184.582,245.539720712
184.597,245.668753125
184.612,245.79735385
184.627,245.925519106
184.642,246.053245427
184.657,246.180529633
184.672,246.307368824
184.687,246.433760355
184.702,246.559701821
184.717,246.685191044
184.732,246.810226058
184.747,246.934805094
184.762,247.058926571
184.777,247.182589079
184.792,247.305791373
184.807,247.428532362
184.822,247.550811097
184.837,247.672626763
184.852,247.793978673
184.867,247.914866256
184.882,248.035289051
184.897,248.155246705
184.912,248.274738957
184.927,248.393765643
184.942,248.51232668
184.957,248.63042207
184.972,248.748051889
184.987,248.865216282
185.002,248.981915466
185.017,249.098149719
185.032,249.213919378
185.047,249.329224838
185.062,249.444066546
185.077,249.558444999
185.092,249.672360744
185.107,249.785814372
185.122,249.898806515
185.137,250.011337848
185.152,250.123409083
185.167,250.235020971
185.182,250.346174297
185.197,250.45686988
185.212,250.56710857
185.227,250.676891248
185.242,250.786218826
185.257,250.895092245
185.272,251.00351247
185.287,251.111480495
185.302,251.218997339
185.31,251.276155532
185.317,251.326064045
185.332,251.432681679
185.347,251.538851331
185.362,251.644574114
185.377,251.749851163
185.392,251.854683631
185.407,251.959072694
185.422,252.063019547
185.437,252.166525407
185.452,252.269591507
185.467,252.372219098
185.482,252.474409451
185.497,252.576163857
185.512,252.677483619
185.527,252.77837006
185.542,252.87882452
185.557,252.978848354
185.572,253.078442934
185.587,253.177609646
185.602,253.276349892
185.617,253.374665091
185.632,253.472556673
185.647,253.570026084
185.662,253.667074786
185.677,253.763704251
185.692,253.859915968
185.707,253.955711435
185.722,254.051092166
185.737,254.146059689
185.752,254.240615539
185.767,254.334761267
185.782,254.428498435
185.797,254.521828614
185.812,254.61475339
185.827,254.707274356
185.842,254.799393118
185.857,254.89111129
185.872,254.982430498
185.887,255.073352375
185.902,255.163878566
185.917,255.254010722
185.932,255.343750506
185.947,255.433099586
185.96,255.510220715
185.962,255.522059639
185.977,255.610632351
185.992,255.698819413
186.007,255.786622525
186.022,255.874043393
186.037,255.961083729
186.052,256.047745253
186.06,256.093810435
186.067,256.134029687
186.082,256.219938762
186.097,256.305474212
186.112,256.390637778
186.127,256.475431204
186.142,256.559856238
186.157,256.643914632
186.172,256.727608143
186.187,256.81093853
186.202,256.893907556
186.217,256.976516985
186.232,257.058768585
186.247,257.140664126
186.262,257.222205379
186.277,257.303394119
186.292,257.384232119
186.307,257.464721154
186.322,257.544863001
186.337,257.624659437
186.352,257.704112237
186.367,257.78322318
186.382,257.861994041
186.397,257.940426596
186.412,258.018522621
186.427,258.096283888
186.442,258.173712171
186.457,258.250809239
186.472,258.327576863
186.487,258.404016808
186.502,258.48013084
186.517,258.55592072
186.532,258.631388207
186.547,258.706535059
186.562,258.781363027
186.577,258.855873861
186.592,258.930069307
186.607,259.003951107
186.622,259.077520999
186.637,259.150780716
186.652,259.223731989
186.667,259.296376541
186.682,259.368716092
186.697,259.440752358
186.71,259.502939784
186.712,259.512487046
186.727,259.583921864
186.742,259.655058508
186.757,259.725898671
186.772,259.796444043
186.787,259.866696302
186.802,259.936657125
186.817,260.00632818
186.832,260.07571113
186.847,260.144807631
186.862,260.21361933
186.877,260.282147872
186.892,260.35039489
186.907,260.418362014
186.922,260.486050863
186.937,260.553463052
186.952,260.620600185
186.967,260.687463864
186.982,260.754055676
186.997,260.820377206
187.012,260.886430029
187.027,260.952215712
187.042,261.017735813
187.057,261.082991883
187.072,261.147985466
187.087,261.212718094
187.102,261.277191295
187.117,261.341406585
187.132,261.405365472
187.147,261.469069456
187.162,261.532520029
187.177,261.595718673
187.192,261.658666861
187.207,261.721366058
187.222,261.783817719
187.237,261.84602329
187.252,261.907984209
187.267,261.969701905
187.282,262.031177795
187.297,262.09241329
187.312,262.153409789
187.327,262.214168684
187.342,262.274691356
187.357,262.334979177
187.372,262.395033509
187.387,262.454855706
187.402,262.51444711
187.417,262.573809057
187.432,262.63294287
187.447,262.691849863
187.46,262.742720128
187.462,262.750531342
187.477,262.808988602
187.492,262.867222928
187.507,262.925235597
187.522,262.983027873
187.537,263.040601015
187.552,263.097956268
187.567,263.155094868
187.582,263.212018043
187.597,263.26872701
187.612,263.325222976
187.627,263.381507139
187.642,263.437580686
187.657,263.493444796
187.672,263.549100635
187.687,263.604549364
187.702,263.659792128
187.717,263.714830068
187.732,263.769664312
187.747,263.824295979
187.762,263.878726178
187.777,263.932956007
187.792,263.986986557
187.807,264.040818908
187.822,264.09445413
187.837,264.147893282
187.852,264.201137415
187.867,264.25418757
187.882,264.307044778
187.897,264.35971006
187.912,264.412184429
187.927,264.464468886
187.942,264.516564423
187.957,264.568472025
187.972,264.620192663
187.987,264.671727302
188.002,264.723076896
188.017,264.77424239
188.032,264.825224718
188.047,264.876024809
188.062,264.926643576
188.077,264.977081928
188.092,265.027340762
188.107,265.077420967
188.122,265.127323423
188.137,265.177048998
188.152,265.226598555
188.167,265.275972944
188.182,265.325173007
188.197,265.374199579
188.21,265.416549577
188.212,265.423053484
188.227,265.471735537
188.242,265.520246545
188.257,265.568587304
188.272,265.616758605
188.287,265.664761225
188.302,265.712595937
188.317,265.760263503
188.332,265.807764676
188.347,265.855100201
188.362,265.902270814
188.377,265.949277243
188.392,265.996120208
188.407,266.042800419
188.422,266.089318579
188.437,266.135675381
188.452,266.181871511
188.467,266.227907647
188.482,266.273784458
188.497,266.319502605
188.512,266.365062741
188.527,266.410465512
188.542,266.455711553
188.557,266.500801494
188.572,266.545735957
188.587,266.590515556
188.602,266.635140895
188.617,266.679612572
188.632,266.723931179
188.647,266.768097297
188.66,266.806251698
188.662,266.812111502
188.677,266.855974361
188.692,266.899686437
188.707,266.94324828
188.722,266.986660438
188.737,267.029923448
