# 10410 EDZE Essen Observations at 12Z 10 May 2019
Frequency [GHz],TB
175.31,268.98878443
175.322,268.985001977
175.337,268.980122398
175.352,268.975074192
175.367,268.969857069
175.382,268.964470732
175.397,268.9589149
175.412,268.953189291
175.427,268.947293635
175.442,268.94122766
175.457,268.934991106
175.472,268.928583716
175.487,268.922005239
175.502,268.915255429
175.517,268.908334049
175.532,268.901240861
175.547,268.893975642
175.562,268.886538167
175.577,268.878928224
175.592,268.871145601
175.607,268.863190096
175.622,268.85506151
175.637,268.846759654
175.652,268.838284342
175.667,268.829635397
175.682,268.820812646
175.697,268.811815922
175.712,268.802645069
175.727,268.79329993
175.742,268.783780361
175.757,268.774086222
175.772,268.76421738
175.787,268.754173705
175.802,268.743955083
175.817,268.733561396
175.832,268.722992537
175.847,268.712248406
175.862,268.701328913
175.877,268.690233969
175.892,268.678963494
175.907,268.667517415
175.922,268.655895667
175.937,268.64409819
175.952,268.632124932
175.967,268.619975846
175.982,268.607650898
175.997,268.595150052
176.012,268.582473287
176.027,268.569620583
176.042,268.556591931
176.057,268.543387327
176.072,268.530006775
176.087,268.516450286
176.102,268.502717877
176.117,268.488809574
176.132,268.47472541
176.147,268.460465421
176.162,268.446029657
176.177,268.431418167
176.192,268.416631015
176.207,268.401668268
176.222,268.38653
176.237,268.371216292
176.252,268.355727234
176.267,268.340062924
176.282,268.324223461
176.297,268.30820896
176.31,268.294188226
176.312,268.292019533
176.327,268.275655309
176.342,268.259116417
176.357,268.242402998
176.372,268.225515193
176.387,268.208453158
176.402,268.191217052
176.417,268.173807041
176.432,268.156223299
176.447,268.138466005
176.46,268.122936111
176.462,268.120535348
176.477,268.102431522
176.492,268.084154724
176.507,268.065705166
176.522,268.047083061
176.537,268.02828863
176.552,268.0093221
176.567,267.990183707
176.582,267.970873692
176.597,267.951392301
176.612,267.931739788
176.627,267.911916416
176.642,267.891922448
176.657,267.871758159
176.672,267.851423829
176.687,267.830919743
176.702,267.810246195
176.717,267.78940348
176.732,267.768391902
176.747,267.747211772
176.762,267.725863404
176.777,267.704347122
176.792,267.682663252
176.807,267.660812129
176.822,267.638794087
176.837,267.616609474
176.852,267.594258638
176.867,267.571741934
176.882,267.549059723
176.897,267.526212369
176.912,267.503200243
176.927,267.480023719
176.942,267.456683178
176.957,267.433179005
176.972,267.409511589
176.987,267.385681325
177.002,267.36168861
177.017,267.337533849
177.032,267.313217447
177.047,267.288739816
177.062,267.264101372
177.077,267.239302533
177.092,267.214343723
177.107,267.189225367
177.122,267.163947897
177.137,267.138511745
177.152,267.112917349
177.167,267.087165147
177.182,267.061255583
177.197,267.035189103
177.21,267.012471571
177.212,267.008966154
177.227,266.982587188
177.242,266.956052659
177.257,266.929363021
177.272,266.902518733
177.287,266.875520256
177.302,266.848368049
177.31,266.833824174
177.317,266.821062575
177.332,266.793604303
177.347,266.765993696
177.362,266.738231221
177.377,266.710317349
177.392,266.682252546
177.407,266.654037287
177.422,266.625672038
177.437,266.597157271
177.452,266.568493459
177.467,266.539681073
177.482,266.510720582
177.497,266.481612458
177.512,266.452357173
177.527,266.422955193
177.542,266.39340699
177.557,266.363713031
177.572,266.33387378
177.587,266.303889704
177.602,266.273761268
177.617,266.24348893
177.632,266.213073153
177.647,266.182514393
177.66,266.155914828
177.662,266.151813104
177.677,266.120969739
177.692,266.089984748
177.707,266.058858579
177.722,266.027591674
177.737,265.996184472
177.752,265.964637411
177.767,265.932950923
177.782,265.90112544
177.797,265.869161381
177.812,265.83705917
177.827,265.804819222
177.842,265.772441945
177.857,265.739927746
177.872,265.707277029
177.887,265.674490183
177.902,265.641567601
177.917,265.608509665
177.932,265.575316753
177.947,265.541989234
177.96,265.512996787
177.962,265.508527476
177.977,265.474931833
177.992,265.441202657
178.007,265.407340292
178.022,265.373345073
178.037,265.339217331
178.052,265.304957382
178.067,265.270565542
178.082,265.236042114
178.097,265.201387396
178.112,265.166601671
178.127,265.131685221
178.142,265.096638313
178.157,265.061461208
178.172,265.026154155
178.187,264.990717395
178.202,264.955151157
178.217,264.919455664
178.232,264.883631124
178.247,264.847677734
178.262,264.811595684
178.277,264.775385153
178.292,264.739046304
178.307,264.702579292
178.322,264.665984258
178.337,264.629261335
178.352,264.592410641
178.367,264.555432279
178.382,264.518326346
178.397,264.481092921
178.41,264.44872088
178.412,264.443732073
178.427,264.406243856
178.442,264.368628308
178.457,264.33088546
178.472,264.293015325
178.487,264.255017901
178.502,264.216893174
178.517,264.178641116
178.532,264.140261679
178.547,264.10175481
178.562,264.063120432
178.577,264.024358457
178.592,263.98546878
178.607,263.94645128
178.622,263.907305824
178.637,263.868032256
178.652,263.828630411
178.667,263.789100102
178.682,263.749441131
178.697,263.709653276
178.712,263.669736304
178.727,263.629689963
178.742,263.589513983
178.757,263.549208076
178.772,263.508771938
178.787,263.468205245
178.802,263.427507658
178.817,263.386678814
178.832,263.345718339
178.847,263.304625835
178.862,263.263400886
178.877,263.222043058
178.892,263.180551899
178.907,263.138926934
178.922,263.09716767
178.937,263.055273596
178.952,263.013244181
178.967,262.971078872
178.982,262.928777095
178.997,262.886338259
179.012,262.843761749
179.027,262.801046933
179.042,262.758193154
179.057,262.715199735
179.072,262.672065982
179.087,262.628791172
179.102,262.585374569
179.117,262.541815407
179.132,262.498112904
179.147,262.454266251
179.16,262.416148582
179.162,262.410274624
179.177,262.366137168
179.192,262.321853013
179.207,262.27742126
179.222,262.232840991
179.237,262.188111265
179.252,262.143231114
179.267,262.098199553
179.282,262.053015568
179.297,262.007678122
179.312,261.962186158
179.327,261.916538591
179.342,261.870734311
179.357,261.82477219
179.372,261.77865107
179.387,261.732369768
179.402,261.68592708
179.417,261.639321773
179.432,261.592552594
179.447,261.54561826
179.462,261.498517464
179.477,261.451248875
179.492,261.403811136
179.507,261.356202861
179.522,261.308422641
179.537,261.260469041
179.552,261.212340599
179.567,261.164035824
179.582,261.115553203
179.597,261.066891195
179.612,261.018048227
179.627,260.969022706
179.642,260.919813008
179.657,260.870417483
179.672,260.820834452
179.687,260.77106221
179.702,260.721099021
179.717,260.670943127
179.732,260.620592736
179.747,260.57004603
179.762,260.519301163
179.777,260.46835626
179.792,260.41720942
179.807,260.365858706
179.822,260.314302159
179.837,260.262537789
179.852,260.210563575
179.867,260.158377468
179.882,260.105977391
179.897,260.053361235
179.91,260.007584131
179.912,260.000526861
179.927,259.947472102
179.942,259.894194761
179.957,259.840692608
179.972,259.786963387
179.987,259.733004808
180.002,259.678814552
180.017,259.62439027
180.032,259.569729582
180.047,259.514830077
180.062,259.459689313
180.077,259.404304817
180.092,259.348674086
180.107,259.292794585
180.122,259.236663746
180.137,259.180278975
180.152,259.123637643
180.167,259.066737087
180.182,259.009574619
180.197,258.952147517
180.212,258.894453025
180.227,258.836488359
180.242,258.778250702
180.257,258.719737206
180.272,258.660944991
180.287,258.601871145
180.302,258.542512729
180.317,258.482866765
180.332,258.42293025
180.347,258.36270015
180.362,258.302173395
180.377,258.241346887
180.392,258.1802175
180.407,258.118782071
180.422,258.057037414
180.437,257.994980305
180.452,257.932607495
180.467,257.869915701
180.482,257.806901616
180.497,257.743561897
180.512,257.679893178
180.527,257.615892061
180.542,257.551555117
180.557,257.486878892
180.56,257.473902628
180.572,257.421859906
180.587,257.356494647
180.602,257.290779577
180.617,257.224711135
180.632,257.158285732
180.647,257.091499752
180.66,257.033324089
180.662,257.024349555
180.677,256.956831478
180.692,256.888941833
180.707,256.820676909
180.722,256.752032974
180.737,256.683006274
180.752,256.613593034
180.767,256.54378946
180.782,256.473591737
180.797,256.402996036
180.812,256.331998507
180.827,256.260595287
180.842,256.188782497
180.857,256.116556245
180.872,256.04391263
180.887,255.970847731
180.902,255.897357628
180.917,255.823438385
180.932,255.749086064
180.947,255.674296722
180.962,255.599066408
180.977,255.523391177
180.992,255.447267074
181.007,255.370690156
181.022,255.29365648
181.037,255.216162108
181.052,255.138203113
181.067,255.059775576
181.082,254.980875593
181.097,254.901499273
181.112,254.821642747
181.127,254.741302163
181.142,254.660473696
181.157,254.579153542
181.172,254.497337934
181.187,254.41502313
181.202,254.33220543
181.217,254.248881167
181.232,254.165046725
181.247,254.080698527
181.262,253.995833049
181.277,253.910446823
181.292,253.824536438
181.307,253.738098545
181.31,253.720747374
181.322,253.651129861
181.337,253.563627178
181.352,253.475587363
181.367,253.387007362
181.382,253.297884211
181.397,253.208215035
181.412,253.117997057
181.427,253.027227603
181.442,252.935904107
181.457,252.844024116
181.472,252.7515853
181.487,252.658585457
181.502,252.565022517
181.517,252.470894549
181.532,252.376199769
181.547,252.280936555
181.562,252.185103439
181.577,252.088699126
181.592,251.991722499
181.607,251.894172627
181.622,251.796048772
181.637,251.697350398
181.652,251.598077186
181.667,251.498229029
181.682,251.397806058
181.697,251.296808638
181.712,251.195237386
181.727,251.093093177
181.742,250.990377155
181.757,250.887090742
181.772,250.783235658
181.787,250.678813913
181.802,250.573827836
181.817,250.46828008
181.832,250.362173631
181.847,250.255511825
181.862,250.148298352
181.877,250.040537275
181.892,249.932233042
181.907,249.823390496
181.922,249.714014885
181.937,249.604111882
181.952,249.493687594
181.967,249.382748571
181.982,249.271301823
181.997,249.159354837
182.012,249.046915583
182.027,248.933992528
182.042,248.82059465
182.057,248.706731456
182.06,248.683903853
182.072,248.592412985
182.087,248.477649829
182.102,248.362453139
182.117,248.246834638
182.132,248.130806639
182.147,248.014382044
182.162,247.897574363
182.177,247.780397721
182.192,247.662866871
182.207,247.544997191
182.222,247.426804705
182.237,247.308306074
182.252,247.189518614
182.267,247.070460286
182.282,246.95114971
182.297,246.831606151
182.312,246.711849524
182.327,246.591900384
182.342,246.47177992
182.357,246.351509942
182.372,246.231112863
182.387,246.110611678
182.402,245.990029951
182.417,245.869391767
182.432,245.748721715
182.447,245.628044834
182.462,245.507386566
182.477,245.386772707
182.492,245.266229332
182.507,245.145782719
182.522,245.02545927
182.537,244.905285398
182.552,244.785287421
182.567,244.665491427
182.582,244.545923124
182.597,244.426607666
182.612,244.307569463
182.627,244.188831954
182.642,244.070417354
182.657,243.952346367
182.672,243.834637854
182.687,243.717308462
182.702,243.600372187
182.717,243.48383989
182.732,243.367718728
182.747,243.252011504
182.762,243.136715933
182.777,243.021823764
182.792,242.907319797
182.807,242.793180719
182.822,242.679373752
182.837,242.565855079
182.852,242.45256798
182.867,242.339440643
182.882,242.22638357
182.897,242.113286473
182.912,242.000014557
182.927,241.886404047
182.942,241.772256746
182.957,241.657333394
182.972,241.54134551
182.987,241.423945258
183.002,241.304712808
183.017,241.183140427
183.032,241.058612261
183.047,240.930378438
183.062,240.797521602
183.077,240.658913234
183.092,240.513156132
183.107,240.358507988
183.122,240.192779011
183.137,240.013193916
183.152,239.81620532
183.167,239.597242506
183.182,239.350379358
183.197,239.067917987
183.212,238.739939673
183.227,238.354063848
183.242,237.896252781
183.257,237.355283165
183.367,237.485046998
183.382,238.000553967
183.397,238.434981299
183.412,238.801087548
183.427,239.112686121
183.442,239.381537825
183.457,239.616955435
183.472,239.826141174
183.487,240.014638684
183.502,240.186729306
183.517,240.345742277
183.532,240.49428786
183.547,240.634430115
183.562,240.767814735
183.577,240.895763998
183.592,241.01934778
183.607,241.139437124
183.622,241.25674501
183.637,241.371857678
183.652,241.485258909
183.667,241.597349018
183.682,241.708459857
183.697,241.818866741
183.712,241.92879802
183.727,242.03844283
183.742,242.147957382
183.757,242.257470143
183.772,242.3670861
183.787,242.476890298
183.802,242.586950807
183.817,242.697321206
183.832,242.808042677
183.847,242.919145797
183.862,243.030652039
183.877,243.142575079
183.892,243.254921906
183.907,243.367693786
183.922,243.480887082
183.937,243.594493982
183.952,243.708503119
183.967,243.822900111
183.982,243.937668043
183.997,244.052787878
184.012,244.168238817
184.027,244.283998621
184.042,244.40004389
184.057,244.516350302
184.072,244.632892837
184.087,244.749645958
184.102,244.866583776
184.117,244.983680204
184.132,245.100909072
184.147,245.218244248
184.162,245.335659728
184.177,245.453129724
184.192,245.570628738
184.207,245.688131623
184.222,245.805613639
184.237,245.923050499
184.252,246.040418412
184.267,246.15769411
184.282,246.274854882
184.297,246.391878595
184.312,246.508743713
184.327,246.625429312
184.342,246.741915086
184.357,246.858181367
184.372,246.97420912
184.387,247.089979946
184.402,247.205476089
184.417,247.320680433
184.432,247.435576493
184.447,247.550148419
184.462,247.664380983
184.477,247.778259578
184.492,247.891770206
184.507,248.004899472
184.522,248.117634571
184.537,248.229963282
184.552,248.341873955
184.56,248.401384863
184.567,248.453355495
184.582,248.564397362
184.597,248.67498955
184.612,248.785122572
184.627,248.894787458
184.642,249.003975737
184.657,249.112679422
184.672,249.220891001
184.687,249.328603423
184.702,249.435810083
184.717,249.542504816
184.732,249.648681875
184.747,249.754335927
184.762,249.859462037
184.777,249.964055654
184.792,250.068112604
184.807,250.17162907
184.822,250.274601589
184.837,250.377027034
184.852,250.478902609
184.867,250.580225827
184.882,250.680994515
184.897,250.781206785
184.912,250.880861039
184.927,250.979955948
184.942,251.078490451
184.957,251.176463736
184.972,251.273875236
184.987,251.370724619
185.002,251.467011775
185.017,251.562736815
185.032,251.657900052
185.047,251.752502001
185.062,251.846543367
185.077,251.940025038
185.092,252.032948073
185.107,252.125313702
185.122,252.217123312
185.137,252.308378445
185.152,252.399080784
185.167,252.489232154
185.182,252.578834512
185.197,252.667889937
185.212,252.75640063
185.227,252.844368906
185.242,252.931797186
185.257,253.018687995
185.272,253.10504395
185.287,253.190867763
185.302,253.276162231
185.31,253.321437161
185.317,253.360930233
185.332,253.445174721
185.347,253.528898726
185.362,253.612105338
185.377,253.694797714
185.392,253.776979071
185.407,253.858652681
185.422,253.939821866
185.437,254.020489992
185.452,254.100660475
185.467,254.180336768
185.482,254.259522363
185.497,254.338220783
185.512,254.416435586
185.527,254.494170352
185.542,254.571428694
185.557,254.648214241
185.572,254.724530645
185.587,254.800381573
185.602,254.875770709
185.617,254.95070175
185.632,255.0251784
185.647,255.099204374
185.662,255.172783393
185.677,255.245919183
185.692,255.318615468
185.707,255.390875981
185.722,255.462704446
185.737,255.534104588
185.752,255.605080126
185.767,255.675634778
185.782,255.745772248
185.797,255.815496235
185.812,255.88481043
185.827,255.953718512
185.842,256.022224144
185.857,256.090330983
185.872,256.158042665
185.887,256.225362815
185.902,256.29229504
185.917,256.35884293
185.932,256.425010058
185.947,256.490799978
185.96,256.547515521
185.962,256.556216224
185.977,256.62126231
185.992,256.68594173
186.007,256.750257957
186.022,256.814214436
186.037,256.877814599
186.052,256.941061849
186.06,256.97465058
186.067,257.003959566
186.082,257.066511103
186.097,257.128719797
186.112,257.190588952
186.127,257.252121852
186.142,257.31332175
186.157,257.374191877
186.172,257.434735436
186.187,257.494955605
186.202,257.554855535
186.217,257.61443835
186.232,257.673707143
186.247,257.732664984
186.262,257.791314918
186.277,257.849659956
186.292,257.907703085
186.307,257.96544726
186.322,258.022895415
186.337,258.080050451
186.352,258.136915241
186.367,258.193492631
186.382,258.249785437
186.397,258.305796452
186.412,258.361528433
186.427,258.416984115
186.442,258.472166203
186.457,258.527077371
186.472,258.581720268
186.487,258.636097515
186.502,258.690211701
186.517,258.744065393
186.532,258.797661126
186.547,258.851001408
186.562,258.904088715
186.577,258.956925504
186.592,259.009514198
186.607,259.061857193
186.622,259.11395686
186.637,259.16581554
186.652,259.217435549
186.667,259.268819175
186.682,259.319968676
186.697,259.370886289
186.71,259.414829021
186.712,259.421574221
186.727,259.472034651
186.742,259.522269734
186.757,259.572281598
186.772,259.622072343
186.787,259.671644048
186.802,259.720998761
186.817,259.770138506
186.832,259.819065278
186.847,259.867781055
186.862,259.916287783
186.877,259.964587383
186.892,260.012681756
186.907,260.060572771
186.922,260.10826228
186.937,260.155752103
186.952,260.203044043
186.967,260.250139874
186.982,260.297041345
186.997,260.343750188
187.012,260.390268104
187.027,260.436596776
187.042,260.482737857
187.057,260.528692985
187.072,260.574463772
187.087,260.620051802
187.102,260.665458645
187.117,260.710685843
187.132,260.755734916
187.147,260.800607366
187.162,260.845304668
187.177,260.889828277
187.192,260.934179629
187.207,260.978360135
187.222,261.022371186
187.237,261.066214153
187.252,261.109890387
187.267,261.153401213
187.282,261.196747938
187.297,261.239931857
187.312,261.28295423
187.327,261.325816308
187.342,261.368519318
187.357,261.411064465
187.372,261.453452943
187.387,261.495685916
187.402,261.537764534
187.417,261.579689928
187.432,261.621463212
187.447,261.663085477
187.46,261.699036779
187.462,261.704557797
187.477,261.74588123
187.492,261.78705681
187.507,261.828085561
187.522,261.868968481
187.537,261.909706556
187.552,261.950300752
187.567,261.99075202
187.582,262.031061288
187.597,262.071229473
187.612,262.11125747
187.627,262.151146165
187.642,262.190896418
187.657,262.230509077
187.672,262.269984976
187.687,262.309324927
187.702,262.348529729
187.717,262.387600169
187.732,262.426537013
187.747,262.465341011
187.762,262.504012903
187.777,262.54255341
187.792,262.580963234
187.807,262.619243071
187.822,262.657393597
187.837,262.695415473
187.852,262.733309347
187.867,262.771075852
187.882,262.808715609
187.897,262.846229219
187.912,262.883617275
187.927,262.920880357
187.942,262.958019026
187.957,262.995033835
187.972,263.031925316
187.987,263.068693999
188.002,263.105340392
188.017,263.141864993
188.032,263.17826829
188.047,263.214550754
188.062,263.250712846
188.077,263.286755016
188.092,263.322677697
188.107,263.358481318
188.122,263.394166288
188.137,263.42973301
188.152,263.465181873
188.167,263.500513255
188.182,263.535727523
188.197,263.570825033
188.21,263.601148697
188.212,263.60580613
188.227,263.640671149
188.242,263.675420415
188.257,263.710054237
188.272,263.744572922
188.287,263.77897676
188.302,263.813266035
188.317,263.84744102
188.332,263.881501978
188.347,263.91544916
188.362,263.949282816
188.377,263.983003174
188.392,264.016610464
188.407,264.050104901
188.422,264.083486693
188.437,264.116756038
188.452,264.149913126
188.467,264.182958141
188.482,264.215891255
188.497,264.248712633
188.512,264.281422434
188.527,264.314020805
188.542,264.34650789
188.557,264.378883821
188.572,264.411148727
188.587,264.443302725
188.602,264.47534593
188.617,264.507278444
188.632,264.539100365
188.647,264.570811788
188.66,264.598205703
188.662,264.602412794
188.677,264.633903463
188.692,264.665283865
188.707,264.696554069
188.722,264.727714131
188.737,264.758764105
