# 48698 WSSS Singapore Observations at 12Z 10 May 2019
Frequency [GHz],TB
175.31,277.110233399
175.322,277.087124773
175.337,277.058172656
175.352,277.029146616
175.367,277.000046419
175.382,276.970871827
175.397,276.941622604
175.412,276.912298511
175.427,276.882899309
175.442,276.853424753
175.457,276.823874601
175.472,276.794248608
175.487,276.764546532
175.502,276.734768117
175.517,276.704913118
175.532,276.674981284
175.547,276.644972362
175.562,276.614886096
175.577,276.584722233
175.592,276.554480514
175.607,276.524160678
175.622,276.493762469
175.637,276.463285622
175.652,276.432729873
175.667,276.402094956
175.682,276.371380605
175.697,276.340586549
175.712,276.309712521
175.727,276.278758245
175.742,276.247723448
175.757,276.216607854
175.772,276.185411187
175.787,276.154133166
175.802,276.122773509
175.817,276.091331935
175.832,276.059808159
175.847,276.028201894
175.862,275.996512851
175.877,275.964740742
175.892,275.932885271
175.907,275.900946149
175.922,275.868923077
175.937,275.836815758
175.952,275.804623892
175.967,275.77234718
175.982,275.739985315
175.997,275.707537993
176.012,275.675004909
176.027,275.642385749
176.042,275.609680205
176.057,275.576887965
176.072,275.544008709
176.087,275.511042124
176.102,275.47798789
176.117,275.444845684
176.132,275.41161518
176.147,275.378296057
176.162,275.344887986
176.177,275.311390637
176.192,275.277803676
176.207,275.244126771
176.222,275.210359584
176.237,275.176501779
176.252,275.142553015
176.267,275.108512944
176.282,275.074381228
176.297,275.040157512
176.31,275.010422274
176.312,275.005841452
176.327,274.971432693
176.342,274.936930883
176.357,274.902335661
176.372,274.867646674
176.387,274.832863554
176.402,274.797985943
176.417,274.763013472
176.432,274.72794577
176.447,274.69278247
176.46,274.662229992
176.462,274.657523196
176.477,274.622167574
176.492,274.586715222
176.507,274.551165762
176.522,274.51551881
176.537,274.479773978
176.552,274.443930879
176.567,274.407989121
176.582,274.371948309
176.597,274.335808046
176.612,274.299567935
176.627,274.263227574
176.642,274.226786555
176.657,274.190244474
176.672,274.153600917
176.687,274.116855474
176.702,274.080007729
176.717,274.043057262
176.732,274.006003652
176.747,273.968846474
176.762,273.931585301
176.777,273.894219703
176.792,273.856749247
176.807,273.819173495
176.822,273.78149201
176.837,273.74370435
176.852,273.705810068
176.867,273.667808716
176.882,273.629699842
176.897,273.591482994
176.912,273.55315771
176.927,273.514723532
176.942,273.476179994
176.957,273.437526631
176.972,273.398762969
176.987,273.359888535
177.002,273.320902853
177.017,273.28180544
177.032,273.242595814
177.047,273.203273487
177.062,273.163837965
177.077,273.124288755
177.092,273.084625361
177.107,273.044847278
177.122,273.004954003
177.137,272.964945026
177.152,272.924819833
177.167,272.88457791
177.182,272.844218736
177.197,272.803741785
177.21,272.768566087
177.212,272.763146532
177.227,272.722432445
177.242,272.681598988
177.257,272.640645621
177.272,272.599571803
177.287,272.558376982
177.302,272.517060613
177.31,272.494975322
177.317,272.475622134
177.332,272.434060991
177.347,272.392376616
177.362,272.350568444
177.377,272.3086359
177.392,272.26657841
177.407,272.224395391
177.422,272.182086259
177.437,272.139650423
177.452,272.097087291
177.467,272.054396264
177.482,272.011576738
177.497,271.968628103
177.512,271.92554975
177.527,271.88234106
177.542,271.839001412
177.557,271.795530178
177.572,271.751926727
177.587,271.708190421
177.602,271.66432062
177.617,271.620316678
177.632,271.576177943
177.647,271.531903757
177.66,271.493422719
177.662,271.487493459
177.677,271.442946381
177.692,271.398261851
177.707,271.353439192
177.722,271.308477719
177.737,271.263376743
177.752,271.218135573
177.767,271.172753504
177.782,271.127229835
177.797,271.081563853
177.812,271.035754841
177.827,270.989802075
177.842,270.943704828
177.857,270.897462362
177.872,270.85107394
177.887,270.804538814
177.902,270.757856226
177.917,270.711025423
177.932,270.664045636
177.947,270.616916091
177.96,270.57594875
177.962,270.569636014
177.977,270.522204615
177.992,270.474621103
178.007,270.426884681
178.022,270.378994541
178.037,270.330949873
178.052,270.282749855
178.067,270.234393661
178.082,270.185880459
178.097,270.137209408
178.112,270.088379658
178.127,270.039390354
178.142,269.990240632
178.157,269.940929624
178.172,269.891456448
178.187,269.841820222
178.202,269.792020047
178.217,269.742055025
178.232,269.691924245
178.247,269.641626788
178.262,269.591161727
178.277,269.540528128
178.292,269.489725049
178.307,269.438751535
178.322,269.387606626
178.337,269.336289355
178.352,269.284798742
178.367,269.233133798
178.382,269.181293529
178.397,269.129276928
178.41,269.084052456
178.412,269.07708298
178.427,269.02471066
178.442,268.972158934
178.457,268.919426758
178.472,268.866513079
178.487,268.813416832
178.502,268.760136942
178.517,268.706672326
178.532,268.65302189
178.547,268.599184527
178.562,268.545159123
178.577,268.490944548
178.592,268.43653967
178.607,268.381943335
178.622,268.327154387
178.637,268.27217165
178.652,268.216993946
178.667,268.161620078
178.682,268.10604884
178.697,268.050279014
178.712,267.994309369
178.727,267.938138664
178.742,267.88176564
178.757,267.825189033
178.772,267.768407559
178.787,267.711419927
178.802,267.654224828
178.817,267.596820943
178.832,267.539206938
178.847,267.481381466
178.862,267.423343165
178.877,267.365090661
178.892,267.306622563
178.907,267.247937467
178.922,267.189033956
178.937,267.129910595
178.952,267.070565936
178.967,267.010998515
178.982,266.951206853
178.997,266.891189456
179.012,266.830944813
179.027,266.770471397
179.042,266.709767665
179.057,266.648832057
179.072,266.587662999
179.087,266.526258896
179.102,266.464618138
179.117,266.402739098
179.132,266.34062013
179.147,266.278259572
179.16,266.224017035
179.162,266.215655741
179.177,266.152806938
179.192,266.089711445
179.207,266.026367525
179.222,265.962773422
179.237,265.898927359
179.252,265.834827543
179.267,265.770472158
179.282,265.705859368
179.297,265.640987319
179.312,265.575854134
179.327,265.510457915
179.342,265.444796746
179.357,265.378868683
179.372,265.312671768
179.387,265.246204015
179.402,265.179463418
179.417,265.11244795
179.432,265.045155557
179.447,264.977584164
179.462,264.909731673
179.477,264.841595962
179.492,264.773174883
179.507,264.704466264
179.522,264.635467911
179.537,264.566177602
179.552,264.496593089
179.567,264.4267121
179.582,264.356532337
179.597,264.286051474
179.612,264.21526716
179.627,264.144177016
179.642,264.072778633
179.657,264.001069579
179.672,263.929047391
179.687,263.856709577
179.702,263.784053618
179.717,263.711076964
179.732,263.637777036
179.747,263.564151225
179.762,263.490196893
179.777,263.415911369
179.792,263.341291952
179.807,263.26633591
179.822,263.191040478
179.837,263.115402859
179.852,263.039420226
179.867,262.963089715
179.882,262.88640843
179.897,262.809373444
179.91,262.742321393
179.912,262.731981791
179.927,262.654230475
179.942,262.576116462
179.957,262.497636684
179.972,262.418788037
179.987,262.339567381
180.002,262.259971539
180.017,262.179997298
180.032,262.099641406
180.047,262.018900575
180.062,261.937771479
180.077,261.856250752
180.092,261.774334988
180.107,261.692020746
180.122,261.609304542
180.137,261.526182851
180.152,261.44265211
180.167,261.358708714
180.182,261.274349016
180.197,261.18956933
180.212,261.104365924
180.227,261.018735025
180.242,260.932672819
180.257,260.846175446
180.272,260.759239005
180.287,260.671859548
180.302,260.584033084
180.317,260.49575558
180.332,260.407022953
180.347,260.317831078
180.362,260.228175783
180.377,260.13805285
180.392,260.047458015
180.407,259.956386968
180.422,259.864835349
180.437,259.772798754
180.452,259.680272731
180.467,259.587252778
180.482,259.493734347
180.497,259.39971284
180.512,259.305183613
180.527,259.210141971
180.542,259.114583171
180.557,259.01850242
180.56,258.999223211
180.572,258.921894878
180.587,258.824755654
180.602,258.727079807
180.617,258.628862348
180.632,258.530098239
180.647,258.430782389
180.66,258.344258387
180.662,258.330909662
180.677,258.23047487
180.692,258.129472777
180.707,258.027898095
180.722,257.92574549
180.737,257.823009578
180.752,257.719684926
180.767,257.615766054
180.782,257.511247433
180.797,257.406123484
180.812,257.300388587
180.827,257.194037069
180.842,257.087063213
180.857,256.979461259
180.872,256.871225399
180.887,256.762349782
180.902,256.652828514
180.917,256.542655657
180.932,256.431825235
180.947,256.320331228
180.962,256.208167578
180.977,256.09532819
180.992,255.981806931
181.007,255.867597634
181.022,255.752694096
181.037,255.637090084
181.052,255.520779334
181.067,255.403755553
181.082,255.286012421
181.097,255.167543596
181.112,255.04834271
181.127,254.928403378
181.142,254.807719198
181.157,254.686283749
181.172,254.564090603
181.187,254.44113332
181.202,254.317405457
181.217,254.192900565
181.232,254.067612199
181.247,253.941533917
181.262,253.814659286
181.277,253.686981887
181.292,253.558495314
181.307,253.429193187
181.31,253.403234335
181.322,253.299069148
181.337,253.168116873
181.352,253.036330071
181.367,252.903702496
181.382,252.770227946
181.397,252.635900272
181.412,252.500713386
181.427,252.364661263
181.442,252.22773795
181.457,252.089937575
181.472,251.951254348
181.487,251.811682575
181.502,251.671216662
181.517,251.529851125
181.532,251.387580595
181.547,251.24439983
181.562,251.100303721
181.577,250.955287305
181.592,250.809345769
181.607,250.662474465
181.622,250.514668916
181.637,250.365924829
181.652,250.216238103
181.667,250.065604842
181.682,249.914021365
181.697,249.761484218
181.712,249.607990185
181.727,249.4535363
181.742,249.298119859
181.757,249.141738433
181.772,248.984389882
181.787,248.826072362
181.802,248.666784347
181.817,248.506524635
181.832,248.345292362
181.847,248.183087022
181.862,248.019908472
181.877,247.855756954
181.892,247.6906331
181.907,247.524537957
181.922,247.357472991
181.937,247.189440109
181.952,247.020441666
181.967,246.850480488
181.982,246.679559878
181.997,246.507683635
182.012,246.334856069
182.027,246.161082011
182.042,245.986366833
182.057,245.810716456
182.06,245.775474718
182.072,245.63413737
182.087,245.456636644
182.102,245.278221942
182.117,245.098901537
182.132,244.918684323
182.147,244.737579834
182.162,244.555598252
182.177,244.372750425
182.192,244.189047881
182.207,244.004502843
182.222,243.819128239
182.237,243.632937724
182.252,243.445945693
182.267,243.258167294
182.282,243.069618451
182.297,242.880315876
182.312,242.690277092
182.327,242.49952045
182.342,242.308065153
182.357,242.115931276
182.372,241.923139795
182.387,241.72971261
182.402,241.535672577
182.417,241.341043539
182.432,241.145850362
182.447,240.950118972
182.462,240.753876397
182.477,240.557150815
182.492,240.359971601
182.507,240.162369383
182.522,239.964376099
182.537,239.766025066
182.552,239.567351042
182.567,239.368390305
182.582,239.169180731
182.597,238.969761875
182.612,238.770175065
182.627,238.570463489
182.642,238.370672294
182.657,238.170848684
182.672,237.971042017
182.687,237.771303905
182.702,237.571688307
182.717,237.372251617
182.732,237.173052741
182.747,236.974153161
182.762,236.775616971
182.777,236.577510896
182.792,236.379904257
182.807,236.182868898
182.822,235.986479044
182.837,235.790811073
182.852,235.595943187
182.867,235.401954944
182.882,235.208926623
182.897,235.016938368
182.912,234.826069064
182.927,234.636394862
182.942,234.447987266
182.957,234.260910652
182.972,234.075219079
182.987,233.890952164
183.002,233.708129779
183.017,233.5267452
183.032,233.346756247
183.047,233.168073799
183.062,232.990546847
183.077,232.813942978
183.092,232.637922802
183.107,232.462006361
183.122,232.285528972
183.137,232.107583365
183.152,231.926944746
183.167,231.741976487
183.182,231.550519444
183.197,231.349785347
183.212,231.136326187
183.227,230.906297036
183.242,230.656628125
183.257,230.388743147
183.367,230.445783064
183.382,230.705961997
183.397,230.946784433
183.412,231.168585201
183.427,231.374836451
183.442,231.569335266
183.457,231.755363787
183.472,231.935537417
183.487,232.11186716
183.502,232.285871071
183.517,232.458681603
183.532,232.631134874
183.547,232.803840889
183.562,232.977237551
183.577,233.151631808
183.592,233.327230973
183.607,233.504166563
183.622,233.682512517
183.637,233.862299166
183.652,234.043523969
183.667,234.22615981
183.682,234.410161413
183.697,234.595470315
183.712,234.782018728
183.727,234.96973253
183.742,235.15853359
183.757,235.348341559
183.772,235.539075242
183.787,235.730653655
183.802,235.922996811
183.817,236.116026315
183.832,236.309665784
183.847,236.503841153
183.862,236.698480874
183.877,236.893516039
183.892,237.088880437
183.907,237.284510572
183.922,237.480345636
183.937,237.676327466
183.952,237.872400464
183.967,238.068511524
183.982,238.26460993
183.997,238.460647261
184.012,238.656577286
184.027,238.852355864
184.042,239.047940841
184.057,239.243291947
184.072,239.438370708
184.087,239.633140346
184.102,239.827565697
184.117,240.021613129
184.132,240.21525046
184.147,240.408446894
184.162,240.601172948
184.177,240.793400395
184.192,240.9851022
184.207,241.176252478
184.222,241.366826436
184.237,241.556800334
184.252,241.746151443
184.267,241.934858007
184.282,242.122899213
184.297,242.310255152
184.312,242.496906797
184.327,242.682835972
184.342,242.868025333
184.357,243.052458337
184.372,243.236119226
184.387,243.418993008
184.402,243.601065434
184.417,243.782322983
184.432,243.962752844
184.447,244.142342899
184.462,244.32108171
184.477,244.498958501
184.492,244.675963142
184.507,244.85208614
184.522,245.027318618
184.537,245.201652307
184.552,245.375079525
184.56,245.467200921
184.567,245.547593171
184.582,245.719186705
184.597,245.889854137
184.612,246.059590013
184.627,246.2283894
184.642,246.396247874
184.657,246.563161507
184.672,246.729126849
184.687,246.894140919
184.702,247.05820119
184.717,247.221305574
184.732,247.383452409
184.747,247.544640447
184.762,247.704868838
184.777,247.864137119
184.792,248.022445201
184.807,248.179793351
184.822,248.336182186
184.837,248.491612654
184.852,248.646086026
184.867,248.79960388
184.882,248.95216809
184.897,249.103780813
184.912,249.25444448
184.927,249.404161778
184.942,249.552935646
184.957,249.700769256
184.972,249.847666008
184.987,249.993629516
185.002,250.138663599
185.017,250.282772267
185.032,250.425959717
185.047,250.568230316
185.062,250.709588597
185.077,250.850039249
185.092,250.989587102
185.107,251.128237127
185.122,251.265994422
185.137,251.402864202
185.152,251.538851797
185.167,251.67396264
185.182,251.80820226
185.197,251.941576276
185.212,252.074090389
185.227,252.205750375
185.242,252.336562078
185.257,252.466531408
185.272,252.595664329
185.287,252.723966856
185.302,252.85144505
185.31,252.919098466
185.317,252.978105014
185.332,253.103952882
185.347,253.228994822
185.362,253.353237026
185.377,253.476685706
185.392,253.599347092
185.407,253.721227427
185.422,253.842332962
185.437,253.962669953
185.452,254.082244658
185.467,254.201063334
185.482,254.319132232
185.497,254.436457596
185.512,254.553045658
185.527,254.668902638
185.542,254.784034738
185.557,254.898448145
185.572,255.012149021
185.587,255.125143509
185.602,255.237437724
185.617,255.349037757
185.632,255.459949667
185.647,255.570179486
185.662,255.679733211
185.677,255.78861681
185.692,255.896836211
185.707,256.004397309
185.722,256.111305962
185.737,256.217567989
185.752,256.323189169
185.767,256.428175242
185.782,256.532531906
185.797,256.636264816
185.812,256.739379587
185.827,256.841881789
185.842,256.943776947
185.857,257.045070542
185.872,257.145768013
185.887,257.245874749
185.902,257.345396096
185.917,257.444337353
185.932,257.542703771
185.947,257.640500559
185.96,257.724800995
185.962,257.737732873
185.977,257.834405827
185.992,257.930524484
186.007,258.026093861
186.022,258.121118929
186.037,258.215604609
186.052,258.309555778
186.06,258.359446181
186.067,258.402977262
186.082,258.495873842
186.097,258.58825025
186.112,258.680111172
186.127,258.771461248
186.142,258.862305068
186.157,258.952647179
186.172,259.042492078
186.187,259.131844217
186.202,259.220708003
186.217,259.309087796
186.232,259.39698791
186.247,259.484412614
186.262,259.571366131
186.277,259.657852642
186.292,259.74387628
186.307,259.829441135
186.322,259.914551253
186.337,259.999210637
186.352,260.083423245
186.367,260.167192995
186.382,260.250523759
186.397,260.333419368
186.412,260.415883612
186.427,260.497920238
186.442,260.579532952
186.457,260.660725421
186.472,260.741501267
186.487,260.821864077
186.502,260.901817395
186.517,260.981364726
186.532,261.060509537
186.547,261.139255256
186.562,261.217605271
186.577,261.295562935
186.592,261.373131562
186.607,261.450314428
186.622,261.527114774
186.637,261.603535803
186.652,261.679580683
186.667,261.755252546
186.682,261.830554489
186.697,261.905489573
186.71,261.970138907
186.712,261.980060827
186.727,262.054271244
186.742,262.128123783
186.757,262.201621369
186.772,262.274766898
186.787,262.347563229
186.802,262.420013191
186.817,262.49211958
186.832,262.563885162
186.847,262.635312669
186.862,262.706404805
186.877,262.777164243
186.892,262.847593626
186.907,262.917695564
186.922,262.987472643
186.937,263.056927417
186.952,263.126062411
186.967,263.194880122
186.982,263.26338302
186.997,263.331573547
187.012,263.399454116
187.027,263.467027115
187.042,263.534294905
187.057,263.601259819
187.072,263.667924167
187.087,263.73429023
187.102,263.800360266
187.117,263.866136506
187.132,263.931621158
187.147,263.996816406
187.162,264.061724407
187.177,264.126347296
187.192,264.190687184
187.207,264.25474616
187.222,264.31852629
187.237,264.382029613
187.252,264.445258151
187.267,264.508213902
187.282,264.570898842
187.297,264.633314925
187.312,264.695464083
187.327,264.757348231
187.342,264.818969258
187.357,264.880329036
187.372,264.941429415
187.387,265.002272226
187.402,265.06285928
187.417,265.123192369
187.432,265.183273264
187.447,265.243103721
187.46,265.294755546
187.462,265.302685471
187.477,265.362020235
187.492,265.421109706
187.507,265.479955568
187.522,265.538559479
187.537,265.596923088
187.552,265.65504802
187.567,265.712935885
187.582,265.770588277
187.597,265.828006774
187.612,265.885192934
187.627,265.942148302
187.642,265.998874405
187.657,266.055372757
187.672,266.111644854
187.687,266.167692176
187.702,266.22351619
187.717,266.279118347
187.732,266.334500083
187.747,266.389662819
187.762,266.444607963
187.777,266.499336906
187.792,266.553851029
187.807,266.608151696
187.822,266.662240257
187.837,266.71611805
187.852,266.7697864
187.867,266.823246619
187.882,266.876500003
187.897,266.929547837
187.912,266.982391394
187.927,267.035031935
187.942,267.087470707
187.957,267.139708944
187.972,267.191747872
187.987,267.243588699
188.002,267.295232628
188.017,267.346680845
188.032,267.397934527
188.047,267.44899484
188.062,267.499862936
188.077,267.550539961
188.092,267.601027046
188.107,267.651325312
188.122,267.701435871
188.137,267.751359822
188.152,267.801098256
188.167,267.850652253
188.182,267.900022882
188.197,267.949211202
188.21,267.991694426
188.212,267.998218266
188.227,268.047045113
188.242,268.095692771
188.257,268.144162265
188.272,268.192454606
188.287,268.240570794
188.302,268.288511826
188.317,268.336278684
188.332,268.383872345
188.347,268.431293775
188.362,268.478543933
188.377,268.525623768
188.392,268.572534221
188.407,268.619276226
188.422,268.665850704
188.437,268.712258576
188.452,268.758500747
188.467,268.804578118
188.482,268.850491583
188.497,268.896242024
188.512,268.94183032
188.527,268.98725734
188.542,269.032523945
188.557,269.077630991
188.572,269.122579324
188.587,269.167369784
188.602,269.212003204
188.617,269.25648041
188.632,269.30080222
188.647,269.344969447
188.66,269.383123292
188.662,269.388982896
188.677,269.432843364
188.692,269.476551644
188.707,269.52010852
188.722,269.563514771
188.737,269.606771171
