# 01004 ENAS Ny-Alesund Ii Observations at 12Z 09 Jun 2019
Frequency [GHz],TB
175.31,258.387841404
175.322,258.417735621
175.337,258.454953684
175.352,258.492004047
175.367,258.528885254
175.382,258.565595844
175.397,258.602134347
175.412,258.638499297
175.427,258.674689222
175.442,258.71070265
175.457,258.746538099
175.472,258.782194105
175.487,258.81766917
175.502,258.852961813
175.517,258.888070555
175.532,258.922993895
175.547,258.957730356
175.562,258.992278434
175.577,259.026636639
175.592,259.060803479
175.607,259.094777445
175.622,259.128557043
175.637,259.16214077
175.652,259.195527121
175.667,259.228714593
175.682,259.261701681
175.697,259.294486879
175.712,259.32706868
175.727,259.359445573
175.742,259.391616052
175.757,259.423578602
175.772,259.455331718
175.787,259.486873892
175.802,259.518203604
175.817,259.549319357
175.832,259.580219629
175.847,259.610902916
175.862,259.641367705
175.877,259.67161249
175.892,259.701635754
175.907,259.731436
175.922,259.761011716
175.937,259.790361402
175.952,259.819483542
175.967,259.848376642
175.982,259.877039195
175.997,259.905469706
176.012,259.933666676
176.027,259.961628609
176.042,259.989354005
176.057,260.016841379
176.072,260.044089235
176.087,260.071096101
176.102,260.09786048
176.117,260.124380901
176.132,260.150655874
176.147,260.176683941
176.162,260.202463615
176.177,260.227993438
176.192,260.253271951
176.207,260.278297684
176.222,260.303069188
176.237,260.327585014
176.252,260.351843712
176.267,260.37584385
176.282,260.399583986
176.297,260.423062679
176.31,260.443198318
176.312,260.44627852
176.327,260.469230084
176.342,260.491915952
176.357,260.514334718
176.372,260.536484975
176.387,260.558365337
176.402,260.579974402
176.417,260.601310801
176.432,260.622373139
176.447,260.643160071
176.46,260.660951567
176.462,260.663670212
176.477,260.683902213
176.492,260.703854746
176.507,260.72352645
176.522,260.742916006
176.537,260.762022085
176.552,260.780843376
176.567,260.799378577
176.582,260.817626387
176.597,260.835585518
176.612,260.853254697
176.627,260.870632649
176.642,260.887718125
176.657,260.904509872
176.672,260.921006649
176.687,260.937207228
176.702,260.953110398
176.717,260.968714945
176.732,260.98401968
176.747,260.999023413
176.762,261.013724978
176.777,261.028123207
176.792,261.042216962
176.807,261.056005093
176.822,261.06948648
176.837,261.082660016
176.852,261.095524601
176.867,261.108079141
176.882,261.120322573
176.897,261.132253827
176.912,261.143871871
176.927,261.15517566
176.942,261.166164186
176.957,261.176836438
176.972,261.187191427
176.987,261.197228186
177.002,261.206945748
177.017,261.216343178
177.032,261.225419536
177.047,261.234173917
177.062,261.242605425
177.077,261.250713169
177.092,261.25849629
177.107,261.265953936
177.122,261.273085274
177.137,261.279889492
177.152,261.286365794
177.167,261.292513393
177.182,261.29833152
177.197,261.303819442
177.21,261.308307971
177.212,261.30897642
177.227,261.313801743
177.242,261.318294729
177.257,261.32245469
177.272,261.326280974
177.287,261.32977295
177.302,261.332929989
177.31,261.33447659
177.317,261.335751504
177.332,261.338236904
177.347,261.340385632
177.362,261.342197145
177.377,261.343670925
177.392,261.344806461
177.407,261.345603287
177.422,261.346060919
177.437,261.346178936
177.452,261.345956905
177.467,261.34539443
177.482,261.344491128
177.497,261.343246634
177.512,261.34166062
177.527,261.339732767
177.542,261.337462768
177.557,261.334850358
177.572,261.331895282
177.587,261.328597306
177.602,261.324956214
177.617,261.320971827
177.632,261.316643972
177.647,261.311972494
177.66,261.307645849
177.662,261.306957285
177.677,261.301598232
177.692,261.295895266
177.707,261.289848312
177.722,261.283457345
177.737,261.276722352
177.752,261.269643332
177.767,261.262220322
177.782,261.254453371
177.797,261.246342558
177.812,261.237887978
177.827,261.22908975
177.842,261.219948011
177.857,261.210462929
177.872,261.200634681
177.887,261.190463487
177.902,261.179949569
177.917,261.169093177
177.932,261.157894589
177.947,261.1463541
177.96,261.136076024
177.962,261.13447202
177.977,261.122248691
177.992,261.109684482
178.007,261.096779771
178.022,261.083534954
178.037,261.069950456
178.052,261.056026736
178.067,261.041764251
178.082,261.027163488
178.097,261.012224962
178.112,260.996949197
178.127,260.981336749
178.142,260.965388177
178.157,260.949104086
178.172,260.932485077
178.187,260.915531784
178.202,260.898244851
178.217,260.880624955
178.232,260.862672778
178.247,260.844389027
178.262,260.82577443
178.277,260.806829726
178.292,260.787555688
178.307,260.767953078
178.322,260.748022714
178.337,260.727765387
178.352,260.707181943
178.367,260.686273231
178.382,260.665040103
178.397,260.643483451
178.41,260.624540003
178.412,260.621604161
178.427,260.599403146
178.442,260.576881333
178.457,260.554039657
178.472,260.530879078
178.487,260.507400561
178.502,260.483605088
178.517,260.459493647
178.532,260.435067253
178.547,260.410326913
178.562,260.38527367
178.577,260.359908551
178.592,260.334232618
178.607,260.308246932
178.622,260.281952554
178.637,260.255350573
178.652,260.228442085
178.667,260.201228172
178.682,260.17370995
178.697,260.145888534
178.712,260.117765038
178.727,260.089340593
178.742,260.060616323
178.757,260.03159337
178.772,260.002272876
178.787,259.972655983
178.802,259.942743843
178.817,259.912537608
178.832,259.882038431
178.847,259.851247468
178.862,259.820165877
178.877,259.788794819
178.892,259.757135443
178.907,259.725188916
178.922,259.692956383
178.937,259.660439013
178.952,259.627637951
178.967,259.594554337
178.982,259.561189329
178.997,259.527544062
179.012,259.493619668
179.027,259.459417287
179.042,259.424938044
179.057,259.390183043
179.072,259.355153407
179.087,259.319850233
179.102,259.28427461
179.117,259.248427628
179.132,259.212310356
179.147,259.17592387
179.16,259.144171946
179.162,259.139269202
179.177,259.102347405
179.192,259.065159504
179.207,259.027706515
179.222,258.989989431
179.237,258.952009252
179.252,258.913766937
179.267,258.875263444
179.282,258.83649971
179.297,258.797476664
179.312,258.758195202
179.327,258.718656215
179.342,258.678860565
179.357,258.638809103
179.372,258.598502664
179.387,258.557942044
179.402,258.517128031
179.417,258.476061397
179.432,258.434742869
179.447,258.393173177
179.462,258.351353016
179.477,258.309283049
179.492,258.266963929
179.507,258.224396277
179.522,258.181580686
179.537,258.138517722
179.552,258.095207939
179.567,258.051651835
179.582,258.007849907
179.597,257.963802615
179.612,257.919510387
179.627,257.874973626
179.642,257.830192698
179.657,257.785167947
179.672,257.739899678
179.687,257.694388183
179.702,257.64863369
179.717,257.602636439
179.732,257.556396592
179.747,257.509914313
179.762,257.46318971
179.777,257.416222877
179.792,257.369013863
179.807,257.321562681
179.822,257.273869317
179.837,257.225933713
179.852,257.177755787
179.867,257.129335411
179.882,257.080672434
179.897,257.031766655
179.91,256.989185067
179.912,256.982617844
179.927,256.933225734
179.942,256.883590031
179.957,256.833710382
179.972,256.783586422
179.987,256.733217733
180.002,256.682603855
180.017,256.631744312
180.032,256.58063857
180.047,256.52928607
180.062,256.477686211
180.077,256.425838347
180.092,256.373741806
180.107,256.321395868
180.122,256.268799788
180.137,256.215952775
180.152,256.162853989
180.167,256.109502564
180.182,256.055897607
180.197,256.002038164
180.212,255.947923251
180.227,255.893551854
180.242,255.83892292
180.257,255.784035344
180.272,255.728887998
180.287,255.673479714
180.302,255.617809277
180.317,255.561875455
180.332,255.505676953
180.347,255.449212463
180.362,255.39248062
180.377,255.335480035
180.392,255.278209289
180.407,255.220666911
180.422,255.162851401
180.437,255.104761223
180.452,255.04639481
180.467,254.987750565
180.482,254.928826842
180.497,254.869621964
180.512,254.810134233
180.527,254.750361914
180.542,254.690303232
180.557,254.629956379
180.56,254.617852264
180.572,254.569319523
180.587,254.5083908
180.602,254.447168312
180.617,254.385650136
180.632,254.323834313
180.647,254.261718863
180.66,254.207641549
180.662,254.199301774
180.677,254.136580999
180.692,254.073554474
180.707,254.010220124
180.722,253.946575811
180.737,253.882619405
180.752,253.818348741
180.767,253.753761635
180.782,253.688855879
180.797,253.623629246
180.812,253.558079493
180.827,253.492204345
180.842,253.426001532
180.857,253.359468751
180.872,253.292603692
180.887,253.22540403
180.902,253.157867432
180.917,253.089991544
180.932,253.021774017
180.947,252.953212488
180.962,252.884304585
180.977,252.81504794
180.992,252.745440173
181.007,252.675478917
181.022,252.605161795
181.037,252.534486443
181.052,252.463450483
181.067,252.392051583
181.082,252.320287379
181.097,252.248155545
181.112,252.175653775
181.127,252.102779758
181.142,252.029531218
181.157,251.955905905
181.172,251.881901589
181.187,251.807516069
181.202,251.732747185
181.217,251.6575928
181.232,251.582050827
181.247,251.506119225
181.262,251.429795987
181.277,251.353079163
181.292,251.275966866
181.307,251.198457244
181.31,251.182907492
181.322,251.12054855
181.337,251.042239066
181.352,250.963527161
181.367,250.884411285
181.382,250.804889963
181.397,250.724961824
181.412,250.644625572
181.427,250.56388002
181.442,250.482724084
181.457,250.401156798
181.472,250.319177298
181.487,250.236784865
181.502,250.153978899
181.517,250.07075894
181.532,249.987124678
181.547,249.903075941
181.562,249.818612749
181.577,249.733735259
181.592,249.648443825
181.607,249.56273898
181.622,249.47662145
181.637,249.390092174
181.652,249.303152301
181.667,249.215803202
181.682,249.128046491
181.697,249.039883999
181.712,248.951317846
181.727,248.862350396
181.742,248.772984301
181.757,248.683222501
181.772,248.593068219
181.787,248.502525026
181.802,248.411596779
181.817,248.320287707
181.832,248.228602367
181.847,248.136545691
181.862,248.044122994
181.877,247.951339977
181.892,247.858202751
181.907,247.764717847
181.922,247.670892246
181.937,247.576733361
181.952,247.482249092
181.967,247.387447813
181.982,247.292338411
181.997,247.196930272
182.012,247.10123333
182.027,247.005258061
182.042,246.909015523
182.057,246.812517349
182.06,246.793188106
182.072,246.715775781
182.087,246.618803673
182.102,246.521614526
182.117,246.424222501
182.132,246.326642428
182.147,246.228889829
182.162,246.130980945
182.177,246.032932743
182.192,245.934762941
182.207,245.836490023
182.222,245.738133252
182.237,245.639712693
182.252,245.541249237
182.267,245.442764621
182.282,245.344281409
182.297,245.245823061
182.312,245.147413912
182.327,245.049079201
182.342,244.950845086
182.357,244.852738649
182.372,244.754787932
182.387,244.657021921
182.402,244.55947058
182.417,244.462164837
182.432,244.365136631
182.447,244.268418883
182.462,244.17204552
182.477,244.07605148
182.492,243.980472709
182.507,243.885346174
182.522,243.790709847
182.537,243.696602716
182.552,243.603064774
182.567,243.51013701
182.582,243.417861403
182.597,243.326280909
182.612,243.235439448
182.627,243.145381882
182.642,243.056153983
182.657,242.967802441
182.672,242.88037479
182.687,242.793919417
182.702,242.708485494
182.717,242.624122953
182.732,242.540882452
182.747,242.45881529
182.762,242.377973393
182.777,242.298409226
182.792,242.220175752
182.807,242.143326348
182.822,242.067914734
182.837,241.993994902
182.852,241.921621019
182.867,241.850847369
182.882,241.781728215
182.897,241.714317723
182.912,241.648669879
182.927,241.584838347
182.942,241.522876374
182.957,241.462836669
182.972,241.40477127
182.987,241.348731456
183.002,241.294767583
183.017,241.242928958
183.032,241.193263739
183.047,241.145818749
183.062,241.100639397
183.077,241.057769487
183.092,241.017251129
183.107,240.979124584
183.122,240.943428139
183.137,240.91019797
183.152,240.879468036
183.167,240.851269931
183.182,240.825632807
183.197,240.802583238
183.212,240.782145135
183.227,240.764339647
183.242,240.749185094
183.257,240.736696878
183.367,240.727311348
183.382,240.737235663
183.397,240.749823318
183.412,240.765058308
183.427,240.782921735
183.442,240.803391889
183.457,240.826444333
183.472,240.852052002
183.487,240.880185284
183.502,240.910812149
183.517,240.943898256
183.532,240.979407081
183.547,241.017300026
183.562,241.057536564
183.577,241.10007437
183.592,241.144869441
183.607,241.191876246
183.622,241.24104785
183.637,241.292336063
183.652,241.345691544
183.667,241.40106397
183.682,241.458402141
183.697,241.517654114
183.712,241.578767309
183.727,241.641688672
183.742,241.706364737
183.757,241.772741777
183.772,241.840765876
183.787,241.910383067
183.802,241.981539405
183.817,242.054181056
183.832,242.128254399
183.847,242.203706098
183.862,242.280483182
183.877,242.358533111
183.892,242.437803846
183.907,242.518243917
183.922,242.599802459
183.937,242.68242929
183.952,242.766074941
183.967,242.850690713
183.982,242.93622869
183.997,243.022641808
184.012,243.109883867
184.027,243.197909548
184.042,243.286674463
184.057,243.376135167
184.072,243.466249151
184.087,243.556974883
184.102,243.648271832
184.117,243.740100422
184.132,243.832422102
184.147,243.925199304
184.162,244.018395474
184.177,244.11197504
184.192,244.205903454
184.207,244.300147143
184.222,244.394673541
184.237,244.489451056
184.252,244.584449067
184.267,244.679637913
184.282,244.774988909
184.297,244.870474293
184.312,244.966067236
184.327,245.061741832
184.342,245.157473076
184.357,245.253236836
184.372,245.349009868
184.387,245.444769777
184.402,245.540495017
184.417,245.636164835
184.432,245.731759312
184.447,245.827259319
184.462,245.922646475
184.477,246.017903159
184.492,246.1130125
184.507,246.207958322
184.522,246.302725162
184.537,246.397298242
184.552,246.491663427
184.56,246.541901841
184.567,246.585807244
184.582,246.679716843
184.597,246.77337999
184.612,246.866785031
184.627,246.959920899
184.642,247.052777083
184.657,247.145343607
184.672,247.237611033
184.687,247.329570417
184.702,247.421213321
184.717,247.512531771
184.732,247.603518267
184.747,247.694165749
184.762,247.784467582
184.777,247.87441756
184.792,247.964009877
184.807,248.053239094
184.822,248.14210017
184.837,248.230588418
184.852,248.318699504
184.867,248.406429409
184.882,248.493774455
184.897,248.580731264
184.912,248.667296763
184.927,248.753468157
184.942,248.839242933
184.957,248.924618838
184.972,249.009593868
184.987,249.094166274
185.002,249.178334529
185.017,249.262097339
185.032,249.345453597
185.047,249.428402441
185.062,249.51094317
185.077,249.593075287
185.092,249.674798465
185.107,249.756112552
185.122,249.837017551
185.137,249.917513636
185.152,249.997601099
185.167,250.077280402
185.182,250.156552118
185.197,250.235416962
185.212,250.313875757
185.227,250.391929439
185.242,250.469579071
185.257,250.54682579
185.272,250.623670848
185.287,250.700115577
185.302,250.7761614
185.31,250.816556595
185.317,250.851809836
185.332,250.927062446
185.347,251.001920888
185.362,251.076386871
185.377,251.150462188
185.392,251.224148664
185.407,251.297448204
185.422,251.370362735
185.437,251.442894256
185.452,251.515044799
185.467,251.586816434
185.482,251.658211271
185.497,251.729231454
185.512,251.799879153
185.527,251.870156568
185.542,251.940065931
185.557,252.009609489
185.572,252.078789505
185.587,252.147608266
185.602,252.216068072
185.617,252.284171243
185.632,252.351920094
185.647,252.419316967
185.662,252.486364189
185.677,252.553064116
185.692,252.619419086
185.707,252.68543146
185.722,252.751103569
185.737,252.816437776
185.752,252.881436421
185.767,252.946101837
185.782,253.01043636
185.797,253.074442308
185.812,253.138122012
185.827,253.20147777
185.842,253.264511886
185.857,253.327226633
185.872,253.389624284
185.887,253.451707107
185.902,253.513477335
185.917,253.5749372
185.932,253.636088907
185.947,253.696934656
185.96,253.749421828
185.962,253.757476617
185.977,253.817716948
185.992,253.877657784
186.007,253.93730124
186.022,253.996649415
186.037,254.055704379
186.052,254.114468193
186.06,254.145690543
186.067,254.172942877
186.082,254.231130444
186.097,254.289032879
186.112,254.346652133
186.127,254.403990151
186.142,254.461048834
186.157,254.517830075
186.172,254.574335732
186.187,254.630567645
186.202,254.686527611
186.217,254.742217424
186.232,254.79763883
186.247,254.852793568
186.262,254.907683331
186.277,254.962309793
186.292,255.016674607
186.307,255.070779391
186.322,255.124625737
186.337,255.178215199
186.352,255.231549324
186.367,255.284629612
186.382,255.337457543
186.397,255.390034574
186.412,255.442362118
186.427,255.494441566
186.442,255.546274293
186.457,255.597861622
186.472,255.649204866
186.487,255.700305302
186.502,255.751164184
186.517,255.801782717
186.532,255.852162107
186.547,255.902303512
186.562,255.952208061
186.577,256.001876862
186.592,256.051310988
186.607,256.100511491
186.622,256.14947939
186.637,256.198215671
186.652,256.246721296
186.667,256.294997193
186.682,256.343044275
186.697,256.390863421
186.71,256.432122953
186.712,256.438455465
186.727,256.485821244
186.742,256.532961538
186.757,256.579877126
186.772,256.62656873
186.787,256.67303707
186.802,256.71928283
186.817,256.765306657
186.832,256.811109192
186.847,256.856691026
186.862,256.902052742
186.877,256.947194887
186.892,256.992117994
186.907,257.036822541
186.922,257.081309022
186.937,257.125577874
186.952,257.169629521
186.967,257.213464355
186.982,257.257082754
186.997,257.300485064
187.012,257.343671614
187.027,257.386642698
187.042,257.42939859
187.057,257.471939558
187.072,257.514265819
187.087,257.556377583
187.102,257.598275041
187.117,257.639958351
187.132,257.681427662
187.147,257.722683079
187.162,257.763724723
187.177,257.804552658
187.192,257.845166948
187.207,257.885567627
187.222,257.925754716
187.237,257.965728212
187.252,258.005488097
187.267,258.045034332
187.282,258.084366864
187.297,258.123485616
187.312,258.162390484
187.327,258.201081378
187.342,258.239558157
187.357,258.277820684
187.372,258.3158688
187.387,258.353702328
187.402,258.391321079
187.417,258.42872485
187.432,258.465913419
187.447,258.502886555
187.46,258.534755487
187.462,258.53964401
187.477,258.576185521
187.492,258.612510821
187.507,258.648619619
187.522,258.684511615
187.537,258.720186506
187.552,258.755643962
187.567,258.790883661
187.582,258.825905251
187.597,258.860708384
187.612,258.8952927
187.627,258.929657823
187.642,258.963803377
187.657,258.997728965
187.672,259.031434204
187.687,259.064918669
187.702,259.098181964
187.717,259.131223669
187.732,259.164043348
187.747,259.196640581
187.762,259.229014923
187.777,259.261165934
187.792,259.29309317
187.807,259.324796177
187.822,259.356274491
187.837,259.387527667
187.852,259.418555225
187.867,259.449356716
187.882,259.479931658
187.897,259.510279585
187.912,259.540400019
187.927,259.570292496
187.942,259.599956535
187.957,259.629391657
187.972,259.658597388
187.987,259.687573249
188.002,259.716318769
188.017,259.744833466
188.032,259.773116867
188.047,259.801168498
188.062,259.828987893
188.077,259.856574572
188.092,259.883928081
188.107,259.911047942
188.122,259.937933696
188.137,259.964584887
188.152,259.991001059
188.167,260.017181767
188.182,260.043126553
188.197,260.068834977
188.21,260.090924092
188.212,260.094306609
188.227,260.119541007
188.242,260.14453775
188.257,260.169296409
188.272,260.193816577
188.287,260.218097838
188.302,260.242139787
188.317,260.265942031
188.332,260.289504182
188.347,260.312825854
188.362,260.335906664
188.377,260.358746258
188.392,260.381344266
188.407,260.403700336
188.422,260.425814129
188.437,260.447685306
188.452,260.469313545
188.467,260.490698521
188.482,260.511839927
188.497,260.532737466
188.512,260.553390847
188.527,260.573799786
188.542,260.593964011
188.557,260.613883274
188.572,260.633557303
188.587,260.652985875
188.602,260.672168746
188.617,260.691105709
188.632,260.709796545
188.647,260.728241061
188.66,260.744026912
188.662,260.74643906
188.677,260.764390381
188.692,260.782094844
188.707,260.7995523
188.722,260.81676261
188.737,260.833725635
