# 10410 EDZE Essen Observations at 12Z 09 Jun 2019
Frequency [GHz],TB
175.31,272.480441053
175.322,272.478771883
175.337,272.476497536
175.352,272.474013809
175.367,272.471320035
175.382,272.468415562
175.397,272.465299741
175.412,272.461971919
175.427,272.458431458
175.442,272.45467772
175.457,272.450710068
175.472,272.446527883
175.487,272.442130539
175.502,272.43751742
175.517,272.432687912
175.532,272.42764141
175.547,272.422377313
175.562,272.41689503
175.577,272.411193964
175.592,272.405273537
175.607,272.399133168
175.622,272.392772287
175.637,272.386190327
175.652,272.379386727
175.667,272.37236093
175.682,272.365112388
175.697,272.357640567
175.712,272.349944922
175.727,272.342024929
175.742,272.333880059
175.757,272.325509801
175.772,272.316913644
175.787,272.308091083
175.802,272.299041622
175.817,272.289764774
175.832,272.280260049
175.847,272.270526977
175.862,272.260565085
175.877,272.250373918
175.892,272.239953013
175.907,272.229301926
175.922,272.218420213
175.937,272.207307444
175.952,272.195963194
175.967,272.184387043
175.982,272.172578577
175.997,272.1605374
176.012,272.14826311
176.027,272.13575532
176.042,272.123013651
176.057,272.11003773
176.072,272.096827193
176.087,272.083381682
176.102,272.069700851
176.117,272.055784351
176.132,272.041631861
176.147,272.02724305
176.162,272.012617599
176.177,271.997755207
176.192,271.982655571
176.207,271.967318396
176.222,271.9517434
176.237,271.935930311
176.252,271.919878861
176.267,271.903588792
176.282,271.887059856
176.297,271.87029181
176.31,271.855565912
176.312,271.853284422
176.327,271.836037472
176.342,271.81855074
176.357,271.800824023
176.372,271.782857122
176.387,271.76464985
176.402,271.746202025
176.417,271.727513474
176.432,271.708584041
176.447,271.689413565
176.46,271.67260407
176.462,271.670001908
176.477,271.650348931
176.492,271.630454507
176.507,271.610318518
176.522,271.589940854
176.537,271.569321418
176.552,271.548460116
176.567,271.527356866
176.582,271.506011598
176.597,271.484424242
176.612,271.462594747
176.627,271.440523066
176.642,271.418209159
176.657,271.395652998
176.672,271.372854567
176.687,271.349813847
176.702,271.326530844
176.717,271.303005559
176.732,271.279238014
176.747,271.255228229
176.762,271.230976237
176.777,271.20648208
176.792,271.181745808
176.807,271.156767485
176.822,271.131547178
176.837,271.106084956
176.852,271.080380912
176.867,271.05443514
176.882,271.028247736
176.897,271.001818817
176.912,270.975148498
176.927,270.948236908
176.942,270.921084183
176.957,270.893690467
176.972,270.86605591
176.987,270.838180672
177.002,270.810064922
177.017,270.781708836
177.032,270.753112597
177.047,270.724276395
177.062,270.695200432
177.077,270.665884912
177.092,270.636330054
177.107,270.606536074
177.122,270.576503204
177.137,270.546231679
177.152,270.515721744
177.167,270.484973646
177.182,270.453987646
177.197,270.422764005
177.21,270.395511503
177.212,270.391302998
177.227,270.3596049
177.242,270.327669988
177.257,270.295498564
177.272,270.263090914
177.287,270.23044735
177.302,270.197568173
177.31,270.17993638
177.317,270.164453702
177.332,270.131104253
177.347,270.097520151
177.362,270.06370173
177.377,270.029649324
177.392,269.995363274
177.407,269.960843931
177.422,269.926091639
177.437,269.89110676
177.452,269.855889646
177.467,269.820440672
177.482,269.784760195
177.497,269.748848597
177.512,269.71270625
177.527,269.676333536
177.542,269.639730837
177.557,269.602898542
177.572,269.565837036
177.587,269.528546717
177.602,269.491027981
177.617,269.453281223
177.632,269.415306842
177.647,269.377105249
177.66,269.343813718
177.662,269.33867684
177.677,269.300022025
177.692,269.261141213
177.707,269.222034812
177.722,269.182703235
177.737,269.143146889
177.752,269.103366196
177.767,269.063361556
177.782,269.023133391
177.797,268.982682113
177.812,268.942008136
177.827,268.90111187
177.842,268.859993732
177.857,268.818654134
177.872,268.777093478
177.887,268.735312188
177.902,268.693310662
177.917,268.651089311
177.932,268.608648538
177.947,268.56598875
177.96,268.528840082
177.962,268.523110341
177.977,268.480013715
177.992,268.436699266
178.007,268.393167383
178.022,268.349418459
178.037,268.305452878
178.052,268.261271027
178.067,268.216873277
178.082,268.172260007
178.097,268.127431584
178.112,268.082388375
178.127,268.03713074
178.142,267.991659034
178.157,267.94597361
178.172,267.900074808
178.187,267.853962973
178.202,267.807638435
178.217,267.761101516
178.232,267.714352548
178.247,267.667391836
178.262,267.620219691
178.277,267.572836412
178.292,267.525242293
178.307,267.477437613
178.322,267.429422661
178.337,267.381197699
178.352,267.332762994
178.367,267.284118794
178.382,267.235265349
178.397,267.186202892
178.41,267.143513206
178.412,267.136931653
178.427,267.087451847
178.442,267.037763687
178.457,266.98786737
178.472,266.937763087
178.487,266.887451014
178.502,266.836931328
178.517,266.786204185
178.532,266.735269734
178.547,266.684128117
178.562,266.632779453
178.577,266.581223868
178.592,266.529461466
178.607,266.477492342
178.622,266.425316578
178.637,266.372934247
178.652,266.320345407
178.667,266.267550107
178.682,266.214548389
178.697,266.161340273
178.712,266.107925767
178.727,266.054304877
178.742,266.000477588
178.757,265.946443876
178.772,265.892203705
178.787,265.83775702
178.802,265.783103758
178.817,265.72824385
178.832,265.673177201
178.847,265.617903707
178.862,265.562423258
178.877,265.50673572
178.892,265.450840953
178.907,265.394738803
178.922,265.338429099
178.937,265.281911661
178.952,265.225186294
178.967,265.168252786
178.982,265.111110917
178.997,265.053760447
179.012,264.996201133
179.027,264.938432707
179.042,264.88045489
179.057,264.822267399
179.072,264.763869922
179.087,264.705262144
179.102,264.646443738
179.117,264.587414354
179.132,264.528173643
179.147,264.468721227
179.16,264.417024257
179.162,264.409056721
179.177,264.349179732
179.192,264.289089844
179.207,264.228786635
179.222,264.16826967
179.237,264.107538497
179.252,264.046592656
179.267,263.985431667
179.282,263.924055047
179.297,263.862462292
179.312,263.800652891
179.327,263.738626316
179.342,263.676382033
179.357,263.613919489
179.372,263.551238126
179.387,263.488337371
179.402,263.42521664
179.417,263.361875334
179.432,263.298312845
179.447,263.234528562
179.462,263.170521849
179.477,263.10629207
179.492,263.041838574
179.507,262.977160704
179.522,262.912257783
179.537,262.847129135
179.552,262.781774071
179.567,262.716191895
179.582,262.650381891
179.597,262.584343344
179.612,262.518075536
179.627,262.451577722
179.642,262.384849169
179.657,262.317889121
179.672,262.250696821
179.687,262.183271508
179.702,262.115612402
179.717,262.047718729
179.732,261.979589706
179.747,261.911224535
179.762,261.842622422
179.777,261.773782562
179.792,261.704704149
179.807,261.635386364
179.822,261.56582839
179.837,261.496029404
179.852,261.425988579
179.867,261.355705083
179.882,261.285178083
179.897,261.214406743
179.91,261.152873281
179.912,261.143390213
179.927,261.072127657
179.942,261.000618224
179.957,260.928861075
179.972,260.85685535
179.987,260.784600208
180.002,260.712094791
180.017,260.639338249
180.032,260.566329727
180.047,260.493068375
180.062,260.419553343
180.077,260.345783771
180.092,260.271758814
180.107,260.197477625
180.122,260.122939353
180.137,260.048143151
180.152,259.973088174
180.167,259.897773587
180.182,259.822198548
180.197,259.746362223
180.212,259.670263774
180.227,259.593902382
180.242,259.517277217
180.257,259.440387462
180.272,259.363232296
180.287,259.285810917
180.302,259.208122512
180.317,259.130166289
180.332,259.051941445
180.347,258.973447191
180.362,258.894682752
180.377,258.815647344
180.392,258.736340199
180.407,258.656760548
180.422,258.576907644
180.437,258.496780727
180.452,258.416379059
180.467,258.335701904
180.482,258.254748529
180.497,258.17351821
180.512,258.092010239
180.527,258.010223909
180.542,257.928158518
180.557,257.845813374
180.56,257.829310715
180.572,257.763187794
180.587,257.680281099
180.602,257.597092622
180.617,257.513621702
180.632,257.429867683
180.647,257.345829918
180.66,257.272767175
180.662,257.261507768
180.677,257.176900597
180.692,257.092007782
180.707,257.006828706
180.722,256.921362754
180.737,256.835609313
180.752,256.749567792
180.767,256.663237588
180.782,256.576618111
180.797,256.489708783
180.812,256.402509015
180.827,256.315018237
180.842,256.227235868
180.857,256.139161342
180.872,256.050794097
180.887,255.962133559
180.902,255.873179169
180.917,255.783930365
180.932,255.694386582
180.947,255.604547258
180.962,255.514411827
180.977,255.423979728
180.992,255.333250388
181.007,255.242223238
181.022,255.1508977
181.037,255.059273198
181.052,254.967349144
181.067,254.875124942
181.082,254.782599994
181.097,254.689773694
181.112,254.596645414
181.127,254.503214537
181.142,254.409480413
181.157,254.315442399
181.172,254.221099822
181.187,254.126452005
181.202,254.031498251
181.217,253.936237848
181.232,253.840670069
181.247,253.744794166
181.262,253.648609375
181.277,253.552114901
181.292,253.455309945
181.307,253.358193674
181.31,253.338732986
181.322,253.260765233
181.337,253.163023743
181.352,253.064968308
181.367,252.966597998
181.382,252.867911859
181.397,252.768908914
181.412,252.669588154
181.427,252.569948544
181.442,252.469989024
181.457,252.369708501
181.472,252.269105853
181.487,252.168179939
181.502,252.066929579
181.517,251.965353566
181.532,251.863450674
181.547,251.761219647
181.562,251.658659193
181.577,251.555768007
181.592,251.452544758
181.607,251.348988089
181.622,251.245096625
181.637,251.140868971
181.652,251.03630372
181.667,250.931399449
181.682,250.826154721
181.697,250.720568101
181.712,250.614638147
181.727,250.508363416
181.742,250.401742473
181.757,250.294773891
181.772,250.187456267
181.787,250.079788217
181.802,249.971768377
181.817,249.863395444
181.832,249.754668131
181.847,249.645585227
181.862,249.53614557
181.877,249.426348082
181.892,249.31619176
181.907,249.205675703
181.922,249.094799111
181.937,248.983561308
181.952,248.871961762
181.967,248.760000077
181.982,248.647676042
181.997,248.534989614
182.012,248.42194097
182.027,248.308530497
182.042,248.194758843
182.057,248.080626905
182.06,248.057757382
182.072,247.966135887
182.087,247.8512873
182.102,247.736083011
182.117,247.620525251
182.132,247.504616651
182.147,247.388360286
182.162,247.271759694
182.177,247.154818922
182.192,247.037542549
182.207,246.919935752
182.222,246.802004314
182.237,246.683754697
182.252,246.565194072
182.267,246.446330374
182.282,246.327172349
182.297,246.207729613
182.312,246.088012697
182.327,245.968033122
182.342,245.847803446
182.357,245.727337335
182.372,245.606649623
182.387,245.485756398
182.402,245.364675052
182.417,245.243424373
182.432,245.122024619
182.447,245.000497586
182.462,244.878866725
182.477,244.757157188
182.492,244.635395942
182.507,244.513611864
182.522,244.39183582
182.537,244.270100765
182.552,244.14844186
182.567,244.026896549
182.582,243.905504673
182.597,243.784308575
182.612,243.663353209
182.627,243.542686229
182.642,243.422358118
182.657,243.302422264
182.672,243.182935106
182.687,243.06395619
182.702,242.945548303
182.717,242.827777566
182.732,242.710713507
182.747,242.594429183
182.762,242.479001239
182.777,242.36450999
182.792,242.251039505
182.807,242.138677648
182.822,242.027516161
182.837,241.917650667
182.852,241.809180735
182.867,241.702209882
182.882,241.596845583
182.897,241.493199247
182.912,241.391386219
182.927,241.291525685
182.942,241.193740662
182.957,241.098157862
182.972,241.004907595
182.987,240.914123613
183.002,240.825942942
183.017,240.740505637
183.032,240.657954539
183.047,240.578434902
183.062,240.502094041
183.077,240.429080817
183.092,240.359545098
183.107,240.293637054
183.122,240.231506365
183.137,240.173301284
183.152,240.119167559
183.167,240.069247201
183.182,240.023677079
183.197,239.98258745
183.212,239.946100291
183.227,239.91432761
183.242,239.887369737
183.257,239.865313619
183.367,239.857590653
183.382,239.877517794
183.397,239.902331107
183.412,239.931941082
183.427,239.966245203
183.442,240.00512965
183.457,240.048471026
183.472,240.096138027
183.487,240.14799305
183.502,240.203893677
183.517,240.263694013
183.532,240.32724588
183.547,240.394399869
183.562,240.465006233
183.577,240.538915665
183.592,240.615979941
183.607,240.696052474
183.622,240.778988771
183.637,240.864646812
183.652,240.952887366
183.667,241.043574258
183.682,241.136574574
183.697,241.231758839
183.712,241.329001164
183.727,241.42817935
183.742,241.529174984
183.757,241.631873487
183.772,241.736164179
183.787,241.841940287
183.802,241.949098965
183.817,242.057541285
183.832,242.167172207
183.847,242.277900573
183.862,242.38963903
183.877,242.50230401
183.892,242.615815642
183.907,242.730097698
183.922,242.845077501
183.937,242.960685864
183.952,243.076856971
183.967,243.193528306
183.982,243.310640548
183.997,243.428137469
184.012,243.545965845
184.027,243.66407533
184.042,243.782418374
184.057,243.900950106
184.072,244.019628238
184.087,244.13841294
184.102,244.257266778
184.117,244.376154574
184.132,244.495043319
184.147,244.613902086
184.162,244.732701927
184.177,244.851415773
184.192,244.970018349
184.207,245.088486094
184.222,245.206797063
184.237,245.324930855
184.252,245.442868523
184.267,245.560592506
184.282,245.678086551
184.297,245.795335641
184.312,245.912325932
184.327,246.02904468
184.342,246.145480175
184.357,246.261621708
184.372,246.377459466
184.387,246.492984524
184.402,246.608188764
184.417,246.723064831
184.432,246.837606097
184.447,246.951806599
184.462,247.065660997
184.477,247.179164549
184.492,247.292313061
184.507,247.405102842
184.522,247.517530687
184.537,247.629593824
184.552,247.741289905
184.56,247.800710366
184.567,247.852616955
184.582,247.963573353
184.597,248.074157806
184.612,248.184369323
184.627,248.294207194
184.642,248.403670957
184.657,248.512760391
184.672,248.621475483
184.687,248.729816424
184.702,248.837783573
184.717,248.945377463
184.732,249.052598763
184.747,249.159448278
184.762,249.265926925
184.777,249.372035743
184.792,249.477775844
184.807,249.583148442
184.822,249.688154809
184.837,249.792796287
184.852,249.89707427
184.867,250.000990199
184.882,250.104545551
184.897,250.207741843
184.912,250.310580603
184.927,250.41306339
184.942,250.515191772
184.957,250.616967327
184.972,250.718391633
184.987,250.819466275
185.002,250.920192827
185.017,251.020572862
185.032,251.120607937
185.047,251.220299603
185.062,251.319649391
185.077,251.418658814
185.092,251.517329368
185.107,251.615662531
185.122,251.713659748
185.137,251.811322455
185.152,251.908652056
185.167,252.005649924
185.182,252.102317424
185.197,252.19865587
185.212,252.29466657
185.227,252.390350805
185.242,252.485709809
185.257,252.580744808
185.272,252.675457001
185.287,252.769847549
185.302,252.863917597
185.31,252.913957628
185.317,252.957668263
185.332,253.051100634
185.347,253.144215779
185.362,253.237014745
185.377,253.329498546
185.392,253.42166818
185.407,253.513524627
185.422,253.605068835
185.437,253.696301742
185.452,253.787224262
185.467,253.877837293
185.482,253.968141714
185.497,254.05813838
185.512,254.147828145
185.527,254.237211835
185.542,254.326290262
185.557,254.415064234
185.572,254.503534542
185.587,254.591701962
185.602,254.67956726
185.617,254.767131194
185.632,254.85439451
185.647,254.941357951
185.662,255.028022246
185.677,255.114388121
185.692,255.200456291
185.707,255.28622747
185.722,255.371702367
185.737,255.456881684
185.752,255.541766121
185.767,255.626356377
185.782,255.710653142
185.797,255.794657115
185.812,255.878368983
185.827,255.961789437
185.842,256.044919168
185.857,256.127758871
185.872,256.210309235
185.887,256.292570952
185.902,256.374544719
185.917,256.456231232
185.932,256.537631189
185.947,256.618745291
185.96,256.688813503
185.962,256.699574246
185.977,256.780118763
185.992,256.860379548
186.007,256.940357319
186.022,257.020052798
186.037,257.099466704
186.052,257.178599767
186.06,257.220689489
186.067,257.257452722
186.082,257.336026308
186.097,257.41432126
186.112,257.492338331
186.127,257.570078278
186.142,257.647541845
186.157,257.724729808
186.172,257.801642932
186.187,257.878281984
186.202,257.954647749
186.217,258.030741011
186.232,258.106562554
186.247,258.18211318
186.262,258.257393683
186.277,258.33240487
186.292,258.407147551
186.307,258.481622542
186.322,258.555830661
186.337,258.629772733
186.352,258.703449587
186.367,258.776862058
186.382,258.850010986
186.397,258.922897215
186.412,258.995521584
186.427,259.067884954
186.442,259.139988172
186.457,259.211832105
186.472,259.283417607
186.487,259.354745549
186.502,259.425816794
186.517,259.496632225
186.532,259.567192705
186.547,259.637499117
186.562,259.707552342
186.577,259.777353259
186.592,259.846902753
186.607,259.916201712
186.622,259.985251019
186.637,260.05405157
186.652,260.122604246
186.667,260.19090995
186.682,260.258969562
186.697,260.326783983
186.71,260.385358841
186.712,260.394354104
186.727,260.461680818
186.742,260.528765016
186.757,260.595607593
186.772,260.662209441
186.787,260.728571451
186.802,260.794694512
186.817,260.860579518
186.832,260.926227353
186.847,260.991638907
186.862,261.056815062
186.877,261.121756702
186.892,261.186464706
186.907,261.250939953
186.922,261.315183318
186.937,261.379195678
186.952,261.442977895
186.967,261.506530844
186.982,261.569855383
186.997,261.632952371
187.012,261.695822668
187.027,261.758467122
187.042,261.820886584
187.057,261.883081893
187.072,261.945053887
187.087,262.006803405
187.102,262.068331275
187.117,262.129638319
187.132,262.190725359
187.147,262.251593208
187.162,262.312242669
187.177,262.372674549
187.192,262.432889648
187.207,262.492888749
187.222,262.552672644
187.237,262.612242106
187.252,262.671597908
187.267,262.730740821
187.282,262.789671593
187.297,262.848390986
187.312,262.906899741
187.327,262.965198595
187.342,263.023288283
187.357,263.081169525
187.372,263.138843039
187.387,263.196309532
187.402,263.253569708
187.417,263.310624262
187.432,263.367473879
187.447,263.424119234
187.46,263.473047172
187.462,263.480561002
187.477,263.536799845
187.492,263.592836414
187.507,263.64867136
187.522,263.704305317
187.537,263.759738916
187.552,263.814972782
187.567,263.870007525
187.582,263.924843751
187.597,263.979482058
187.612,264.033923032
187.627,264.088167254
187.642,264.142215297
187.657,264.196067717
187.672,264.249725073
187.687,264.30318791
187.702,264.356456766
187.717,264.409532163
187.732,264.462414626
187.747,264.515104666
187.762,264.567602781
187.777,264.619909465
187.792,264.672025206
187.807,264.723950479
187.822,264.775685748
187.837,264.827231473
187.852,264.878588107
187.867,264.929756088
187.882,264.980735851
187.897,265.031527818
187.912,265.082132406
187.927,265.132550024
187.942,265.18278107
187.957,265.232825934
187.972,265.282684996
187.987,265.332358633
188.002,265.381847211
188.017,265.431151084
188.032,265.480270603
188.047,265.529206106
188.062,265.57795793
188.077,265.6265264
188.092,265.67491183
188.107,265.723114532
188.122,265.771134807
188.137,265.818972943
188.152,265.866629234
188.167,265.914103955
188.182,265.96139738
188.197,266.008509768
188.21,266.049194263
188.212,266.055441374
188.227,266.102192454
188.242,266.148763248
188.257,266.195153988
188.272,266.241364904
188.287,266.287396213
188.302,266.333248135
188.317,266.378920878
188.332,266.424414637
188.347,266.469729613
188.362,266.514865989
188.377,266.559823952
188.392,266.604603674
188.407,266.649205329
188.422,266.693629077
188.437,266.737875077
188.452,266.781943486
188.467,266.825834441
188.482,266.869548093
188.497,266.913084571
188.512,266.956444011
188.527,266.999626535
188.542,267.042632267
188.557,267.085461318
188.572,267.128113802
188.587,267.170589826
188.602,267.212889489
188.617,267.255012886
188.632,267.296960116
188.647,267.338731264
188.66,267.37479056
188.662,267.380326414
188.677,267.421745647
188.692,267.462989043
188.707,267.504056665
188.722,267.5449486
188.737,267.585664896
