# 10410 EDZE Essen Observations at 12Z 01 Jun 2019
Frequency [GHz],TB
175.31,276.355434084
175.322,276.342133884
175.337,276.325369147
175.352,276.308449283
175.367,276.291374144
175.382,276.274143586
175.397,276.256757467
175.412,276.23921565
175.427,276.221518001
175.442,276.203664389
175.457,276.185654687
175.472,276.167488772
175.487,276.149166523
175.502,276.130687825
175.517,276.112052564
175.532,276.093260632
175.547,276.074311922
175.562,276.055206332
175.577,276.035943764
175.592,276.016524121
175.607,275.996947313
175.622,275.977213251
175.637,275.95732185
175.652,275.93727303
175.667,275.917066712
175.682,275.896702822
175.697,275.876181289
175.712,275.855502047
175.727,275.83466503
175.742,275.813670179
175.757,275.792517437
175.772,275.771206749
175.787,275.749738066
175.802,275.72811134
175.817,275.706326527
175.832,275.684383589
175.847,275.662282487
175.862,275.640023188
175.877,275.617605661
175.892,275.595029879
175.907,275.572295819
175.922,275.549403459
175.937,275.526352782
175.952,275.503143774
175.967,275.479776422
175.982,275.456250719
175.997,275.432566659
176.012,275.408724241
176.027,275.384723465
176.042,275.360564335
176.057,275.336246857
176.072,275.311771041
176.087,275.2871369
176.102,275.262344448
176.117,275.237393705
176.132,275.212284689
176.147,275.187017426
176.162,275.16159194
176.177,275.136008262
176.192,275.110266421
176.207,275.084366453
176.222,275.058308393
176.237,275.032092279
176.252,275.005718155
176.267,274.979186061
176.282,274.952496046
176.297,274.925648156
176.31,274.90225232
176.312,274.898642442
176.327,274.871478956
176.342,274.844157752
176.357,274.816678888
176.372,274.789042422
176.387,274.761248413
176.402,274.733296925
176.417,274.705188021
176.432,274.676921767
176.447,274.64849823
176.46,274.623737328
176.462,274.61991748
176.477,274.591179588
176.492,274.562284625
176.507,274.533232664
176.522,274.504023782
176.537,274.474658054
176.552,274.445135557
176.567,274.41545637
176.582,274.385620573
176.597,274.355628246
176.612,274.325479472
176.627,274.295174332
176.642,274.26471291
176.657,274.23409529
176.672,274.203321556
176.687,274.172391794
176.702,274.141306089
176.717,274.110064529
176.732,274.078667198
176.747,274.047114184
176.762,274.015405574
176.777,273.983541455
176.792,273.951521914
176.807,273.919347038
176.822,273.887016913
176.837,273.854531626
176.852,273.821891263
176.867,273.789095911
176.882,273.756145655
176.897,273.723040578
176.912,273.689780767
176.927,273.656366303
176.942,273.622797269
176.957,273.589073747
176.972,273.555195817
176.987,273.521163559
177.002,273.486977051
177.017,273.45263637
177.032,273.418141592
177.047,273.38349279
177.062,273.348690036
177.077,273.313733403
177.092,273.278622958
177.107,273.24335877
177.122,273.207940902
177.137,273.17236942
177.152,273.136644382
177.167,273.10076585
177.182,273.064733878
177.197,273.028548521
177.21,272.997063847
177.212,272.992209831
177.227,272.955717856
177.242,272.919072644
177.257,272.882274236
177.272,272.845322675
177.287,272.808217998
177.302,272.770960238
177.31,272.751026851
177.317,272.733549429
177.332,272.695985596
177.347,272.658268766
177.362,272.620398959
177.377,272.582376194
177.392,272.544200484
177.407,272.505871839
177.422,272.467390266
177.437,272.428755767
177.452,272.389968341
177.467,272.351027983
177.482,272.311934681
177.497,272.272688423
177.512,272.233289189
177.527,272.193736957
177.542,272.154031698
177.557,272.114173382
177.572,272.074161969
177.587,272.033997419
177.602,271.993679685
177.617,271.953208714
177.632,271.91258445
177.647,271.871806831
177.66,271.836342128
177.662,271.830875789
177.677,271.789791251
177.692,271.748553138
177.707,271.707161368
177.722,271.66561585
177.737,271.62391649
177.752,271.582063186
177.767,271.540055831
177.782,271.497894313
177.797,271.455578513
177.812,271.413108305
177.827,271.37048356
177.842,271.327704138
177.857,271.284769898
177.872,271.241680688
177.887,271.198436352
177.902,271.155036727
177.917,271.111481642
177.932,271.067770922
177.947,271.023904384
177.96,270.98576053
177.962,270.979881836
177.977,270.935703082
177.992,270.891367919
178.007,270.846876134
178.022,270.802227511
178.037,270.757421823
178.052,270.712458838
178.067,270.667338316
178.082,270.62206001
178.097,270.576623666
178.112,270.53102902
178.127,270.485275805
178.142,270.439363742
178.157,270.393292547
178.172,270.347061926
178.187,270.30067158
178.202,270.254121201
178.217,270.207410472
178.232,270.16053907
178.247,270.113506662
178.262,270.066312909
178.277,270.018957463
178.292,269.971439967
178.307,269.923760057
178.322,269.875917361
178.337,269.827911497
178.352,269.779742077
178.367,269.731408703
178.382,269.682910969
178.397,269.634248461
178.41,269.591940677
178.412,269.585420756
178.427,269.536427422
178.442,269.487268019
178.457,269.437942098
178.472,269.388449203
178.487,269.338788866
178.502,269.288960614
178.517,269.238963961
178.532,269.188798416
178.547,269.138463478
178.562,269.087958634
178.577,269.037283367
178.592,268.986437146
178.607,268.935419435
178.622,268.884229687
178.637,268.832867346
178.652,268.781331845
178.667,268.729622611
178.682,268.677739059
178.697,268.625680597
178.712,268.57344662
178.727,268.521036517
178.742,268.468449666
178.757,268.415685434
178.772,268.362743182
178.787,268.309622256
178.802,268.256321998
178.817,268.202841734
178.832,268.149180786
178.847,268.095338462
178.862,268.041314061
178.877,267.987106873
178.892,267.932716175
178.907,267.878141236
178.922,267.823381314
178.937,267.768435657
178.952,267.713303502
178.967,267.657984074
178.982,267.60247659
178.997,267.546780253
179.012,267.490894258
179.027,267.434817787
179.042,267.378550012
179.057,267.322090092
179.072,267.265437177
179.087,267.208590404
179.102,267.151548898
179.117,267.094311773
179.132,267.036878131
179.147,266.979247063
179.16,266.929139728
179.162,266.921417645
179.177,266.863388944
179.192,266.805160011
179.207,266.746729889
179.222,266.688097603
179.237,266.629262169
179.252,266.570222588
179.267,266.510977848
179.282,266.451526923
179.297,266.391868774
179.312,266.332002349
179.327,266.27192658
179.342,266.211640385
179.357,266.151142669
179.372,266.09043232
179.387,266.029508213
179.402,265.968369206
179.417,265.907014143
179.432,265.845441851
179.447,265.783651142
179.462,265.721640811
179.477,265.659409637
179.492,265.596956382
179.507,265.534279789
179.522,265.471378587
179.537,265.408251484
179.552,265.344897172
179.567,265.281314323
179.582,265.217501591
179.597,265.153457612
179.612,265.089180999
179.627,265.024670349
179.642,264.959924236
179.657,264.894941215
179.672,264.829719819
179.687,264.76425856
179.702,264.698555928
179.717,264.63261039
179.732,264.566420392
179.747,264.499984355
179.762,264.433300676
179.777,264.36636773
179.792,264.299183866
179.807,264.231747408
179.822,264.164056653
179.837,264.096109875
179.852,264.027905318
179.867,263.959441202
179.882,263.890715716
179.897,263.821727022
179.91,263.761722474
179.912,263.752473255
179.927,263.682952517
179.942,263.613162883
179.957,263.543102396
179.972,263.472769068
179.987,263.402160878
180.002,263.331275774
180.017,263.260111671
180.032,263.188666449
180.047,263.116937953
180.062,263.044923996
180.077,262.972622352
180.092,262.900030759
180.107,262.82714692
180.122,262.753968497
180.137,262.680493116
180.152,262.606718362
180.167,262.532641781
180.182,262.458260878
180.197,262.383573115
180.212,262.308575915
180.227,262.233266655
180.242,262.157642669
180.257,262.081701247
180.272,262.005439634
180.287,261.928855027
180.302,261.851944578
180.317,261.774705392
180.332,261.697134524
180.347,261.619228979
180.362,261.540985715
180.377,261.462401637
180.392,261.3834736
180.407,261.304198405
180.422,261.224572802
180.437,261.144593485
180.452,261.064257095
180.467,260.983560218
180.482,260.902499384
180.497,260.821071063
180.512,260.739271673
180.527,260.657097569
180.542,260.57454505
180.557,260.491610354
180.56,260.474977218
180.572,260.408289659
180.587,260.324579084
180.602,260.240474683
180.617,260.15597245
180.632,260.071068317
180.647,259.985758152
180.66,259.911490998
180.662,259.900037758
180.677,259.813902875
180.692,259.727349178
180.707,259.640372276
180.722,259.552967715
180.737,259.465130971
180.752,259.376857457
180.767,259.288142517
180.782,259.19898143
180.797,259.109369407
180.812,259.019301592
180.827,258.928773062
180.842,258.837778825
180.857,258.746313824
180.872,258.654372932
180.887,258.561950958
180.902,258.469042642
180.917,258.375642658
180.932,258.281745613
180.947,258.18734605
180.962,258.092438443
180.977,257.997017206
180.992,257.901076685
181.007,257.804611165
181.022,257.707614867
181.037,257.610081954
181.052,257.512006524
181.067,257.413382619
181.082,257.314204224
181.097,257.214465264
181.112,257.114159613
181.127,257.013281092
181.142,256.911823468
181.157,256.809780462
181.172,256.707145746
181.187,256.60391295
181.202,256.500075659
181.217,256.395627421
181.232,256.290561746
181.247,256.184872112
181.262,256.078551966
181.277,255.971594727
181.292,255.863993794
181.307,255.755742544
181.31,255.734013672
181.322,255.646834339
181.337,255.537262533
181.352,255.427020469
181.367,255.316101494
181.382,255.204498956
181.397,255.09220621
181.412,254.97921663
181.427,254.865523608
181.442,254.751120564
181.457,254.636000951
181.472,254.520158262
181.487,254.40358604
181.502,254.28627788
181.517,254.168227442
181.532,254.049428459
181.547,253.929874741
181.562,253.809560189
181.577,253.688478804
181.592,253.566624693
181.607,253.443992085
181.622,253.320575338
181.637,253.19636895
181.652,253.071367574
181.667,252.945566027
181.682,252.818959304
181.697,252.691542593
181.712,252.563311285
181.727,252.434260992
181.742,252.304387558
181.757,252.173687081
181.772,252.042155922
181.787,251.909790724
181.802,251.776588433
181.817,251.642546309
181.832,251.507661952
181.847,251.371933316
181.862,251.235358731
181.877,251.097936922
181.892,250.959667034
181.907,250.820548649
181.922,250.680581814
181.937,250.539767058
181.952,250.398105425
181.967,250.255598491
181.982,250.112248393
181.997,249.968057858
182.012,249.823030226
182.027,249.67716948
182.042,249.530480279
182.057,249.382967981
182.06,249.353367272
182.072,249.234638679
182.087,249.085499233
182.102,248.935557298
182.117,248.784821362
182.132,248.633300781
182.147,248.481005811
182.162,248.327947645
182.177,248.174138454
182.192,248.019591422
182.207,247.864320789
182.222,247.708341885
182.237,247.55167118
182.252,247.39432632
182.267,247.236326175
182.282,247.077690881
182.297,246.918441888
182.312,246.758602007
182.327,246.598195457
182.342,246.437247913
182.357,246.275786563
182.372,246.113840151
182.387,245.951439039
182.402,245.788615252
182.417,245.625402539
182.432,245.461836427
182.447,245.297954281
182.462,245.133795356
182.477,244.969400861
182.492,244.804814017
182.507,244.640080115
182.522,244.47524658
182.537,244.310363028
182.552,244.145481328
182.567,243.980655659
182.582,243.815942573
182.597,243.651401048
182.612,243.487092545
182.627,243.323081059
182.642,243.159433171
182.657,242.996218088
182.672,242.833507687
182.687,242.671376548
182.702,242.509901976
182.717,242.349164023
182.732,242.189245492
182.747,242.030231931
182.762,241.872211618
182.777,241.715275528
182.792,241.55951728
182.807,241.405033069
182.822,241.25192158
182.837,241.100283881
182.852,240.950223289
182.867,240.801845219
182.882,240.655257019
182.897,240.510567781
182.912,240.367888147
182.927,240.227330113
182.942,240.089006852
182.957,239.953032575
182.972,239.819522454
182.987,239.688592669
183.002,239.560360623
183.017,239.434945422
183.032,239.312468732
183.047,239.193056157
183.062,239.076839354
183.077,238.963959119
183.092,238.85456978
183.107,238.748845247
183.122,238.646987139
183.137,238.549235354
183.152,238.455881314
183.167,238.367283787
183.182,238.283886462
183.197,238.206235347
183.212,238.134992385
183.227,238.070939618
183.242,238.014966445
183.257,237.968032148
183.367,237.962902451
183.382,238.00798747
183.397,238.061874442
183.412,238.123617443
183.427,238.192352289
183.442,238.267327176
183.457,238.347910454
183.472,238.433583491
183.487,238.523925688
183.502,238.618596814
183.517,238.717319755
183.532,238.819865327
183.547,238.926039718
183.562,239.035674569
183.577,239.148619415
183.592,239.264736092
183.607,239.383894706
183.622,239.505970815
183.637,239.63084353
183.652,239.758394276
183.667,239.888506046
183.682,240.021062997
183.697,240.155950283
183.712,240.293054048
183.727,240.432261512
183.742,240.573461133
183.757,240.716542782
183.772,240.861397945
183.787,241.007919913
183.802,241.156003965
183.817,241.30554753
183.832,241.456450334
183.847,241.608614524
183.862,241.761944769
183.877,241.916348343
183.892,242.07173519
183.907,242.228017962
183.922,242.385112053
183.937,242.54293561
183.952,242.701409536
183.967,242.860457474
183.982,243.020005792
183.997,243.17998355
184.012,243.340322465
184.027,243.500956869
184.042,243.66182366
184.057,243.822862255
184.072,243.98401453
184.087,244.145224767
184.102,244.306439595
184.117,244.467607929
184.132,244.628680909
184.147,244.789611841
184.162,244.950356133
184.177,245.110871236
184.192,245.271116583
184.207,245.431053529
184.222,245.590645292
184.237,245.749856893
184.252,245.908655103
184.267,246.067008382
184.282,246.224886827
184.297,246.382262116
184.312,246.539107458
184.327,246.695397539
184.342,246.851108472
184.357,247.006217751
184.372,247.160704199
184.387,247.314547922
184.402,247.467730268
184.417,247.620233777
184.432,247.772042139
184.447,247.923140157
184.462,248.073513698
184.477,248.22314966
184.492,248.37203593
184.507,248.520161346
184.522,248.667515662
184.537,248.814089512
184.552,248.959874374
184.56,249.037300997
184.567,249.104862536
184.582,249.249047066
184.597,249.392421777
184.612,249.534981198
184.627,249.676720544
184.642,249.817635685
184.657,249.957723119
184.672,250.096979943
184.687,250.235403831
184.702,250.372993001
184.717,250.509746197
184.732,250.645662659
184.747,250.780742102
184.762,250.914984695
184.777,251.048391035
184.792,251.18096213
184.807,251.312699374
184.822,251.44360453
184.837,251.573679711
184.852,251.702927359
184.867,251.831350229
184.882,251.958951372
184.897,252.085734116
184.912,252.211702052
184.927,252.336859017
184.942,252.461209082
184.957,252.584756534
184.972,252.707505863
184.987,252.829461751
185.002,252.950629056
185.017,253.071012803
185.032,253.190618167
185.047,253.309450469
185.062,253.427515158
185.077,253.544817807
185.092,253.661364095
185.107,253.777159808
185.122,253.892210818
185.137,254.006523084
185.152,254.120102638
185.167,254.23295558
185.182,254.345088068
185.197,254.456506311
185.212,254.567216564
185.227,254.677225119
185.242,254.786538301
185.257,254.895162458
185.272,255.00310396
185.287,255.110369191
185.302,255.216964542
185.31,255.273543699
185.317,255.322896411
185.332,255.428171194
185.347,255.532795281
185.362,255.636775055
185.377,255.740116883
185.392,255.842827116
185.407,255.944912086
185.422,256.046378099
185.437,256.147231434
185.452,256.24747834
185.467,256.347125034
185.482,256.446177695
185.497,256.544642466
185.512,256.642525448
185.527,256.739832702
185.542,256.836570241
185.557,256.932744033
185.572,257.028359998
185.587,257.123424005
185.602,257.217941874
185.617,257.31191937
185.632,257.405362204
185.647,257.498276034
185.662,257.590666458
185.677,257.682539021
185.692,257.773899207
185.707,257.864752442
185.722,257.955104094
185.737,258.044959469
185.752,258.134323814
185.767,258.223202312
185.782,258.311600089
185.797,258.399522206
185.812,258.486973663
185.827,258.573959399
185.842,258.660484289
185.857,258.746553147
185.872,258.832170724
185.887,258.91734171
185.902,259.00207073
185.917,259.086362351
185.932,259.170221075
185.947,259.253651344
185.96,259.325614392
185.962,259.336657538
185.977,259.419243976
185.992,259.501414917
186.007,259.583174559
186.022,259.66452704
186.037,259.745476438
186.052,259.826026773
186.06,259.86882515
186.067,259.906182007
186.082,259.985946041
186.097,260.065322721
186.112,260.144315835
186.127,260.222929114
186.142,260.301166235
186.157,260.379030817
186.172,260.456526426
186.187,260.533656573
186.202,260.610424715
186.217,260.686834258
186.232,260.762888554
186.247,260.838590904
186.262,260.913944558
186.277,260.988952715
186.292,261.063618526
186.307,261.137945091
186.322,261.211935464
186.337,261.285592649
186.352,261.358919606
186.367,261.431919246
186.382,261.504594435
186.397,261.576947996
186.412,261.648982706
186.427,261.7207013
186.442,261.792106468
186.457,261.86320086
186.472,261.933987084
186.487,262.004467706
186.502,262.074645254
186.517,262.144522216
186.532,262.21410104
186.547,262.283384137
186.562,262.352373881
186.577,262.421072608
186.592,262.489482618
186.607,262.557606176
186.622,262.625445513
186.637,262.693002824
186.652,262.760280272
186.667,262.827279985
186.682,262.89400406
186.697,262.960454562
186.71,263.017825281
186.712,263.026633526
186.727,263.092542953
186.742,263.158184817
186.757,263.22356106
186.772,263.288673599
186.787,263.353524318
186.802,263.418115075
186.817,263.482447702
186.832,263.546524002
186.847,263.610345752
186.862,263.673914705
186.877,263.737232587
186.892,263.8003011
186.907,263.86312192
186.922,263.925696701
186.937,263.988027074
186.952,264.050114644
186.967,264.111960997
186.982,264.173567694
186.997,264.234936278
187.012,264.296068266
187.027,264.356965157
187.042,264.41762843
187.057,264.478059543
187.072,264.538259935
187.087,264.598231024
187.102,264.657974211
187.117,264.717490878
187.132,264.776782389
187.147,264.835850088
187.162,264.894695305
187.177,264.953319351
187.192,265.01172352
187.207,265.06990909
187.222,265.127877321
187.237,265.185629461
187.252,265.243166739
187.267,265.30049037
187.282,265.357601553
187.297,265.414501473
187.312,265.471191302
187.327,265.527672194
187.342,265.583945292
187.357,265.640011724
187.372,265.695872606
187.387,265.75152904
187.402,265.806982113
187.417,265.862232901
187.432,265.917282469
187.447,265.972131866
187.46,266.019506898
187.462,266.026782132
187.477,266.081234293
187.492,266.135489365
187.507,266.18954835
187.522,266.243412241
187.537,266.297082019
187.552,266.350558653
187.567,266.403843102
187.582,266.456936315
187.597,266.509839229
187.612,266.562552773
187.627,266.615077862
187.642,266.667415404
187.657,266.719566297
187.672,266.771531427
187.687,266.823311672
187.702,266.874907902
187.717,266.926320974
187.732,266.977551738
187.747,267.028601035
187.762,267.079469697
187.777,267.130158546
187.792,267.180668396
187.807,267.231000052
187.822,267.281154312
187.837,267.331131963
187.852,267.380933785
187.867,267.43056055
187.882,267.480013022
187.897,267.529291956
187.912,267.5783981
187.927,267.627332193
187.942,267.676094967
187.957,267.724687147
187.972,267.77310945
187.987,267.821362583
188.002,267.86944725
188.017,267.917364144
188.032,267.965113952
188.047,268.012697355
188.062,268.060115024
188.077,268.107367625
188.092,268.154455817
188.107,268.201380251
188.122,268.248141573
188.137,268.294740419
188.152,268.341177422
188.167,268.387453205
188.182,268.433568386
188.197,268.479523577
188.21,268.519222462
188.212,268.525319383
188.227,268.570956401
188.242,268.616435223
188.257,268.661756436
188.272,268.706920618
188.287,268.751928343
188.302,268.796780177
188.317,268.841476681
188.332,268.886018409
188.347,268.930405911
188.362,268.974639729
188.377,269.018720399
188.392,269.062648452
188.407,269.106424414
188.422,269.150048804
188.437,269.193522135
188.452,269.236844914
188.467,269.280017645
188.482,269.323040823
188.497,269.36591494
188.512,269.408640481
188.527,269.451217926
188.542,269.49364775
188.557,269.535930422
188.572,269.578066406
188.587,269.620056161
188.602,269.661900139
188.617,269.70359879
188.632,269.745152556
188.647,269.786561876
188.66,269.822333446
188.662,269.827827182
188.677,269.868948902
188.692,269.909927459
188.707,269.950763272
188.722,269.991456752
188.737,270.03200831
