# 01004 ENAS Ny-Alesund Ii Observations at 12Z 04 Feb 2020
Frequency [GHz],TB
175.31,181.677913658
175.322,181.723788119
175.337,181.781335608
175.352,181.839111173
175.367,181.897115868
175.382,181.955350732
175.397,182.013816808
175.412,182.072515163
175.427,182.131446853
175.442,182.190612937
175.457,182.250014497
175.472,182.309652581
175.487,182.369528284
175.502,182.429642684
175.517,182.489996849
175.532,182.55059188
175.547,182.611428866
175.562,182.672508915
175.577,182.733833121
175.592,182.795402585
175.607,182.857218418
175.622,182.919281735
175.637,182.981593658
175.652,183.044155313
175.667,183.106967799
175.682,183.17003229
175.697,183.233349886
175.712,183.296921741
175.727,183.360748995
175.742,183.424832798
175.757,183.489174297
175.772,183.55377464
175.787,183.618635007
175.802,183.683756558
175.817,183.749140437
175.832,183.814787834
175.847,183.880699925
175.862,183.946877875
175.877,184.013322897
175.892,184.080036149
175.907,184.147018842
175.922,184.214272153
175.937,184.281797293
175.952,184.349595476
175.967,184.417667887
175.982,184.486015741
175.997,184.554640269
176.012,184.623542674
176.027,184.692724184
176.042,184.762186027
176.057,184.831929428
176.072,184.901955609
176.087,184.972265823
176.102,185.042861318
176.117,185.113743321
176.132,185.184913083
176.147,185.25637185
176.162,185.328120893
176.177,185.400161452
176.192,185.472494809
176.207,185.545122207
176.222,185.618044915
176.237,185.691264218
176.252,185.764781381
176.267,185.838597686
176.282,185.912714413
176.297,185.987132836
176.31,186.051873844
176.312,186.061854253
176.327,186.136879948
176.342,186.212211217
176.357,186.287849344
176.372,186.363795652
176.387,186.440051415
176.402,186.51661795
176.417,186.593496559
176.432,186.670688548
176.447,186.748195236
176.46,186.81562326
176.462,186.826017926
176.477,186.904157938
176.492,186.98261659
176.507,187.06139521
176.522,187.140495118
176.537,187.219917629
176.552,187.299664076
176.567,187.379735786
176.582,187.460134094
176.597,187.540860323
176.612,187.621915818
176.627,187.703301903
176.642,187.785019919
176.657,187.867071217
176.672,187.949457112
176.687,188.032178965
176.702,188.115238101
176.717,188.198635881
176.732,188.282373638
176.747,188.36645273
176.762,188.450874489
176.777,188.535640253
176.792,188.620751392
176.807,188.706209237
176.822,188.792015139
176.837,188.878170455
176.852,188.964676523
176.867,189.051534689
176.882,189.138746297
176.897,189.226312714
176.912,189.31423527
176.927,189.402515316
176.942,189.491154199
176.957,189.580153259
176.972,189.669513848
176.987,189.759237297
177.002,189.849324959
177.017,189.939778181
177.032,190.030598277
177.047,190.121786599
177.062,190.213344485
177.077,190.30527326
177.092,190.397574265
177.107,190.490248812
177.122,190.583298246
177.137,190.676723887
177.152,190.770527037
177.167,190.864709037
177.182,190.959271193
177.197,191.05421481
177.21,191.136808855
177.212,191.149541207
177.227,191.245251675
177.242,191.341347519
177.257,191.437830037
177.272,191.534700522
177.287,191.631960245
177.302,191.729610514
177.31,191.781850781
177.317,191.827652585
177.332,191.926087735
177.347,192.024917236
177.362,192.12414234
177.377,192.223764304
177.392,192.323784376
177.407,192.424203801
177.422,192.525023815
177.437,192.626245645
177.452,192.727870511
177.467,192.829899622
177.482,192.932334197
177.497,193.035175423
177.512,193.138424503
177.527,193.242082595
177.542,193.346150899
177.557,193.450630555
177.572,193.555522743
177.587,193.660828588
177.602,193.766549238
177.617,193.872685812
177.632,193.97923942
177.647,194.086211169
177.66,194.179259099
177.662,194.193602161
177.677,194.301413463
177.692,194.409646152
177.707,194.518301284
177.722,194.627379907
177.737,194.73688304
177.752,194.84681172
177.767,194.957166931
177.782,195.067949687
177.797,195.179160947
177.812,195.290801685
177.827,195.402872829
177.842,195.515375349
177.857,195.62831012
177.872,195.741678064
177.887,195.855480052
177.902,195.969716974
177.917,196.084389653
177.932,196.19949893
177.947,196.315045611
177.96,196.415540506
177.962,196.43103051
177.977,196.547454374
177.992,196.664317978
178.007,196.781622045
178.022,196.899367309
178.037,197.017554438
178.052,197.136184121
178.067,197.255257012
178.082,197.37477372
178.097,197.49473487
178.112,197.615141022
178.127,197.73599276
178.142,197.857290607
178.157,197.979035048
178.172,198.101226598
178.187,198.223865696
178.202,198.346952774
178.217,198.470488237
178.232,198.594472467
178.247,198.718905809
178.262,198.843788561
178.277,198.969121042
178.292,199.094903494
178.307,199.221136135
178.322,199.347819181
178.337,199.47495279
178.352,199.602537099
178.367,199.730572194
178.382,199.859058169
178.397,199.987995022
178.41,200.100105022
178.412,200.117382773
178.427,200.247221369
178.442,200.377510742
178.457,200.508250779
178.472,200.639441334
178.487,200.771082212
178.502,200.903173198
178.517,201.035714006
178.532,201.168704341
178.547,201.30214386
178.562,201.436032168
178.577,201.570368832
178.592,201.705153367
178.607,201.840385261
178.622,201.976063946
178.637,202.112188835
178.652,202.248759231
178.667,202.385774453
178.682,202.523233752
178.697,202.661136325
178.712,202.799481316
178.727,202.938267836
178.742,203.07749492
178.757,203.21716158
178.772,203.357266748
178.787,203.497809318
178.802,203.638788135
178.817,203.780201972
178.832,203.922049554
178.847,204.064329557
178.862,204.20704058
178.877,204.350181185
178.892,204.493749859
178.907,204.637745042
178.922,204.782165096
178.937,204.927008335
178.952,205.072273004
178.967,205.217957284
178.982,205.364059285
178.997,205.51057707
179.012,205.657508619
179.027,205.804851854
179.042,205.952604616
179.057,206.100764688
179.072,206.249329778
179.087,206.398297516
179.102,206.547665489
179.117,206.697431167
179.132,206.847591981
179.147,206.998145268
179.16,207.128940143
179.162,207.149088302
179.177,207.300418266
179.192,207.452132279
179.207,207.604227369
179.222,207.756700507
179.237,207.909548538
179.252,208.062768274
179.267,208.216356433
179.282,208.370309623
179.297,208.524624383
179.312,208.679297191
179.327,208.834324385
179.342,208.989702285
179.357,209.14542707
179.372,209.301494833
179.387,209.457901618
179.402,209.614643319
179.417,209.771715784
179.432,209.929114761
179.447,210.086835886
179.462,210.244874714
179.477,210.403226713
179.492,210.561887219
179.507,210.720851516
179.522,210.880114767
179.537,211.039672043
179.552,211.199518292
179.567,211.359648403
179.582,211.520057143
179.597,211.680739161
179.612,211.841689016
179.627,212.00290118
179.642,212.164370008
179.657,212.326089725
179.672,212.488054504
179.687,212.650258359
179.702,212.812695214
179.717,212.975358918
179.732,213.138243152
179.747,213.301341542
179.762,213.46464758
179.777,213.628154627
179.792,213.791855989
179.807,213.955744802
179.822,214.119814123
179.837,214.284056893
179.852,214.448465928
179.867,214.613033949
179.882,214.777753542
179.897,214.942617207
179.91,215.085609686
179.912,215.107617307
179.927,215.272746088
179.942,215.437995702
179.957,215.603358157
179.972,215.768825383
179.987,215.934389165
180.002,216.100041182
180.017,216.265773001
180.032,216.43157607
180.047,216.597441726
180.062,216.763361175
180.077,216.929325519
180.092,217.095325757
180.107,217.261352742
180.122,217.427397235
180.137,217.593449895
180.152,217.759501229
180.167,217.925541659
180.182,218.091561485
180.197,218.257550902
180.212,218.423499956
180.227,218.589398642
180.242,218.755236804
180.257,218.921004162
180.272,219.086690367
180.287,219.252284949
180.302,219.417777302
180.317,219.583156748
180.332,219.748412474
180.347,219.913533593
180.362,220.078509085
180.377,220.243327846
180.392,220.407978662
180.407,220.57245023
180.422,220.736731117
180.437,220.900809849
180.452,221.064674795
180.467,221.228314274
180.482,221.391716489
180.497,221.554869567
180.512,221.71776153
180.527,221.88038034
180.542,222.042713843
180.557,222.204749809
180.56,222.237120224
180.572,222.366475962
180.587,222.527879902
180.602,222.688949176
180.617,222.849671251
180.632,223.010033519
180.647,223.170023334
180.66,223.308370025
180.662,223.329627927
180.677,223.488834512
180.692,223.647630238
180.707,223.806002166
180.722,223.963937348
180.737,224.121422725
180.752,224.278445256
180.767,224.434991801
180.782,224.591049209
180.797,224.746604269
180.812,224.901643748
180.827,225.056154386
180.842,225.210122862
180.857,225.363535876
180.872,225.516380076
180.887,225.668642107
180.902,225.82030858
180.917,225.971366122
180.932,226.121801324
180.947,226.27160082
180.962,226.420751197
180.977,226.569239079
180.992,226.717051091
181.007,226.864173884
181.022,227.010594104
181.037,227.156298445
181.052,227.301273622
181.067,227.445506373
181.082,227.588983486
181.097,227.731691781
181.112,227.873618151
181.127,228.014749487
181.142,228.15507279
181.157,228.294575097
181.172,228.433243504
181.187,228.571065209
181.202,228.708027447
181.217,228.844117567
181.232,228.979322969
181.247,229.11363117
181.262,229.247029777
181.277,229.379506488
181.292,229.511049129
181.307,229.641645604
181.31,229.667650296
181.322,229.771283945
181.337,229.899952322
181.352,230.027639008
181.367,230.154332411
181.382,230.280021075
181.397,230.404693698
181.412,230.528339101
181.427,230.650946271
181.442,230.772504323
181.457,230.893002573
181.472,231.012430463
181.487,231.130777616
181.502,231.248033846
181.517,231.36418911
181.532,231.47923358
181.547,231.59315759
181.562,231.705951673
181.577,231.81760657
181.592,231.928113186
181.607,232.037462665
181.622,232.145646334
181.637,232.252655743
181.652,232.358482661
181.667,232.463119047
181.682,232.5665571
181.697,232.668789254
181.712,232.769808132
181.727,232.869606642
181.742,232.968177864
181.757,233.065515161
181.772,233.161612106
181.787,233.25646252
181.802,233.350060477
181.817,233.442400254
181.832,233.533476409
181.847,233.623283763
181.862,233.711817328
181.877,233.799072401
181.892,233.885044538
181.907,233.969729503
181.922,234.053123361
181.937,234.135222363
181.952,234.216023084
181.967,234.295522267
181.982,234.373716969
181.997,234.450604454
182.012,234.526182242
182.027,234.600448093
182.042,234.673400004
182.057,234.745036207
182.06,234.759205422
182.072,234.81535516
182.087,234.884355583
182.102,234.952036369
182.117,235.018396673
182.132,235.083435839
182.147,235.147153444
182.162,235.209549234
182.177,235.270623179
182.192,235.330375427
182.207,235.388806312
182.222,235.445916316
182.237,235.5017061
182.252,235.556176482
182.267,235.609328385
182.282,235.661162897
182.297,235.71168118
182.312,235.760884523
182.327,235.808774249
182.342,235.855351793
182.357,235.900618615
182.372,235.944576168
182.387,235.987225931
182.402,236.028569343
182.417,236.068607798
182.432,236.10734258
182.447,236.144774866
182.462,236.180905686
182.477,236.215735876
182.492,236.249266029
182.507,236.281496447
182.522,236.312427082
182.537,236.342057521
182.552,236.370386902
182.567,236.397413771
182.582,236.423136132
182.597,236.447551279
182.612,236.470655697
182.627,236.492445003
182.642,236.512913771
182.657,236.532055461
182.672,236.549862225
182.687,236.566324736
182.702,236.581432036
182.717,236.595171301
182.732,236.607527592
182.747,236.618483586
182.762,236.628019307
182.777,236.636111695
182.792,236.642734286
182.807,236.647856666
182.822,236.65144398
182.837,236.65345632
182.852,236.653847941
182.867,236.652566509
182.882,236.649552037
182.897,236.644735753
182.912,236.638038718
182.927,236.629370154
182.942,236.618625573
182.957,236.605684309
182.972,236.590406705
182.987,236.572630646
183.002,236.55216726
183.017,236.528795628
183.032,236.502256272
183.047,236.472242907
183.062,236.438392148
183.077,236.400270449
183.092,236.357357518
183.107,236.309025155
183.122,236.254510385
183.137,236.192881387
183.152,236.122995169
183.167,236.043446826
183.182,235.952513885
183.197,235.848109061
183.212,235.727780782
183.227,235.588869508
183.242,235.429106159
183.257,235.248390089
183.367,235.304002299
183.382,235.482255511
183.397,235.63932475
183.412,235.776118258
183.427,235.895088307
183.442,235.998861506
183.457,236.08979514
183.472,236.169876084
183.487,236.240737917
183.502,236.303712
183.517,236.359882225
183.532,236.410133504
183.547,236.455191726
183.562,236.495655824
183.577,236.532022928
183.592,236.564708199
183.607,236.594060448
183.622,236.620374296
183.637,236.643899961
183.652,236.664850933
183.667,236.683410195
183.682,236.69973521
183.697,236.71396186
183.712,236.726207953
183.727,236.736575731
183.742,236.745154239
183.757,236.752021163
183.772,236.757244399
183.787,236.76088334
183.802,236.762990005
183.817,236.763610027
183.832,236.762783381
183.847,236.760545158
183.862,236.756926067
183.877,236.751953081
183.892,236.745649747
183.907,236.738036682
183.922,236.729131842
183.937,236.718950891
183.952,236.707507393
183.967,236.694813081
183.982,236.680878067
183.997,236.665711005
184.012,236.649319278
184.027,236.631709109
184.042,236.612885715
184.057,236.592853415
184.072,236.571615719
184.087,236.54917545
184.102,236.525534811
184.117,236.50069544
184.132,236.474658527
184.147,236.447424804
184.162,236.418994694
184.177,236.389368281
184.192,236.358545388
184.207,236.326525617
184.222,236.293308397
184.237,236.258892991
184.252,236.223278558
184.267,236.186464179
184.282,236.148448842
184.297,236.10923152
184.312,236.068811189
184.327,236.02718678
184.342,235.984357319
184.357,235.940321794
184.372,235.895079333
184.387,235.848629087
184.402,235.800970305
184.417,235.752102331
184.432,235.702024644
184.447,235.650736827
184.462,235.598238578
184.477,235.544529783
184.492,235.489610414
184.507,235.433480666
184.522,235.376140842
184.537,235.317591451
184.552,235.257833165
184.56,235.225468059
184.567,235.196866843
184.582,235.134693514
184.597,235.071314414
184.612,235.006730956
184.627,234.940944782
184.642,234.873957691
184.657,234.805771726
184.672,234.736389125
184.687,234.665812305
184.702,234.594043929
184.717,234.521086867
184.732,234.446944169
184.747,234.371619133
184.762,234.295115271
184.777,234.217436267
184.792,234.138586077
184.807,234.058568832
184.822,233.977388893
184.837,233.895050809
184.852,233.811559384
184.867,233.726919597
184.882,233.641136654
184.897,233.554215957
184.912,233.466163134
184.927,233.376984017
184.942,233.286684595
184.957,233.195271138
184.972,233.102750054
184.987,233.00912798
185.002,232.914411715
185.017,232.818608279
185.032,232.721724867
185.047,232.623768885
185.062,232.524747869
185.077,232.424669603
185.092,232.323541996
185.107,232.221373153
185.122,232.118171342
185.137,232.013944998
185.152,231.908702735
185.167,231.802453306
185.182,231.695205637
185.197,231.586968788
185.212,231.477751985
185.227,231.367564594
185.242,231.256416116
185.257,231.144316189
185.272,231.031274608
185.287,230.917301261
185.302,230.802406172
185.31,230.740755404
185.317,230.686599498
185.332,230.56989151
185.347,230.452292586
185.362,230.333813191
185.377,230.214463956
185.392,230.094255534
185.407,229.973198725
185.422,229.85130441
185.437,229.728583552
185.452,229.605047209
185.467,229.480706483
185.482,229.355572604
185.497,229.229656823
185.512,229.102970488
185.527,228.975524989
185.542,228.847331791
185.557,228.718402416
185.572,228.588748406
185.587,228.458381385
185.602,228.327312991
185.617,228.19555491
185.632,228.063118871
185.647,227.930016629
185.662,227.796259946
185.677,227.661860639
185.692,227.526830506
185.707,227.391181402
185.722,227.254925152
185.737,227.118073614
185.752,226.980638637
185.767,226.842632094
185.782,226.704065824
185.797,226.564951676
185.812,226.425301503
185.827,226.285127095
185.842,226.144440295
185.857,226.003252862
185.872,225.861576589
185.887,225.7194232
185.902,225.576804401
185.917,225.433731898
185.932,225.290217312
185.947,225.146272265
185.96,225.02118064
185.962,225.001908322
185.977,224.857137016
185.992,224.711969835
186.007,224.566418189
186.022,224.42049349
186.037,224.274207053
186.052,224.127570176
186.06,224.049224407
186.067,223.98059405
186.082,223.833289871
186.097,223.685668714
186.112,223.537741618
186.127,223.389519572
186.142,223.241013468
186.157,223.092234135
186.172,222.943192363
186.187,222.793898827
186.202,222.644364132
186.217,222.49459885
186.232,222.344613414
186.247,222.194418236
186.262,222.044023611
186.277,221.893439751
186.292,221.742676809
186.307,221.591744832
186.322,221.440653795
186.337,221.289413589
186.352,221.138033991
186.367,220.986524715
186.382,220.83489538
186.397,220.683155505
186.412,220.531314518
186.427,220.379381785
186.442,220.22736653
186.457,220.075277921
186.472,219.923125017
186.487,219.770916764
186.502,219.618662047
186.517,219.466369634
186.532,219.314048211
186.547,219.16170633
186.562,219.009352486
186.577,218.856995074
186.592,218.704642359
186.607,218.552302529
186.622,218.399983673
186.637,218.247693788
186.652,218.095440738
186.667,217.943232338
186.682,217.791076267
186.697,217.63898011
186.71,217.507217703
186.712,217.48695137
186.727,217.334997426
186.742,217.18312558
186.757,217.031343028
186.772,216.879656851
186.787,216.728074054
186.802,216.576601526
186.817,216.425246088
186.832,216.274014418
186.847,216.122913115
186.862,215.971948702
186.877,215.821127575
186.892,215.670456047
186.907,215.519940332
186.922,215.369586552
186.937,215.219400716
186.952,215.069388765
186.967,214.91955653
186.982,214.769909739
186.997,214.620454039
187.012,214.47119498
187.027,214.322138026
187.042,214.173288529
187.057,214.024651775
187.072,213.876232948
187.087,213.728037114
187.102,213.580069315
187.117,213.432334416
187.132,213.284837284
187.147,213.137582624
187.162,212.990575115
187.177,212.843819288
187.192,212.697319632
187.207,212.551080536
187.222,212.405106307
187.237,212.259401158
187.252,212.113969241
187.267,211.968814596
187.282,211.823941212
187.297,211.679352965
187.312,211.535053683
187.327,211.391047108
187.342,211.247336871
187.357,211.103926552
187.372,210.96081967
187.387,210.81801962
187.402,210.675529765
187.417,210.533353383
187.432,210.391493668
187.447,210.249953734
187.46,210.127546815
187.462,210.108736632
187.477,209.967845356
187.492,209.827282818
187.507,209.687051843
187.522,209.547155198
187.537,209.40759559
187.552,209.26837567
187.567,209.129497968
187.582,208.990965005
187.597,208.852779219
187.612,208.714942971
187.627,208.577458576
187.642,208.440328258
187.657,208.303554211
187.672,208.167138544
187.687,208.031083326
187.702,207.895390549
187.717,207.760062143
187.732,207.625099994
187.747,207.490505938
187.762,207.356281713
187.777,207.222429047
187.792,207.088949587
187.807,206.955844933
187.822,206.823116625
187.837,206.690766156
187.852,206.558794971
187.867,206.427204446
187.882,206.295995923
187.897,206.165170689
187.912,206.034729988
187.927,205.904674987
187.942,205.775006824
187.957,205.645726627
187.972,205.516835403
187.987,205.388334158
188.002,205.260223855
188.017,205.132505407
188.032,205.005179658
188.047,204.878247449
188.062,204.751709537
188.077,204.625566688
188.092,204.499819576
188.107,204.374468862
188.122,204.249515159
188.137,204.124959035
188.152,204.00080105
188.167,203.877041681
188.182,203.753681395
188.197,203.630720606
188.21,203.52447805
188.212,203.508159722
188.227,203.385999074
188.242,203.264238993
188.257,203.142879748
188.272,203.021921608
188.287,202.901364761
188.302,202.78120941
188.317,202.661455705
188.332,202.542103751
188.347,202.423153632
188.362,202.304605423
188.377,202.186459139
188.392,202.068714776
188.407,201.951372312
188.422,201.834431668
188.437,201.717892782
188.452,201.601755522
188.467,201.486019749
188.482,201.370685283
188.497,201.255751948
188.512,201.141219509
188.527,201.02708774
188.542,200.913356341
188.557,200.80002505
188.572,200.68709353
188.587,200.574561449
188.602,200.462428439
188.617,200.350694125
188.632,200.239358093
188.647,200.128419919
188.66,200.032594971
188.662,200.017879145
188.677,199.907735323
188.692,199.797987942
188.707,199.688636498
188.722,199.579680474
