# 78954 TBPB Grantley Adams Observations at 12Z 04 Feb 2020
Frequency [GHz],TB
175.31,286.634864449
175.322,286.630001421
175.337,286.623819423
175.352,286.617522708
175.367,286.611111241
175.382,286.604584989
175.397,286.597943922
175.412,286.591188015
175.427,286.584317243
175.442,286.577331589
175.457,286.570231034
175.472,286.563015567
175.487,286.555685177
175.502,286.548239858
175.517,286.540679606
175.532,286.533004422
175.547,286.525214309
175.562,286.517309272
175.577,286.509289322
175.592,286.501154471
175.607,286.492904736
175.622,286.484540134
175.637,286.47606069
175.652,286.467466427
175.667,286.458757376
175.682,286.449933566
175.697,286.440995034
175.712,286.431941817
175.727,286.422773956
175.742,286.413491495
175.757,286.404094481
175.772,286.394582964
175.787,286.384956997
175.802,286.375216636
175.817,286.365361941
175.832,286.355392972
175.847,286.345309794
175.862,286.335112476
175.877,286.324801087
175.892,286.3143757
175.907,286.303836392
175.922,286.293183241
175.937,286.282416329
175.952,286.271535739
175.967,286.260541559
175.982,286.249433877
175.997,286.238212785
176.012,286.226878379
176.027,286.215430754
176.042,286.203870009
176.057,286.192196248
176.072,286.180409573
176.087,286.168510092
176.102,286.156497912
176.117,286.144373145
176.132,286.132135903
176.147,286.119786303
176.162,286.107324461
176.177,286.094750496
176.192,286.082064531
176.207,286.069266688
176.222,286.056357092
176.237,286.04333587
176.252,286.030203152
176.267,286.016959067
176.282,286.003603747
176.297,285.990137327
176.31,285.978376666
176.312,285.976559942
176.327,285.962871728
176.342,285.949072823
176.357,285.935163367
176.372,285.9211435
176.387,285.907013365
176.402,285.892773105
176.417,285.878422863
176.432,285.863962785
176.447,285.849393018
176.46,285.836677272
176.462,285.834713707
176.477,285.819925001
176.492,285.805027048
176.507,285.790019997
176.522,285.774903999
176.537,285.759679202
176.552,285.744345758
176.567,285.728903817
176.582,285.713353531
176.597,285.697695051
176.612,285.681928528
176.627,285.666054113
176.642,285.650071958
176.657,285.633982213
176.672,285.61778503
176.687,285.601480558
176.702,285.585068948
176.717,285.568550348
176.732,285.551924908
176.747,285.535192775
176.762,285.518354096
176.777,285.501409018
176.792,285.484357686
176.807,285.467200243
176.822,285.449936832
176.837,285.432567595
176.852,285.415092671
176.867,285.3975122
176.882,285.379826316
176.897,285.362035156
176.912,285.344138853
176.927,285.326137537
176.942,285.308031338
176.957,285.289820382
176.972,285.271504793
176.987,285.253084695
177.002,285.234560206
177.017,285.215931443
177.032,285.19719852
177.047,285.178361549
177.062,285.159420637
177.077,285.14037589
177.092,285.121227409
177.107,285.101975293
177.122,285.082619638
177.137,285.063160533
177.152,285.043598067
177.167,285.023932323
177.182,285.004163381
177.197,284.984291318
177.21,284.966985503
177.212,284.964316203
177.227,284.944238105
177.242,284.924057085
177.257,284.903773202
177.272,284.883386508
177.287,284.862897053
177.302,284.842304878
177.31,284.831280398
177.317,284.821610022
177.332,284.800812519
177.347,284.779912394
177.362,284.75890967
177.377,284.737804364
177.392,284.716596484
177.407,284.695286035
177.422,284.673873016
177.437,284.652357418
177.452,284.630739226
177.467,284.60901842
177.482,284.587194971
177.497,284.565268846
177.512,284.543240001
177.527,284.521108389
177.542,284.498873954
177.557,284.476536632
177.572,284.454096352
177.587,284.431553036
177.602,284.408906596
177.617,284.386156939
177.632,284.363303962
177.647,284.340347553
177.66,284.320368243
177.662,284.317287594
177.677,284.294123956
177.692,284.270856502
177.707,284.247485088
177.722,284.224009557
177.737,284.200429746
177.752,284.176745481
177.767,284.152956581
177.782,284.129062851
177.797,284.10506409
177.812,284.080960085
177.827,284.056750613
177.842,284.032435442
177.857,284.008014329
177.872,283.983487018
177.887,283.958853246
177.902,283.934112736
177.917,283.909265201
177.932,283.884310343
177.947,283.859247853
177.96,283.837439717
177.962,283.834077409
177.977,283.808798677
177.992,283.783411313
178.007,283.75791496
178.022,283.732309247
178.037,283.706593793
178.052,283.680768203
178.067,283.654832069
178.082,283.628784971
178.097,283.602626476
178.112,283.576356136
178.127,283.54997349
178.142,283.523478065
178.157,283.496869372
178.172,283.470146909
178.187,283.443310159
178.202,283.416358593
178.217,283.389291663
178.232,283.36210881
178.247,283.334809459
178.262,283.307393019
178.277,283.279858884
178.292,283.252206433
178.307,283.224435029
178.322,283.196544019
178.337,283.168532734
178.352,283.140400487
178.367,283.112146578
178.382,283.083770286
178.397,283.055270877
178.41,283.03047122
178.412,283.026647598
178.427,282.997899677
178.442,282.969026329
178.457,282.940026746
178.472,282.910900105
178.487,282.881645564
178.502,282.852262264
178.517,282.822749325
178.532,282.79310585
178.547,282.763330921
178.562,282.733423603
178.577,282.70338294
178.592,282.673207957
178.607,282.642897657
178.622,282.612451026
178.637,282.581867027
178.652,282.551144603
178.667,282.520282675
178.682,282.489280146
178.697,282.458135894
178.712,282.426848777
178.727,282.39541763
178.742,282.363841267
178.757,282.332118478
178.772,282.300248032
178.787,282.268228673
178.802,282.236059123
178.817,282.20373808
178.832,282.171264217
178.847,282.138636186
178.862,282.10585261
178.877,282.072912092
178.892,282.039813205
178.907,282.006554501
178.922,281.973134503
178.937,281.93955171
178.952,281.905804595
178.967,281.871891602
178.982,281.83781115
178.997,281.80356163
179.012,281.769141406
179.027,281.734548813
179.042,281.699782159
179.057,281.664839723
179.072,281.629719753
179.087,281.594420471
179.102,281.558940066
179.117,281.523276699
179.132,281.487428501
179.147,281.451393569
179.16,281.420010757
179.162,281.415169973
179.177,281.378755748
179.192,281.342148899
179.207,281.305347397
179.222,281.268349182
179.237,281.231152158
179.252,281.193754199
179.267,281.156153143
179.282,281.118346793
179.297,281.080332917
179.312,281.042109249
179.327,281.003673487
179.342,280.965023291
179.357,280.926156286
179.372,280.88707006
179.387,280.847762161
179.402,280.808230102
179.417,280.768471356
179.432,280.728483356
179.447,280.688263496
179.462,280.647809131
179.477,280.607117574
179.492,280.566186097
179.507,280.525011932
179.522,280.483592267
179.537,280.441924248
179.552,280.400004977
179.567,280.357831514
179.582,280.315400873
179.597,280.272710024
179.612,280.229755892
179.627,280.186535354
179.642,280.143045243
179.657,280.099282343
179.672,280.055243391
179.687,280.010925075
179.702,279.966324036
179.717,279.921436862
179.732,279.876260094
179.747,279.830790222
179.762,279.785023682
179.777,279.73895686
179.792,279.692586089
179.807,279.64590765
179.822,279.598917766
179.837,279.55161261
179.852,279.503988298
179.867,279.456040888
179.882,279.407766385
179.897,279.359160734
179.91,279.316764797
179.912,279.310219823
179.927,279.26093948
179.942,279.211315477
179.957,279.161343523
179.972,279.111019266
179.987,279.060338294
180.002,279.009296132
180.017,278.957888243
180.032,278.906110026
180.047,278.853956814
180.062,278.801423877
180.077,278.748506418
180.092,278.695199574
180.107,278.641498414
180.122,278.58739794
180.137,278.532893083
180.152,278.477978707
180.167,278.422649604
180.182,278.366900495
180.197,278.310726029
180.212,278.254120782
180.227,278.197079259
180.242,278.139595887
180.257,278.081665021
180.272,278.023280937
180.287,277.964437838
180.302,277.905129847
180.317,277.845351009
180.332,277.78509529
180.347,277.724356578
180.362,277.663128679
180.377,277.601405315
180.392,277.539180131
180.407,277.476446683
180.422,277.413198449
180.437,277.349428817
180.452,277.285131094
180.467,277.220298496
180.482,277.154924155
180.497,277.089001114
180.512,277.022522328
180.527,276.95548066
180.542,276.887868885
180.557,276.819679685
180.56,276.805971904
180.572,276.75090565
180.587,276.681539278
180.602,276.611572971
180.617,276.540999038
180.632,276.469809691
180.647,276.397997048
180.66,276.335249078
180.662,276.325553126
180.677,276.252469846
180.692,276.17873903
180.707,276.104352399
180.722,276.029301574
180.737,275.953578073
180.752,275.877173313
180.767,275.800078607
180.782,275.722285163
180.797,275.643784083
180.812,275.564566363
180.827,275.484622894
180.842,275.403944456
180.857,275.322521721
180.872,275.24034525
180.887,275.157405494
180.902,275.073692792
180.917,274.989197369
180.932,274.903909337
180.947,274.81781869
180.962,274.730915308
180.977,274.643188955
180.992,274.554629273
181.007,274.465225786
181.022,274.374967898
181.037,274.283844889
181.052,274.191845918
181.067,274.098960017
181.082,274.005176094
181.097,273.910482929
181.112,273.814869173
181.127,273.718323347
181.142,273.620833842
181.157,273.522388913
181.172,273.422976682
181.187,273.322585135
181.202,273.221202119
181.217,273.118815341
181.232,273.015412367
181.247,272.910980618
181.262,272.80550737
181.277,272.69897975
181.292,272.591384737
181.307,272.482709156
181.31,272.460843201
181.322,272.372939675
181.337,272.262062809
181.352,272.15006491
181.367,272.036932166
181.382,271.922650602
181.397,271.807206072
181.412,271.690584258
181.427,271.572770665
181.442,271.453750623
181.457,271.333509274
181.472,271.212031576
181.487,271.089302294
181.502,270.965306
181.517,270.840027063
181.532,270.713449648
181.547,270.585557711
181.562,270.45633499
181.577,270.325765004
181.592,270.193831043
181.607,270.060516165
181.622,269.925803187
181.637,269.789674678
181.652,269.652112952
181.667,269.513100063
181.682,269.372617791
181.697,269.230647638
181.712,269.087170817
181.727,268.942168243
181.742,268.79562052
181.757,268.647507936
181.772,268.497810443
181.787,268.346507654
181.802,268.193578824
181.817,268.039002837
181.832,267.882758196
181.847,267.724823001
181.862,267.565174939
181.877,267.403791264
181.892,267.240648778
181.907,267.075723814
181.922,266.908992215
181.937,266.740429311
181.952,266.570009898
181.967,266.397708211
181.982,266.223497901
181.997,266.047352003
182.012,265.869242912
182.027,265.689142346
182.042,265.507021315
182.057,265.322850084
182.06,265.285767142
182.072,265.136598134
182.087,264.948234122
182.102,264.757725835
182.117,264.56504014
182.132,264.370142937
182.147,264.172999098
182.162,263.973572411
182.177,263.771825514
182.192,263.567719819
182.207,263.361215443
182.222,263.152271119
182.237,262.940844107
182.252,262.726890093
182.267,262.510363083
182.282,262.291215277
182.297,262.069396946
182.312,261.844856281
182.327,261.617539237
182.342,261.387389353
182.357,261.154347561
182.372,260.918351966
182.387,260.679337605
182.402,260.437236179
182.417,260.191975752
182.432,259.943480415
182.447,259.691669909
182.462,259.436459205
182.477,259.177758022
182.492,258.915470297
182.507,258.649493575
182.522,258.379718327
182.537,258.106027173
182.552,257.828294002
182.567,257.546382972
182.582,257.260147371
182.597,256.969428321
182.612,256.674053296
182.627,256.37383443
182.642,256.068566582
182.657,255.758025111
182.672,255.441963331
182.687,255.120109586
182.702,254.79216388
182.717,254.457793995
182.732,254.116631029
182.747,253.768264226
182.762,253.412235018
182.777,253.048030131
182.792,252.675073608
182.807,252.292717572
182.822,251.900231526
182.837,251.496789964
182.852,251.081458006
182.867,250.653174781
182.882,250.21073419
182.897,249.752762709
182.912,249.277693801
182.927,248.783738561
182.942,248.268852192
182.957,247.730696006
182.972,247.166594795
182.987,246.57348973
183.002,245.947887445
183.017,245.285806823
183.032,244.582726437
183.047,243.833537736
183.062,243.032512579
183.077,242.173298948
183.092,241.248966748
183.107,240.252137514
183.122,239.175249438
183.137,238.011034046
183.152,236.753314938
183.167,235.398282204
183.182,233.946443184
183.197,232.405482498
183.212,230.794232502
183.227,229.147748963
183.242,227.522894726
183.257,226.002561435
183.367,226.351499787
183.382,227.899437185
183.397,229.527931161
183.412,231.16121803
183.427,232.748678022
183.442,234.260013833
183.457,235.679713024
183.472,237.002253042
183.487,238.228441767
183.502,239.362821419
183.517,240.411917526
183.532,241.383106298
183.547,242.283912378
183.562,243.121595792
183.577,243.902927685
183.592,244.634085931
183.607,245.320624492
183.622,245.967486263
183.637,246.579039943
183.652,247.15912866
183.667,247.711122817
183.682,248.237972697
183.697,248.742258309
183.712,249.226235236
183.727,249.691875931
183.742,250.140906451
183.757,250.574838784
183.772,250.994999136
183.787,251.402552548
183.802,251.798524256
183.817,252.183818178
183.832,252.559232899
183.847,252.92547547
183.862,253.283173327
183.877,253.632884573
183.892,253.975106865
183.907,254.31028508
183.922,254.638817956
183.937,254.961063821
183.952,255.277345568
183.967,255.587954959
183.982,255.893156358
183.997,256.193189981
184.012,256.488274714
184.027,256.778610571
184.042,257.064380835
184.057,257.345753929
184.072,257.622885045
184.087,257.895917582
184.102,258.16498439
184.117,258.430208875
184.132,258.691705965
184.147,258.949582962
184.162,259.203940286
184.177,259.454872147
184.192,259.702467124
184.207,259.946808685
184.222,260.187975651
184.237,260.426042603
184.252,260.661080247
184.267,260.893155742
184.282,261.122332986
184.297,261.348672883
184.312,261.572233573
184.327,261.793070643
184.342,262.011237317
184.357,262.226784628
184.372,262.439761573
184.387,262.650215251
184.402,262.858190994
184.417,263.063732479
184.432,263.266881839
184.447,263.467679755
184.462,263.66616555
184.477,263.862377264
184.492,264.056351733
184.507,264.248124659
184.522,264.437730668
184.537,264.625203376
184.552,264.810575436
184.56,264.9085926
184.567,264.993878595
184.582,265.175143737
184.597,265.354400927
184.612,265.531679454
184.627,265.707007865
184.642,265.880414004
184.657,266.051925042
184.672,266.221567511
184.687,266.389367332
184.702,266.555349841
184.717,266.719539815
184.732,266.881961498
184.747,267.042638621
184.762,267.201594425
184.777,267.358851682
184.792,267.514432709
184.807,267.668359394
184.822,267.820653205
184.837,267.971335212
184.852,268.120426097
184.867,268.267946172
184.882,268.413915391
184.897,268.558353363
184.912,268.701279365
184.927,268.842712351
184.942,268.982670965
184.957,269.121173551
184.972,269.258238162
184.987,269.393882571
185.002,269.528124276
185.017,269.660980513
185.032,269.792468262
185.047,269.922604252
185.062,270.051404972
185.077,270.178886678
185.092,270.305065393
185.107,270.429956921
185.122,270.55357685
185.137,270.675940556
185.152,270.797063208
185.167,270.916959777
185.182,271.035645037
185.197,271.15313357
185.212,271.269439771
185.227,271.384577855
185.242,271.498561853
185.257,271.611405626
185.272,271.723122859
185.287,271.833727071
185.302,271.943231617
185.31,272.001188961
185.317,272.051649687
185.332,272.158994314
185.347,272.265278375
185.362,272.370514593
185.377,272.474715541
185.392,272.577893641
185.407,272.680061173
185.422,272.78123027
185.437,272.881412925
185.452,272.980620991
185.467,273.078866184
185.482,273.176160085
185.497,273.27251414
185.512,273.367939664
185.527,273.462447841
185.542,273.556049728
185.557,273.648756255
185.572,273.740578225
185.587,273.83152632
185.602,273.921611096
185.617,274.010842992
185.632,274.099232324
185.647,274.186789293
185.662,274.273523981
185.677,274.359446354
185.692,274.444566265
185.707,274.528893454
185.722,274.612437547
185.737,274.69520806
185.752,274.777214401
185.767,274.858465867
185.782,274.938971647
185.797,275.018740826
185.812,275.097782382
185.827,275.176105187
185.842,275.253718012
185.857,275.330629525
185.872,275.40684829
185.887,275.482382773
185.902,275.55724134
185.917,275.631432257
185.932,275.704963694
185.947,275.777843721
185.96,275.840485662
185.962,275.850080316
185.977,275.92168136
185.992,275.992654638
186.007,276.063007844
186.022,276.132748579
186.037,276.201884352
186.052,276.270422582
186.06,276.30673451
186.067,276.338370597
186.082,276.405735637
186.097,276.472524853
186.112,276.538745308
186.127,276.604403981
186.142,276.669507762
186.157,276.734063458
186.172,276.798077791
186.187,276.861557402
186.202,276.924508846
186.217,276.986938598
186.232,277.048853054
186.247,277.110258526
186.262,277.17116125
186.277,277.231567382
186.292,277.291483001
186.307,277.350914108
186.322,277.409866628
186.337,277.468346412
186.352,277.526359235
186.367,277.583910798
186.382,277.641006731
186.397,277.697652589
186.412,277.753853858
186.427,277.80961595
186.442,277.86494421
186.457,277.919843911
186.472,277.974320261
186.487,278.028378397
186.502,278.082023389
186.517,278.135260243
186.532,278.188093897
186.547,278.240529224
186.562,278.292571036
186.577,278.344224078
186.592,278.395493033
186.607,278.446382523
186.622,278.496897108
186.637,278.547041287
186.652,278.596819499
186.667,278.646236124
186.682,278.695295484
186.697,278.744001842
186.71,278.785931732
186.712,278.792359404
186.727,278.840372319
186.742,278.888044682
186.757,278.93538053
186.772,278.982383847
186.787,279.029058562
186.802,279.075408552
186.817,279.121437641
186.832,279.1671496
186.847,279.212548149
186.862,279.257636956
186.877,279.302419642
186.892,279.346899776
186.907,279.391080878
186.922,279.43496642
186.937,279.478559826
186.952,279.521864473
186.967,279.564883692
186.982,279.607620768
186.997,279.650078938
187.012,279.692261398
187.027,279.734171296
187.042,279.775811739
187.057,279.81718579
187.072,279.858296467
187.087,279.89914675
187.102,279.939739574
187.117,279.980077835
187.132,280.020164387
187.147,280.060002044
187.162,280.099593583
187.177,280.138941738
187.192,280.178049208
187.207,280.216918651
187.222,280.25555269
187.237,280.29395391
187.252,280.332124859
187.267,280.370068049
187.282,280.407785957
187.297,280.445281024
187.312,280.482555658
187.327,280.51961223
187.342,280.55645308
187.357,280.593080513
187.372,280.629496801
187.387,280.665704183
187.402,280.701704869
187.417,280.737501034
187.432,280.773094824
187.447,280.808488351
187.46,280.839002364
187.462,280.843683701
187.477,280.878682926
187.492,280.913488051
187.507,280.948101071
187.522,280.982523952
187.537,281.01675863
187.552,281.050807017
187.567,281.084670992
187.582,281.118352411
187.597,281.151853101
187.612,281.185174862
187.627,281.21831947
187.642,281.251288672
187.657,281.284084191
187.672,281.316707725
187.687,281.349160947
187.702,281.381445504
187.717,281.413563021
187.732,281.445515096
187.747,281.477303307
187.762,281.508929206
187.777,281.540394322
187.792,281.571700164
187.807,281.602848215
187.822,281.633839938
187.837,281.664676774
187.852,281.695360142
187.867,281.72589144
187.882,281.756272044
187.897,281.786503311
187.912,281.816586577
187.927,281.846523157
187.942,281.876314346
187.957,281.905961422
187.972,281.93546564
187.987,281.964828238
188.002,281.994050434
188.017,282.02313343
188.032,282.052078405
188.047,282.080886525
188.062,282.109558933
188.077,282.138096759
188.092,282.166501113
188.107,282.194773088
188.122,282.22291376
188.137,282.250924188
188.152,282.278805416
188.167,282.306558471
188.182,282.334184363
188.197,282.361684086
188.21,282.38541588
188.212,282.389058619
188.227,282.416308927
188.242,282.443435957
188.257,282.470440642
188.272,282.4973239
188.287,282.524086635
188.302,282.550729737
188.317,282.577254079
188.332,282.603660522
188.347,282.629949914
188.362,282.656123086
188.377,282.68218086
188.392,282.708124039
188.407,282.733953418
188.422,282.759669776
188.437,282.78527388
188.452,282.810766485
188.467,282.836148331
188.482,282.861420149
188.497,282.886582655
188.512,282.911636556
188.527,282.936582543
188.542,282.9614213
188.557,282.986153495
188.572,283.010779788
188.587,283.035300825
188.602,283.059717245
188.617,283.084029671
188.632,283.108238719
188.647,283.132344993
188.66,283.153154423
188.662,283.156349086
188.677,283.180251582
188.692,283.204053053
188.707,283.227754063
188.722,283.251355165
