# 01004 ENAS Ny-Alesund Ii Observations at 12Z 05 Jul 2019
Frequency [GHz],TB
175.31,268.077230651
175.322,268.059801533
175.337,268.037912071
175.352,268.015908053
175.367,267.993789461
175.382,267.971556253
175.397,267.949208405
175.412,267.926745884
175.427,267.904168667
175.442,267.881476727
175.457,267.858670033
175.472,267.83574857
175.487,267.812712307
175.502,267.789561226
175.517,267.766295305
175.532,267.742914523
175.547,267.719418855
175.562,267.695808295
175.577,267.672082812
175.592,267.6482424
175.607,267.624287032
175.622,267.6002167
175.637,267.576031383
175.652,267.551731074
175.667,267.527315754
175.682,267.502785412
175.697,267.478140035
175.712,267.453379614
175.727,267.428504134
175.742,267.403513585
175.757,267.378407961
175.772,267.353187243
175.787,267.327851431
175.802,267.302400512
175.817,267.276834479
175.832,267.251153318
175.847,267.22535703
175.862,267.199445598
175.877,267.173419022
175.892,267.147277294
175.907,267.121020399
175.922,267.094648342
175.937,267.068161102
175.952,267.04155868
175.967,267.014841068
175.982,266.988008261
175.997,266.961060253
176.012,266.933997025
176.027,266.906818582
176.042,266.879524914
176.057,266.852116009
176.072,266.824591863
176.087,266.796952466
176.102,266.769197808
176.117,266.74132788
176.132,266.713342678
176.147,266.685242187
176.162,266.657026394
176.177,266.628695293
176.192,266.600248867
176.207,266.571687113
176.222,266.543010006
176.237,266.514217545
176.252,266.485309705
176.267,266.456286477
176.282,266.427147843
176.297,266.397893787
176.31,266.37244689
176.312,266.368524288
176.327,266.339039332
176.342,266.309438896
176.357,266.279722958
176.372,266.249891505
176.387,266.219944503
176.402,266.189881933
176.417,266.159703773
176.432,266.129409989
176.447,266.099000555
176.46,266.072552142
176.462,266.068475447
176.477,266.037834628
176.492,266.007078073
176.507,265.976205738
176.522,265.945217602
176.537,265.914113617
176.552,265.882893751
176.567,265.851557957
176.582,265.820106201
176.597,265.788538438
176.612,265.756854627
176.627,265.725054705
176.642,265.693138643
176.657,265.661106379
176.672,265.628957867
176.687,265.596693045
176.702,265.564311862
176.717,265.531814258
176.732,265.499200175
176.747,265.466469545
176.762,265.433622305
176.777,265.400658387
176.792,265.367577726
176.807,265.334380242
176.822,265.301065867
176.837,265.267634523
176.852,265.234086129
176.867,265.200420604
176.882,265.166637864
176.897,265.132737824
176.912,265.098720389
176.927,265.064585475
176.942,265.030332982
176.957,264.995962813
176.972,264.961474868
176.987,264.92686904
177.002,264.892145232
177.017,264.85730333
177.032,264.82234322
177.047,264.787264787
177.062,264.752067915
177.077,264.716752483
177.092,264.681318368
177.107,264.645765443
177.122,264.610093575
177.137,264.574302632
177.152,264.538392478
177.167,264.502362967
177.182,264.466213963
177.197,264.429945314
177.21,264.398415593
177.212,264.393556873
177.227,264.357048486
177.242,264.320419992
177.257,264.283671235
177.272,264.246802045
177.287,264.209812264
177.302,264.17270171
177.31,264.152859971
177.317,264.13547021
177.332,264.098117591
177.347,264.060643662
177.362,264.02304824
177.377,263.985331142
177.392,263.947492159
177.407,263.909531108
177.422,263.871447778
177.437,263.833241967
177.452,263.794913462
177.467,263.756462052
177.482,263.717887519
177.497,263.679189638
177.512,263.640368186
177.527,263.601422936
177.542,263.562353648
177.557,263.523160082
177.572,263.483842002
177.587,263.444399152
177.602,263.40483129
177.617,263.365138153
177.632,263.325319489
177.647,263.285375021
177.66,263.250654523
177.662,263.245304492
177.677,263.205107623
177.692,263.164784135
177.707,263.124333751
177.722,263.083756176
177.737,263.043051119
177.752,263.002218293
177.767,262.961257387
177.782,262.920168101
177.797,262.878950117
177.812,262.837603128
177.827,262.79612681
177.842,262.754520838
177.857,262.712784883
177.872,262.67091861
177.887,262.628921678
177.902,262.586793741
177.917,262.544534456
177.932,262.502143459
177.947,262.459620395
177.96,262.422659965
177.962,262.4169649
177.977,262.374176602
177.992,262.331255123
178.007,262.288200084
178.022,262.245011101
178.037,262.201687776
178.052,262.158229723
178.067,262.114636533
178.082,262.070907795
178.097,262.027043102
178.112,261.983042032
178.127,261.938904162
178.142,261.894629063
178.157,261.8502163
178.172,261.805665427
178.187,261.760975999
178.202,261.716147568
178.217,261.671179667
178.232,261.626071843
178.247,261.580823611
178.262,261.535434503
178.277,261.489904041
178.292,261.444231725
178.307,261.398417069
178.322,261.352459567
178.337,261.306358715
178.352,261.260114001
178.367,261.2137249
178.382,261.167190887
178.397,261.120511435
178.41,261.079937844
178.412,261.073685995
178.427,261.026714032
178.442,260.979594987
178.457,260.932328305
178.472,260.884913416
178.487,260.837349746
178.502,260.789636721
178.517,260.741773749
178.532,260.693760244
178.547,260.645595603
178.562,260.597279215
178.577,260.548810466
178.592,260.500188736
178.607,260.451413393
178.622,260.402483804
178.637,260.353399324
178.652,260.304159303
178.667,260.254763072
178.682,260.205209979
178.697,260.155499337
178.712,260.105630467
178.727,260.055602681
178.742,260.00541528
178.757,259.955067556
178.772,259.904558797
178.787,259.853888282
178.802,259.803055273
178.817,259.752059034
178.832,259.700898818
178.847,259.649573868
178.862,259.598083421
178.877,259.546426702
178.892,259.494602928
178.907,259.442611307
178.922,259.390451045
178.937,259.338121327
178.952,259.285621339
178.967,259.232950247
178.982,259.180107222
178.997,259.127091412
179.012,259.07390197
179.027,259.020538018
179.042,258.966998699
179.057,258.91328311
179.072,258.859390375
179.087,258.805319576
179.102,258.751069807
179.117,258.696640145
179.132,258.642029652
179.147,258.587237387
179.16,258.539602987
179.162,258.532262395
179.177,258.477103707
179.192,258.421760358
179.207,258.366231353
179.222,258.310515707
179.237,258.254612396
179.252,258.198520421
179.267,258.142238742
179.282,258.08576632
179.297,258.029102114
179.312,257.972245047
179.327,257.915194063
179.342,257.857948064
179.357,257.800505963
179.372,257.742866654
179.387,257.685029012
179.402,257.626991917
179.417,257.56875422
179.432,257.510314771
179.447,257.451672406
179.462,257.392825949
179.477,257.333774208
179.492,257.274515986
179.507,257.215050069
179.522,257.155375236
179.537,257.095490245
179.552,257.035393855
179.567,256.975084798
179.582,256.914561805
179.597,256.853823589
179.612,256.792868855
179.627,256.731696288
179.642,256.670304572
179.657,256.608692366
179.672,256.546858323
179.687,256.484801088
179.702,256.422519282
179.717,256.360011527
179.732,256.297276419
179.747,256.234312549
179.762,256.171118491
179.777,256.107692818
179.792,256.044034081
179.807,255.980140806
179.822,255.916011528
179.837,255.851644765
179.852,255.787039008
179.867,255.722192751
179.882,255.657104469
179.897,255.591772626
179.91,255.534953482
179.912,255.526195668
179.927,255.460372037
179.942,255.394300154
179.957,255.327978439
179.972,255.261405281
179.987,255.194579078
180.002,255.127498196
180.017,255.060161004
180.032,254.992565853
180.047,254.924711076
180.062,254.856595
180.077,254.788215943
180.092,254.719572204
180.107,254.650662069
180.122,254.581483822
180.137,254.512035724
180.152,254.442316036
180.167,254.372322987
180.182,254.302054824
180.197,254.231509753
180.212,254.160685984
180.227,254.089581723
180.242,254.018195143
180.257,253.946524426
180.272,253.874567729
180.287,253.802323214
180.302,253.72978901
180.317,253.656963254
180.332,253.583844067
180.347,253.510429561
180.362,253.436717831
180.377,253.362706973
180.392,253.288395062
180.407,253.213780167
180.422,253.138860351
180.437,253.063633665
180.452,252.988098155
180.467,252.912251838
180.482,252.836092762
180.497,252.75961892
180.512,252.682828334
180.527,252.605718991
180.542,252.528288885
180.557,252.450536
180.56,252.434946505
180.572,252.372458302
180.587,252.294053767
180.602,252.215320349
180.617,252.136256005
180.632,252.056858667
180.647,251.977126286
180.66,251.907752271
180.662,251.89705679
180.677,251.816648096
180.692,251.735898131
180.707,251.654804808
180.722,251.573366029
180.737,251.491579701
180.752,251.409443725
180.767,251.326955985
180.782,251.244114371
180.797,251.160916768
180.812,251.077361057
180.827,250.993445108
180.842,250.909166801
180.857,250.824524003
180.872,250.739514582
180.887,250.654136403
180.902,250.568387328
180.917,250.482265216
180.932,250.39576793
180.947,250.308893331
180.962,250.221639276
180.977,250.134003627
180.992,250.045984244
181.007,249.957578983
181.022,249.868785713
181.037,249.779602294
181.052,249.690026601
181.067,249.600056501
181.082,249.50968987
181.097,249.418924585
181.112,249.327758538
181.127,249.236189615
181.142,249.144215716
181.157,249.051834743
181.172,248.959044619
181.187,248.865843261
181.202,248.772228607
181.217,248.678198599
181.232,248.5837512
181.247,248.488884374
181.262,248.393596119
181.277,248.297884427
181.292,248.201747328
181.307,248.105182852
181.31,248.085818504
181.322,248.008189066
181.337,247.910764054
181.352,247.812905912
181.367,247.714612775
181.382,247.615882805
181.397,247.516714186
181.412,247.417105134
181.427,247.31705391
181.442,247.2165588
181.457,247.115618131
181.472,247.014230271
181.487,246.91239364
181.502,246.810106692
181.517,246.707367947
181.532,246.60417596
181.547,246.500529362
181.562,246.396426833
181.577,246.291867122
181.592,246.18684905
181.607,246.081371505
181.622,245.975433464
181.637,245.869033975
181.652,245.762172186
181.667,245.654847332
181.682,245.547058754
181.697,245.438805897
181.712,245.33008831
181.727,245.220905682
181.742,245.111257818
181.757,245.001144655
181.772,244.890566277
181.787,244.779522927
181.802,244.668014996
181.817,244.556043056
181.832,244.443607865
181.847,244.330710367
181.862,244.2173517
181.877,244.103533238
181.892,243.989256574
181.907,243.874523539
181.922,243.759336229
181.937,243.64369701
181.952,243.527608535
181.967,243.411073758
181.982,243.29409596
181.997,243.176678773
182.012,243.05882617
182.027,242.940542525
182.042,242.821832599
182.057,242.702701605
182.06,242.678825368
182.072,242.583155187
182.087,242.463199476
182.102,242.342841113
182.117,242.222087273
182.132,242.100945697
182.147,241.979424721
182.162,241.857533322
182.177,241.73528114
182.192,241.612678527
182.207,241.489736573
182.222,241.366467165
182.237,241.242883026
182.252,241.118997759
182.267,240.994825884
182.282,240.87038292
182.297,240.745685407
182.312,240.620750986
182.327,240.495598451
182.342,240.370247802
182.357,240.244720332
182.372,240.119038672
182.387,239.993226888
182.402,239.867310533
182.417,239.741316739
182.432,239.615274307
182.447,239.489213764
182.462,239.363167493
182.477,239.237169791
182.492,239.111256981
182.507,238.985467511
182.522,238.859842076
182.537,238.734423679
182.552,238.609257812
182.567,238.484392512
182.582,238.359878511
182.597,238.235769363
182.612,238.112121565
182.627,237.988994698
182.642,237.86645156
182.657,237.744558329
182.672,237.623384689
182.687,237.503004028
182.702,237.38349356
182.717,237.264934554
182.732,237.147412487
182.747,237.031017277
182.762,236.91584351
182.777,236.80199069
182.792,236.689563524
182.807,236.578672272
182.822,236.469433112
182.837,236.361968618
182.852,236.256408318
182.867,236.152889375
182.882,236.051557422
182.897,235.952567649
182.912,235.856086174
182.927,235.762291796
182.942,235.671378276
182.957,235.583557393
182.972,235.49906293
182.987,235.418156104
183.002,235.341132886
183.017,235.268334108
183.032,235.200159467
183.047,235.137087331
183.062,235.079703121
183.077,235.02874061
183.092,234.985143324
183.107,234.950157727
183.122,234.92547818
183.137,234.913478762
183.152,234.9175959
183.167,234.942982994
183.182,234.99767744
183.197,235.094780956
183.212,235.256755202
183.227,235.524393545
183.242,235.976686103
183.257,236.776457198
183.367,236.520376855
183.382,235.8280869
183.397,235.430070736
183.412,235.191381832
183.427,235.045578844
183.442,234.95776735
183.457,234.908434513
183.472,234.886043081
183.487,234.883430885
183.502,234.895957321
183.517,234.920498665
183.532,234.954878272
183.547,234.997530273
183.562,235.047294123
183.577,235.103285119
183.592,235.164810649
183.607,235.231314687
183.622,235.302340225
183.637,235.377503384
183.652,235.456475261
183.667,235.538969023
183.682,235.624730574
183.697,235.713531773
183.712,235.805165425
183.727,235.899441506
183.742,235.996184368
183.757,236.095230563
183.772,236.196427216
183.787,236.299630721
183.802,236.404705728
183.817,236.511524349
183.832,236.619965499
183.847,236.729914379
183.862,236.841262005
183.877,236.95390486
183.892,237.067744568
183.907,237.182687602
183.922,237.298645057
183.937,237.415532394
183.952,237.533269269
183.967,237.651779316
183.982,237.770989988
183.997,237.890832381
184.012,238.011241073
184.027,238.132153978
184.042,238.253512211
184.057,238.375259933
184.072,238.497344215
184.087,238.619714922
184.102,238.742324589
184.117,238.865128284
184.132,238.98808351
184.147,239.111150087
184.162,239.234290041
184.177,239.357467495
184.192,239.480648591
184.207,239.603801374
184.222,239.726895694
184.237,239.849903145
184.252,239.972796951
184.267,240.09555191
184.282,240.218144286
184.297,240.340551754
184.312,240.462753338
184.327,240.584729321
184.342,240.706461183
184.357,240.827931556
184.372,240.949124145
184.387,241.070023684
184.402,241.190615876
184.417,241.310887349
184.432,241.430825591
184.447,241.550418931
184.462,241.669656467
184.477,241.788528039
184.492,241.90702419
184.507,242.025136129
184.522,242.142855677
184.537,242.260175264
184.552,242.377087874
184.56,242.439272597
184.567,242.493587019
184.582,242.609666717
184.597,242.72532146
184.612,242.840546181
184.627,242.955336251
184.642,243.06968743
184.657,243.183595857
184.672,243.297058033
184.687,243.4100708
184.702,243.522631314
184.717,243.634737034
184.732,243.746385702
184.747,243.857575337
184.762,243.968304201
184.777,244.078570803
184.792,244.188373881
184.807,244.29771238
184.822,244.406585449
184.837,244.51499243
184.852,244.622932845
184.867,244.730406382
184.882,244.837412886
184.897,244.943952358
184.912,245.050024946
184.927,245.155630917
184.942,245.26077067
184.957,245.36544473
184.972,245.469653725
184.987,245.573398394
185.002,245.676679564
185.017,245.779498173
185.032,245.88185523
185.047,245.983751827
185.062,246.085189146
185.077,246.186168433
185.092,246.286690991
185.107,246.386758211
185.122,246.486371524
185.137,246.585532421
185.152,246.684242453
185.167,246.782503203
185.182,246.880316322
185.197,246.977683487
185.212,247.074606425
185.227,247.171086886
185.242,247.267126672
185.257,247.362727605
185.272,247.457891544
185.287,247.552620366
185.302,247.64691599
185.31,247.69703052
185.317,247.740780339
185.332,247.834215374
185.347,247.927223067
185.362,248.019805412
185.377,248.111964426
185.392,248.203702124
185.407,248.295020554
185.422,248.38592177
185.437,248.476407838
185.452,248.566480828
185.467,248.656142832
185.482,248.745395943
185.497,248.834242261
185.512,248.922683897
185.527,249.010722958
185.542,249.098361576
185.557,249.185601867
185.572,249.272445956
185.587,249.358895975
185.602,249.44495406
185.617,249.530622336
185.632,249.615902948
185.647,249.700798025
185.662,249.785309703
185.677,249.86944011
185.692,249.953191391
185.707,250.036565668
185.722,250.119565077
185.737,250.202191738
185.752,250.284447785
185.767,250.366335331
185.782,250.447856502
185.797,250.529013403
185.812,250.609808152
185.827,250.690242851
185.842,250.770319605
185.857,250.850040506
185.872,250.929407646
185.887,251.008423113
185.902,251.087088987
185.917,251.165407337
185.932,251.243380236
185.947,251.321009743
185.96,251.38801247
185.962,251.398297916
185.977,251.475246791
185.992,251.551858429
186.007,251.628134848
186.022,251.704078081
186.037,251.779690146
186.052,251.854973056
186.06,251.894990041
186.067,251.92992881
186.082,252.004559406
186.097,252.078866833
186.112,252.152853069
186.127,252.226520084
186.142,252.299869844
186.157,252.372904294
186.172,252.445625387
186.187,252.518035054
186.202,252.59013522
186.217,252.661927805
186.232,252.733414717
186.247,252.804597854
186.262,252.875479107
186.277,252.946060349
186.292,253.016343448
186.307,253.086330274
186.322,253.156022672
186.337,253.225422474
186.352,253.294531519
186.367,253.363351623
186.382,253.431884593
186.397,253.500132226
186.412,253.56809632
186.427,253.635778637
186.442,253.703180956
186.457,253.770305026
186.472,253.837152594
186.487,253.903725395
186.502,253.970025152
186.517,254.036053578
186.532,254.101812372
186.547,254.167303227
186.562,254.232527822
186.577,254.29748782
186.592,254.362184887
186.607,254.426620664
186.622,254.490796785
186.637,254.554714874
186.652,254.618376543
186.667,254.68178339
186.682,254.744937005
186.697,254.80783897
186.71,254.862151657
186.712,254.870490845
186.727,254.932894187
186.742,254.995050538
186.757,255.056961435
186.772,255.118628389
186.787,255.180052914
186.802,255.24123651
186.817,255.302180655
186.832,255.362886834
186.847,255.4233565
186.862,255.483591104
186.877,255.54359209
186.892,255.603360889
186.907,255.662898909
186.922,255.72220756
186.937,255.781288241
186.952,255.840142325
186.967,255.898771188
186.982,255.957176188
186.997,256.015358675
187.012,256.073319984
187.027,256.131061442
187.042,256.188584365
187.057,256.245890049
187.072,256.302979796
187.087,256.35985488
187.102,256.416516575
187.117,256.472966138
187.132,256.529204817
187.147,256.585233845
187.162,256.641054457
187.177,256.696667858
187.192,256.752075259
187.207,256.807277851
187.222,256.86227682
187.237,256.917073333
187.252,256.971668553
187.267,257.026063637
187.282,257.080259716
187.297,257.134257928
187.312,257.188059393
187.327,257.24166521
187.342,257.295076493
187.357,257.348294323
187.372,257.40131978
187.387,257.454153931
187.402,257.506797843
187.417,257.559252561
187.432,257.611519122
187.447,257.663598556
187.46,257.708583496
187.462,257.715491891
187.477,257.767200126
187.492,257.81872427
187.507,257.870065318
187.522,257.921224241
187.537,257.97220202
187.552,258.022999618
187.567,258.073617989
187.582,258.124058073
187.597,258.174320818
187.612,258.224407142
187.627,258.274317969
187.642,258.324054203
187.657,258.373616754
187.672,258.42300651
187.687,258.472224358
187.702,258.52127117
187.717,258.570147818
187.732,258.618855159
187.747,258.66739404
187.762,258.715765309
187.777,258.7639698
187.792,258.812008341
187.807,258.859881744
187.822,258.907590829
187.837,258.955136395
187.852,259.002519238
187.867,259.049740146
187.882,259.096799897
187.897,259.14369927
187.912,259.190439026
187.927,259.237019927
187.942,259.283442717
187.957,259.329708146
187.972,259.375816949
187.987,259.421769857
188.002,259.467567592
188.017,259.513210871
188.032,259.558700403
188.047,259.604036887
188.062,259.649221024
188.077,259.6942535
188.092,259.739134999
188.107,259.783866199
188.122,259.828447764
188.137,259.872880366
188.152,259.917164658
188.167,259.961301287
188.182,260.005290904
188.197,260.049134147
188.21,260.087013712
188.212,260.092831647
188.227,260.136384035
188.242,260.179791926
188.257,260.223055944
188.272,260.26617669
188.287,260.309154776
188.302,260.35199079
188.317,260.394685337
188.332,260.437238996
188.347,260.479652351
188.362,260.521925981
188.377,260.564060455
188.392,260.606056338
188.407,260.647914192
188.422,260.689634578
188.437,260.731218032
188.452,260.772665119
188.467,260.813976364
188.482,260.855152309
188.497,260.896193485
188.512,260.937100415
188.527,260.977873624
188.542,261.018513624
188.557,261.059020928
188.572,261.099396048
188.587,261.139639478
188.602,261.179751724
188.617,261.219733274
188.632,261.259584618
188.647,261.299306248
188.66,261.333627097
188.662,261.338898631
188.677,261.378362253
188.692,261.417697585
188.707,261.456905082
188.722,261.495985227
188.737,261.534938466
