# 10410 EDZE Essen Observations at 12Z 05 Jul 2019
Frequency [GHz],TB
175.31,271.752545589
175.322,271.733156265
175.337,271.708810707
175.352,271.684344175
175.367,271.659756694
175.382,271.635048299
175.397,271.610219022
175.412,271.585268904
175.427,271.560197972
175.442,271.535006276
175.457,271.509693852
175.472,271.484260745
175.487,271.458707003
175.502,271.433032671
175.517,271.407237802
175.532,271.381322443
175.547,271.355286652
175.562,271.329130482
175.577,271.302853991
175.592,271.27645724
175.607,271.249940286
175.622,271.223303194
175.637,271.196546029
175.652,271.169668851
175.667,271.142671737
175.682,271.11555475
175.697,271.088317964
175.712,271.060961449
175.727,271.033485282
175.742,271.005889536
175.757,270.978174287
175.772,270.950339619
175.787,270.922385606
175.802,270.89431233
175.817,270.866119877
175.832,270.837808329
175.847,270.809377769
175.862,270.780828287
175.877,270.752159967
175.892,270.723372897
175.907,270.69446717
175.922,270.665442874
175.937,270.636300103
175.952,270.607038947
175.967,270.577659503
175.982,270.548161862
175.997,270.518546121
176.012,270.488812373
176.027,270.458960722
176.042,270.428991256
176.057,270.398904081
176.072,270.368699291
176.087,270.338376985
176.102,270.307937268
176.117,270.277380233
176.132,270.246705986
176.147,270.215914625
176.162,270.185006255
176.177,270.153980971
176.192,270.122838882
176.207,270.091580084
176.222,270.06020468
176.237,270.028712774
176.252,269.997104467
176.267,269.96537986
176.282,269.933539057
176.297,269.901582156
176.31,269.873792344
176.312,269.869509261
176.327,269.837320471
176.342,269.80501589
176.357,269.772595614
176.372,269.740059743
176.387,269.70740838
176.402,269.674641621
176.417,269.641759566
176.432,269.608762308
176.447,269.575649949
176.46,269.546859534
176.462,269.542422577
176.477,269.509080295
176.492,269.475623193
176.507,269.442051366
176.522,269.4083649
176.537,269.374563892
176.552,269.340648431
176.567,269.306618602
176.582,269.272474493
176.597,269.238216188
176.612,269.203843775
176.627,269.169357332
176.642,269.134756944
176.657,269.100042687
176.672,269.065214642
176.687,269.030272882
176.702,268.995217484
176.717,268.960048515
176.732,268.924766051
176.747,268.889370158
176.762,268.8538609
176.777,268.818238342
176.792,268.782502549
176.807,268.746653577
176.822,268.710691483
176.837,268.674616323
176.852,268.63842815
176.867,268.602127011
176.882,268.565712955
176.897,268.529186029
176.912,268.492546266
176.927,268.455793715
176.942,268.418928405
176.957,268.381950373
176.972,268.344859645
176.987,268.307656254
177.002,268.270340219
177.017,268.232911563
177.032,268.195370302
177.047,268.15771645
177.062,268.119950019
177.077,268.082071016
177.092,268.044079445
177.107,268.005975305
177.122,267.967758592
177.137,267.929429303
177.152,267.890987424
177.167,267.852432939
177.182,267.813765835
177.197,267.774986081
177.21,267.741285824
177.212,267.736093656
177.227,267.69708853
177.242,267.657970668
177.257,267.618740028
177.272,267.579396569
177.287,267.539940244
177.302,267.500370999
177.31,267.479221212
177.317,267.460688782
177.332,267.420893527
177.347,267.380985173
177.362,267.340963644
177.377,267.300828876
177.392,267.260580781
177.407,267.220219278
177.422,267.179744276
177.437,267.139155689
177.452,267.098453408
177.467,267.057637335
177.482,267.01670736
177.497,266.975663373
177.512,266.934505252
177.527,266.893232868
177.542,266.851846101
177.557,266.81034481
177.572,266.768728859
177.587,266.726998102
177.602,266.685152387
177.617,266.643191556
177.632,266.60111545
177.647,266.558923902
177.66,266.522264381
177.662,266.516616737
177.677,266.474193779
177.692,266.431654842
177.707,266.388999734
177.722,266.346228264
177.737,266.303340225
177.752,266.260335413
177.767,266.217213612
177.782,266.173974602
177.797,266.130618159
177.812,266.087144053
177.827,266.043552043
177.842,265.999841884
177.857,265.956013328
177.872,265.912066123
177.887,265.867999996
177.902,265.823814688
177.917,265.77950992
177.932,265.735085406
177.947,265.690540866
177.96,265.651838277
177.962,265.645875999
177.977,265.601090508
177.992,265.556184083
178.007,265.511156412
178.022,265.466007173
178.037,265.420736039
178.052,265.375342674
178.067,265.329826743
178.082,265.284187891
178.097,265.238425771
178.112,265.192540022
178.127,265.146530268
178.142,265.100396143
178.157,265.054137261
178.172,265.007753239
178.187,264.961243675
178.202,264.914608173
178.217,264.86784632
178.232,264.820957701
178.247,264.773941891
178.262,264.726798464
178.277,264.679526979
178.292,264.632126992
178.307,264.584598054
178.322,264.536939704
178.337,264.489151475
178.352,264.441232896
178.367,264.393183483
178.382,264.345002753
178.397,264.296690207
178.41,264.254712324
178.412,264.248245346
178.427,264.199667653
178.442,264.150956618
178.457,264.102111714
178.472,264.053132408
178.487,264.004018162
178.502,263.954768427
178.517,263.905382648
178.532,263.855860265
178.547,263.806200704
178.562,263.756403391
178.577,263.706467742
178.592,263.656393159
178.607,263.606179044
178.622,263.555824794
178.637,263.505329783
178.652,263.454693392
178.667,263.403914989
178.682,263.352993937
178.697,263.301929584
178.712,263.250721276
178.727,263.199368352
178.742,263.147870136
178.757,263.096225953
178.772,263.044435114
178.787,262.992496921
178.802,262.940410673
178.817,262.888175655
178.832,262.835791154
178.847,262.783256433
178.862,262.73057076
178.877,262.677733392
178.892,262.624743569
178.907,262.571600533
178.922,262.518303516
178.937,262.464851737
178.952,262.411244411
178.967,262.357480737
178.982,262.303559915
178.997,262.249481132
179.012,262.195243563
179.027,262.140846386
179.042,262.086288751
179.057,262.031569815
179.072,261.976688723
179.087,261.921644603
179.102,261.866436586
179.117,261.811063786
179.132,261.755525311
179.147,261.699820255
179.16,261.651407094
179.162,261.643947711
179.177,261.587906755
179.192,261.531696459
179.207,261.475315884
179.222,261.41876408
179.237,261.362040086
179.252,261.30514294
179.267,261.248071659
179.282,261.190825259
179.297,261.13340274
179.312,261.075803097
179.327,261.018025315
179.342,260.960068361
179.357,260.901931204
179.372,260.843612795
179.387,260.785112075
179.402,260.726427981
179.417,260.667559431
179.432,260.608505341
179.447,260.549264608
179.462,260.489836124
179.477,260.430218766
179.492,260.37041141
179.507,260.31041291
179.522,260.250222115
179.537,260.18983786
179.552,260.129258971
179.567,260.068484262
179.582,260.007512537
179.597,259.946342588
179.612,259.884973194
179.627,259.823403124
179.642,259.761631134
179.657,259.699655973
179.672,259.637476368
179.687,259.575091047
179.702,259.512498716
179.717,259.449698075
179.732,259.386687808
179.747,259.323466589
179.762,259.260033075
179.777,259.196385918
179.792,259.132523754
179.807,259.068445201
179.822,259.004148878
179.837,258.939633373
179.852,258.874897275
179.867,258.809939156
179.882,258.744757571
179.897,258.679351069
179.91,258.622482364
179.912,258.613718177
179.927,258.547857419
179.942,258.481767292
179.957,258.415446292
179.972,258.348892895
179.987,258.282105567
180.002,258.215082754
180.017,258.14782289
180.032,258.080324401
180.047,258.012585693
180.062,257.944605159
180.077,257.876381178
180.092,257.807912112
180.107,257.739196313
180.122,257.670232118
180.137,257.601017848
180.152,257.531551805
180.167,257.461832289
180.182,257.391857569
180.197,257.321625911
180.212,257.25113556
180.227,257.180384755
180.242,257.109371705
180.257,257.03809462
180.272,256.966551683
180.287,256.89474107
180.302,256.822660939
180.317,256.750309434
180.332,256.677684682
180.347,256.604784798
180.362,256.531607885
180.377,256.458152018
180.392,256.384415274
180.407,256.310395705
180.422,256.236091357
180.437,256.16150025
180.452,256.086620398
180.467,256.011449801
180.482,255.935986441
180.497,255.86022829
180.512,255.784173303
180.527,255.707819423
180.542,255.631164582
180.557,255.554206696
180.56,255.53877857
180.572,255.47694367
180.587,255.399373398
180.602,255.321493756
180.617,255.243302614
180.632,255.164797829
180.647,255.085977245
180.66,255.017408955
180.662,255.0068387
180.677,254.927380019
180.692,254.847599013
180.707,254.767493494
180.722,254.687061254
180.737,254.606300087
180.752,254.525207769
180.767,254.44378208
180.782,254.362020785
180.797,254.279921653
180.812,254.197482434
180.827,254.114700889
180.842,254.031574764
180.857,253.948101814
180.872,253.864279783
180.887,253.780106419
180.902,253.695579469
180.917,253.610696686
180.932,253.525455819
180.947,253.439854628
180.962,253.353890876
180.977,253.267562328
180.992,253.180866765
181.007,253.093801972
181.022,253.006365745
181.037,252.918555896
181.052,252.830370248
181.067,252.741806643
181.082,252.652862935
181.097,252.563537003
181.112,252.473826745
181.127,252.383730081
181.142,252.293244959
181.157,252.202369357
181.172,252.111101273
181.187,252.019438748
181.202,251.927379849
181.217,251.834922685
181.232,251.742065404
181.247,251.648806194
181.262,251.555143288
181.277,251.461074967
181.292,251.366599563
181.307,251.271715464
181.31,251.252689462
181.322,251.176421107
181.337,251.080714999
181.352,250.984595701
181.367,250.888061844
181.382,250.791112129
181.397,250.693745332
181.412,250.595960302
181.427,250.49775597
181.442,250.399131351
181.457,250.300085552
181.472,250.200617771
181.487,250.100727297
181.502,250.000413523
181.517,249.899675953
181.532,249.798514191
181.547,249.696927959
181.562,249.594917095
181.577,249.492481563
181.592,249.389621448
181.607,249.286336977
181.622,249.182628507
181.637,249.078496536
181.652,248.973941711
181.667,248.868964833
181.682,248.763566854
181.697,248.657748893
181.712,248.551512238
181.727,248.444858344
181.742,248.337788847
181.757,248.230305574
181.772,248.122410523
181.787,248.014105909
181.802,247.905394133
181.817,247.796277809
181.832,247.686759757
181.847,247.576843026
181.862,247.466530879
181.877,247.355826821
181.892,247.244734582
181.907,247.133258145
181.922,247.021401739
181.937,246.909169856
181.952,246.796567245
181.967,246.68359893
181.982,246.57027021
181.997,246.45658668
182.012,246.342554215
182.027,246.228179006
182.042,246.113467546
182.057,245.998426647
182.06,245.975379559
182.072,245.883063455
182.087,245.767385452
182.102,245.651400462
182.117,245.535116676
182.132,245.418542648
182.147,245.301687317
182.162,245.184560013
182.177,245.06717047
182.192,244.949528844
182.207,244.831645725
182.222,244.713532153
182.237,244.595199629
182.252,244.476660143
182.267,244.357926185
182.282,244.239010764
182.297,244.119927429
182.312,244.000690304
182.327,243.881314084
182.342,243.76181409
182.357,243.642206285
182.372,243.52250729
182.387,243.402734434
182.402,243.282905772
182.417,243.163040136
182.432,243.043157144
182.447,242.923277268
182.462,242.803421858
182.477,242.683613192
182.492,242.563874513
182.507,242.444230086
182.522,242.324705247
182.537,242.205326446
182.552,242.086121318
182.567,241.967118723
182.582,241.848348822
182.597,241.729843118
182.612,241.611634542
182.627,241.493757503
182.642,241.376247956
182.657,241.259143475
182.672,241.142483314
182.687,241.026308483
182.702,240.910661807
182.717,240.795587999
182.732,240.681133722
182.747,240.567347656
182.762,240.454280555
182.777,240.341985302
182.792,240.230516971
182.807,240.119932858
182.822,240.010292539
182.837,239.901657903
182.852,239.79409318
182.867,239.687664979
182.882,239.58244231
182.897,239.478496625
182.912,239.375901847
182.927,239.274734444
182.942,239.175073501
182.957,239.077000868
182.972,238.980601355
182.987,238.885963028
183.002,238.793177674
183.017,238.70234141
183.032,238.613555593
183.047,238.526928072
183.062,238.442574871
183.077,238.360622477
183.092,238.281210863
183.107,238.204497383
183.122,238.130661726
183.137,238.059912013
183.152,237.992492032
183.167,237.92868941
183.182,237.868844066
183.197,237.813355796
183.212,237.76268887
183.227,237.717370754
183.242,237.67798106
183.257,237.645127063
183.367,237.64229741
183.382,237.674110983
183.397,237.712314542
183.412,237.756305361
183.427,237.805515649
183.442,237.859433424
183.457,237.917610755
183.472,237.979663292
183.487,238.045264705
183.502,238.114138763
183.517,238.186050883
183.532,238.260800191
183.547,238.338212563
183.562,238.418134836
183.577,238.500430143
183.592,238.584974248
183.607,238.671652737
183.622,238.760358904
183.637,238.850992169
183.652,238.943456943
183.667,239.037661803
183.682,239.133518903
183.697,239.230943592
183.712,239.329854126
183.727,239.430171496
183.742,239.531819306
183.757,239.634723692
183.772,239.738813279
183.787,239.844019135
183.802,239.950274746
183.817,240.057515996
183.832,240.165681117
183.847,240.274710681
183.862,240.384547533
183.877,240.495136779
183.892,240.606425719
183.907,240.718363791
183.922,240.830902529
183.937,240.943995492
183.952,241.057598195
183.967,241.171668058
183.982,241.28616433
183.997,241.40104802
184.012,241.516281829
184.027,241.631830085
184.042,241.74765867
184.057,241.863734963
184.072,241.980027763
184.087,242.09650723
184.102,242.21314483
184.117,242.329913266
184.132,242.446786423
184.147,242.563739315
184.162,242.680748027
184.177,242.797789675
184.192,242.914842344
184.207,243.031885058
184.222,243.148897713
184.237,243.265861057
184.252,243.382756647
184.267,243.499566803
184.282,243.61627458
184.297,243.732863733
184.312,243.849318688
184.327,243.965624507
184.342,244.081766866
184.357,244.197732033
184.372,244.313506828
184.387,244.429078615
184.402,244.544435275
184.417,244.659565192
184.432,244.77445722
184.447,244.889100674
184.462,245.003485323
184.477,245.117601348
184.492,245.231439358
184.507,245.344990347
184.522,245.458245708
184.537,245.571197192
184.552,245.683836926
184.56,245.743781365
184.567,245.796157378
184.582,245.908151355
184.597,246.019811996
184.612,246.131132754
184.627,246.242107401
184.642,246.352729999
184.657,246.462994908
184.672,246.572896769
184.687,246.682430505
184.702,246.7915913
184.717,246.90037461
184.732,247.008776127
184.747,247.116791807
184.762,247.224417839
184.777,247.331650649
184.792,247.438486884
184.807,247.544923419
184.822,247.65095734
184.837,247.756585945
184.852,247.861806732
184.867,247.966617398
184.882,248.071015833
184.897,248.17500011
184.912,248.278568489
184.927,248.381719394
184.942,248.484451434
184.957,248.586763368
184.972,248.688654129
184.987,248.790122795
185.002,248.891168598
185.017,248.991790911
185.032,249.091989254
185.047,249.191763277
185.062,249.291112766
185.077,249.390037624
185.092,249.488537891
185.107,249.586613708
185.122,249.684265341
185.137,249.78149316
185.152,249.87829764
185.167,249.974679359
185.182,250.07063899
185.197,250.166177298
185.212,250.261295138
185.227,250.355993456
185.242,250.450273266
185.257,250.544135672
185.272,250.63758185
185.287,250.730613045
185.302,250.823230567
185.31,250.872457909
185.317,250.915435797
185.332,251.007230174
185.347,251.098615198
185.362,251.189592417
185.377,251.280163441
185.392,251.370329923
185.407,251.460093563
185.422,251.54945611
185.437,251.638419349
185.452,251.72698511
185.467,251.815155252
185.482,251.902931672
185.497,251.990316305
185.512,252.077311103
185.527,252.163918055
185.542,252.250139175
185.557,252.335976498
185.572,252.421432084
185.587,252.506508007
185.602,252.591206364
185.617,252.675529265
185.632,252.759478842
185.647,252.843057229
185.662,252.92626658
185.677,253.009109061
185.692,253.091586835
185.707,253.173702086
185.722,253.255456998
185.737,253.336853757
185.752,253.41789456
185.767,253.498581603
185.782,253.57891708
185.797,253.658903194
185.812,253.738542142
185.827,253.817836119
185.842,253.89678732
185.857,253.97539794
185.872,254.053670159
185.887,254.131606171
185.902,254.209208146
185.917,254.286478261
185.932,254.36341868
185.947,254.440031564
185.96,254.506166116
185.962,254.516319059
185.977,254.592283315
185.992,254.667926456
186.007,254.743250615
186.022,254.818257905
186.037,254.892950431
186.052,254.967330284
186.06,255.006872412
186.067,255.041399552
186.082,255.115160305
186.097,255.188614605
186.112,255.261764498
186.127,255.334612026
186.142,255.407159208
186.157,255.479408059
186.172,255.551360576
186.187,255.623018748
186.202,255.694384544
186.217,255.765459926
186.232,255.83624684
186.247,255.906747217
186.262,255.976962973
186.277,256.046896019
186.292,256.116548238
186.307,256.185921511
186.322,256.2550177
186.337,256.323838654
186.352,256.392386207
186.367,256.460662174
186.382,256.528668364
186.397,256.596406569
186.412,256.663878566
186.427,256.731086115
186.442,256.798030964
186.457,256.864714847
186.472,256.931139484
186.487,256.997306582
186.502,257.06321783
186.517,257.128874907
186.532,257.194279471
186.547,257.259433173
186.562,257.324337651
186.577,257.38899452
186.592,257.453405389
186.607,257.517571851
186.622,257.581495483
186.637,257.645177851
186.652,257.708620509
186.667,257.771824989
186.682,257.834792822
186.697,257.897525516
186.71,257.951704807
186.712,257.960024568
186.727,258.022291462
186.742,258.084327673
186.757,258.146134655
186.772,258.207713855
186.787,258.269066705
186.802,258.330194626
186.817,258.391099022
186.832,258.451781289
186.847,258.51224281
186.862,258.572484953
186.877,258.632509074
186.892,258.69231652
186.907,258.751908623
186.922,258.811286705
186.937,258.870452072
186.952,258.929406024
186.967,258.988149845
186.982,259.046684813
186.997,259.105012184
187.012,259.163133212
187.027,259.221049137
187.042,259.278761187
187.057,259.336270579
187.072,259.39357852
187.087,259.450686206
187.102,259.507594821
187.117,259.564305542
187.132,259.620819526
187.147,259.677137932
187.162,259.733261898
187.177,259.789192562
187.192,259.844931043
187.207,259.90047845
187.222,259.955835887
187.237,260.011004448
187.252,260.06598521
187.267,260.120779251
187.282,260.175387629
187.297,260.2298114
187.312,260.284051607
187.327,260.338109284
187.342,260.391985451
187.357,260.445681131
187.372,260.49919733
187.387,260.552535035
187.402,260.605695246
187.417,260.658678937
187.432,260.711487078
187.447,260.764120632
187.46,260.809595895
187.462,260.816580553
187.477,260.868867784
187.492,260.92098326
187.507,260.972927911
187.522,261.024702655
187.537,261.076308399
187.552,261.127746053
187.567,261.179016502
187.582,261.230120641
187.597,261.281059343
187.612,261.33183348
187.627,261.382443915
187.642,261.4328915
187.657,261.483177084
187.672,261.533301504
187.687,261.583265594
187.702,261.633070173
187.717,261.682716065
187.732,261.732204073
187.747,261.781534999
187.762,261.83070964
187.777,261.87972878
187.792,261.928593198
187.807,261.97730367
187.822,262.025860961
187.837,262.074265827
187.852,262.122519021
187.867,262.170621284
187.882,262.218573361
187.897,262.266375975
187.912,262.314029853
187.927,262.361535716
187.942,262.408894267
187.957,262.456106216
187.972,262.503172258
187.987,262.550093087
188.002,262.596869383
188.017,262.643501825
188.032,262.689991087
188.047,262.736337832
188.062,262.782542719
188.077,262.828606402
188.092,262.874529526
188.107,262.920312735
188.122,262.965956659
188.137,263.011461929
188.152,263.056829164
188.167,263.102058983
188.182,263.147151997
188.197,263.192108811
188.21,263.230961673
188.212,263.23693002
188.227,263.281616217
188.242,263.326167994
188.257,263.370585928
188.272,263.414870592
188.287,263.459022564
188.302,263.5030424
188.317,263.546930664
188.332,263.590687908
188.347,263.634314678
188.362,263.677811522
188.377,263.721178967
188.392,263.764417552
188.407,263.807527802
188.422,263.850510237
188.437,263.893365371
188.452,263.936093719
188.467,263.978695779
188.482,264.021172056
188.497,264.063523044
188.512,264.105749235
188.527,264.147851108
188.542,264.189829146
188.557,264.231683824
188.572,264.273415611
188.587,264.315024971
188.602,264.356512367
188.617,264.39787825
188.632,264.439123073
188.647,264.480247281
188.66,264.515791037
188.662,264.521251313
188.677,264.562135607
188.692,264.602900595
188.707,264.643546701
188.722,264.684074348
188.737,264.724483955
