# 48698 WSSS Singapore Observations at 12Z 12 Dec 2019
Frequency [GHz],TB
175.31,273.091154202
175.322,273.070169656
175.337,273.043878964
175.352,273.017521359
175.367,272.991096621
175.382,272.964604513
175.397,272.938044779
175.412,272.911417198
175.427,272.884721509
175.442,272.857957501
175.457,272.831124879
175.472,272.804223432
175.487,272.777252906
175.502,272.750213059
175.517,272.723103618
175.532,272.695924353
175.547,272.668674991
175.562,272.641355305
175.577,272.613965005
175.592,272.586503854
175.607,272.558971586
175.622,272.531367951
175.637,272.503692675
175.652,272.475945508
175.667,272.448126176
175.682,272.420234415
175.697,272.392269957
175.712,272.364232524
175.727,272.336121851
175.742,272.307937667
175.757,272.279679725
175.772,272.251347701
175.787,272.222941348
175.802,272.194460382
175.817,272.165904527
175.832,272.137273494
175.847,272.108567008
175.862,272.079784787
175.877,272.050926533
175.892,272.021991975
175.907,271.992980802
175.922,271.963892746
175.937,271.934727516
175.952,271.905484801
175.967,271.876164313
175.982,271.846765765
175.997,271.817288843
176.012,271.787733263
176.027,271.75809872
176.042,271.728384896
176.057,271.698591514
176.072,271.668718247
176.087,271.638764801
176.102,271.608730846
176.117,271.578616109
176.132,271.548420243
176.147,271.518142936
176.162,271.48778391
176.177,271.457342792
176.192,271.426819318
176.207,271.396213119
176.222,271.365523912
176.237,271.334751362
176.252,271.303895131
176.267,271.27295491
176.282,271.241930363
176.297,271.210821158
176.31,271.183791121
176.312,271.179626971
176.327,271.14834746
176.342,271.116982292
176.357,271.085531139
176.372,271.053993652
176.387,271.022369501
176.402,270.990658331
176.417,270.958859811
176.432,270.926973599
176.447,270.894999336
176.46,270.867216825
176.462,270.862936679
176.477,270.83078529
176.492,270.798544812
176.507,270.766214875
176.522,270.73379514
176.537,270.701285242
176.552,270.668684831
176.567,270.635993558
176.582,270.60321104
176.597,270.570336914
176.612,270.537370848
176.627,270.504312426
176.642,270.471161314
176.657,270.437917137
176.672,270.404579526
176.687,270.371148093
176.702,270.337622478
176.717,270.304002297
176.732,270.270287167
176.747,270.23647673
176.762,270.202570597
176.777,270.168568367
176.792,270.134469647
176.807,270.100274078
176.822,270.065981255
176.837,270.031590818
176.852,269.997102343
176.867,269.962515439
176.882,269.927829722
176.897,269.893044792
176.912,269.858160249
176.927,269.8231757
176.942,269.788090727
176.957,269.752904944
176.972,269.71761792
176.987,269.682229264
177.002,269.646738599
177.017,269.611145449
177.032,269.57544946
177.047,269.539650195
177.062,269.503747229
177.077,269.467740178
177.092,269.431628575
177.107,269.39541203
177.122,269.359090121
177.137,269.32266243
177.152,269.286128504
177.167,269.249487943
177.182,269.212740293
177.197,269.175885143
177.21,269.143856736
177.212,269.138922068
177.227,269.101850616
177.242,269.064670354
177.257,269.02738086
177.272,268.989981674
177.287,268.952472366
177.302,268.914852501
177.31,268.894743196
177.317,268.877121623
177.332,268.839279277
177.347,268.801325059
177.362,268.763258472
177.377,268.725079092
177.392,268.686786466
177.407,268.648380119
177.422,268.609859621
177.437,268.571224511
177.452,268.532474308
177.467,268.493608599
177.482,268.454626869
177.497,268.415528702
177.512,268.376313592
177.527,268.336981088
177.542,268.297530737
177.557,268.257962061
177.572,268.218274578
177.587,268.178467825
177.602,268.138541321
177.617,268.098494599
177.632,268.058327171
177.647,268.018038568
177.66,267.983023394
177.662,267.97762831
177.677,267.937095895
177.692,267.896440872
177.707,267.855662735
177.722,267.81476099
177.737,267.773735164
177.752,267.73258477
177.767,267.691309306
177.782,267.649908277
177.797,267.608381202
177.812,267.56672757
177.827,267.524946906
177.842,267.483038673
177.857,267.441002405
177.872,267.398837588
177.887,267.356543715
177.902,267.314120286
177.917,267.271566806
177.932,267.22888275
177.947,267.186067609
177.96,267.148854734
177.962,267.143120876
177.977,267.100042041
177.992,267.056830601
178.007,267.013486028
178.022,266.970007797
178.037,266.926395391
178.052,266.882648313
178.067,266.838766022
178.082,266.794748012
178.097,266.750593728
178.112,266.706302699
178.127,266.661874348
178.142,266.617308164
178.157,266.572603621
178.172,266.52776018
178.187,266.482777328
178.202,266.437654514
178.217,266.392391194
178.232,266.346986865
178.247,266.301440959
178.262,266.255752946
178.277,266.209922292
178.292,266.163948452
178.307,266.117830877
178.322,266.071569022
178.337,266.025162349
178.352,265.978610291
178.367,265.931912337
178.382,265.885067908
178.397,265.838076453
178.41,265.797231189
178.412,265.790937445
178.427,265.743650291
178.442,265.696214459
178.457,265.648629383
178.472,265.600894523
178.487,265.5530093
178.502,265.504973161
178.517,265.456785547
178.532,265.408445882
178.547,265.359953616
178.562,265.311308178
178.577,265.262509001
178.592,265.213555498
178.607,265.164447124
178.622,265.115183293
178.637,265.065763459
178.652,265.016187002
178.667,264.966453351
178.682,264.916561982
178.697,264.866512283
178.712,264.816303661
178.727,264.765935543
178.742,264.715407357
178.757,264.66471851
178.772,264.613868434
178.787,264.562856514
178.802,264.511682186
178.817,264.460344854
178.832,264.408843931
178.847,264.357178806
178.862,264.305348903
178.877,264.253353631
178.892,264.201192387
178.907,264.148864567
178.922,264.09636959
178.937,264.04370683
178.952,263.99087572
178.967,263.93787562
178.982,263.884705957
178.997,263.831366108
179.012,263.777855473
179.027,263.724173431
179.042,263.670319399
179.057,263.616292739
179.072,263.562092855
179.087,263.507719115
179.102,263.453170923
179.117,263.398447658
179.132,263.343548696
179.147,263.28847342
179.16,263.240598421
179.162,263.23322121
179.177,263.177791442
179.192,263.122183489
179.207,263.066396726
179.222,263.010430541
179.237,262.954284282
179.252,262.897957347
179.267,262.841449088
179.282,262.784758863
179.297,262.72788607
179.312,262.670830038
179.327,262.613590151
179.342,262.556165778
179.357,262.498556253
179.372,262.440760967
179.387,262.382779241
179.402,262.324610463
179.417,262.266253976
179.432,262.207709131
179.447,262.148975281
179.462,262.090051787
179.477,262.030938003
179.492,261.971633243
179.507,261.912136878
179.522,261.852448252
179.537,261.792566721
179.552,261.7324916
179.567,261.672222245
179.582,261.611758001
179.597,261.551098202
179.612,261.490242181
179.627,261.429189285
179.642,261.367938836
179.657,261.306490185
179.672,261.244842646
179.687,261.182995548
179.702,261.120948252
179.717,261.05870005
179.732,260.996250292
179.747,260.933598299
179.762,260.870743395
179.777,260.807684912
179.792,260.744422159
179.807,260.68095448
179.822,260.617281182
179.837,260.553401584
179.852,260.489315002
179.867,260.425020778
179.882,260.360518206
179.897,260.295806632
179.91,260.239553657
179.912,260.230885334
179.927,260.16575367
179.942,260.100410932
179.957,260.034856428
179.972,259.969089487
179.987,259.90310941
180.002,259.836915531
180.017,259.770507144
180.032,259.703883586
180.047,259.637044136
180.062,259.569988138
180.077,259.502714884
180.092,259.435223696
180.107,259.367513875
180.122,259.299584768
180.137,259.231435643
180.152,259.16306584
180.167,259.094474678
180.182,259.025661446
180.197,258.956625475
180.212,258.887366075
180.227,258.817882561
180.242,258.748174261
180.257,258.678240479
180.272,258.608080536
180.287,258.537693756
180.302,258.467079475
180.317,258.396236978
180.332,258.325165618
180.347,258.253864707
180.362,258.182333557
180.377,258.110571539
180.392,258.038577959
180.407,257.966352133
180.422,257.893893423
180.437,257.821201137
180.452,257.748274649
180.467,257.675113269
180.482,257.60171635
180.497,257.528083258
180.512,257.454213319
180.527,257.3801059
180.542,257.305760336
180.557,257.231176011
180.56,257.216230439
180.572,257.156352278
180.587,257.081288496
180.602,257.005984051
180.617,256.930438299
180.632,256.854650638
180.647,256.778620438
180.66,256.712530933
180.662,256.702347083
180.677,256.62582998
180.692,256.549068516
180.707,256.472062081
180.722,256.394810096
180.737,256.317311975
180.752,256.239567115
180.767,256.161574971
180.782,256.08333495
180.797,256.004846496
180.812,255.926109035
180.827,255.847122024
180.842,255.767884925
180.857,255.68839719
180.872,255.608658267
180.887,255.528667675
180.902,255.448424856
180.917,255.367929323
180.932,255.287180548
180.947,255.206178059
180.962,255.124921343
180.977,255.043409942
180.992,254.961643365
181.007,254.87962117
181.022,254.797342877
181.037,254.71480804
181.052,254.632016241
181.067,254.54896703
181.082,254.465659994
181.097,254.382094723
181.112,254.298270782
181.127,254.214187819
181.142,254.129845423
181.157,254.045243213
181.172,253.960380849
181.187,253.875257931
181.202,253.78987414
181.217,253.704229113
181.232,253.618322512
181.247,253.532154038
181.262,253.445723365
181.277,253.359030169
181.292,253.272074182
181.307,253.184855067
181.31,253.167379641
181.322,253.097372575
181.337,253.009626426
181.352,252.921616326
181.367,252.833342055
181.382,252.744803323
181.397,252.65599989
181.412,252.566931511
181.427,252.477597937
181.442,252.387998961
181.457,252.298134326
181.472,252.208003816
181.487,252.1176072
181.502,252.026944265
181.517,251.936014781
181.532,251.844818529
181.547,251.753355293
181.562,251.661624845
181.577,251.569626954
181.592,251.477361404
181.607,251.384827956
181.622,251.292026347
181.637,251.198956361
181.652,251.105617726
181.667,251.012010175
181.682,250.918133432
181.697,250.823987201
181.712,250.729571179
181.727,250.634885049
181.742,250.539928455
181.757,250.444701044
181.772,250.349202414
181.787,250.253432171
181.802,250.157389875
181.817,250.061075051
181.832,249.964487213
181.847,249.867625807
181.862,249.770490293
181.877,249.673080046
181.892,249.575394413
181.907,249.477432725
181.922,249.379194207
181.937,249.280678106
181.952,249.181883526
181.967,249.08280963
181.982,248.983455413
181.997,248.883819891
182.012,248.78390195
182.027,248.683700471
182.042,248.583214219
182.057,248.482441907
182.06,248.46225299
182.072,248.381382144
182.087,248.280033531
182.102,248.178394546
182.117,248.076463528
182.132,247.974238834
182.147,247.871718709
182.162,247.768901253
182.177,247.665784546
182.192,247.562366542
182.207,247.458645158
182.222,247.354618153
182.237,247.250283259
182.252,247.145638115
182.267,247.040680245
182.282,246.935407157
182.297,246.829816239
182.312,246.723904826
182.327,246.617670213
182.342,246.511109619
182.357,246.404220239
182.372,246.296999218
182.387,246.189443709
182.402,246.081550831
182.417,245.973317707
182.432,245.864741487
182.447,245.75581939
182.462,245.64654864
182.477,245.536926557
182.492,245.426950559
182.507,245.316618183
182.522,245.205927081
182.537,245.094875046
182.552,244.983460089
182.567,244.87168037
182.582,244.759534243
182.597,244.647020326
182.612,244.534137416
182.627,244.420884532
182.642,244.307260894
182.657,244.193265944
182.672,244.078899216
182.687,243.964160362
182.702,243.849049034
182.717,243.733564782
182.732,243.617706901
182.747,243.501474266
182.762,243.384865
182.777,243.267876283
182.792,243.15050386
182.807,243.032741508
182.822,242.914580518
182.837,242.796008816
182.852,242.677009927
182.867,242.557561911
182.882,242.437635609
182.897,242.317192888
182.912,242.196184217
182.927,242.074545565
182.942,241.952194743
182.957,241.829026516
182.972,241.704906574
182.987,241.579663673
183.002,241.453079593
183.017,241.324875945
183.032,241.194696912
183.047,241.062086196
183.062,240.926456047
183.077,240.787044973
183.092,240.642859233
183.107,240.49259095
183.122,240.334501287
183.137,240.166251945
183.152,239.984657923
183.167,239.785320761
183.182,239.562079106
183.197,239.306186071
183.212,239.005102848
183.227,238.640857303
183.242,238.188353967
183.257,237.615990234
183.367,237.762514139
183.382,238.298837382
183.397,238.723688553
183.412,239.067423402
183.427,239.353209608
183.442,239.597462342
183.457,239.8116166
183.472,240.003664338
183.487,240.17925302
183.502,240.342428591
183.517,240.496131004
183.532,240.64252564
183.547,240.783227327
183.562,240.919453737
183.577,241.052131817
183.592,241.181973089
183.607,241.309527234
183.622,241.435221334
183.637,241.5593884
183.652,241.682288895
183.667,241.804126783
183.682,241.925061849
183.697,242.045219125
183.712,242.164696257
183.727,242.283569198
183.742,242.401896763
183.757,242.519724144
183.772,242.6370858
183.787,242.754007713
183.802,242.87050922
183.817,242.986604372
183.832,243.102303299
183.847,243.217612935
183.862,243.332537881
183.877,243.447081015
183.892,243.561243939
183.907,243.675027363
183.922,243.788431408
183.937,243.901455838
183.952,244.014100258
183.967,244.126364227
183.982,244.238247376
183.997,244.349749466
184.012,244.460870477
184.027,244.571610608
184.042,244.681970291
184.057,244.791950228
184.072,244.90155136
184.087,245.010774905
184.102,245.11962228
184.117,245.228095135
184.132,245.336195348
184.147,245.44392489
184.162,245.551286009
184.177,245.658280993
184.192,245.764912305
184.207,245.871182488
184.222,245.97709415
184.237,246.082649974
184.252,246.187852664
184.267,246.292704994
184.282,246.397209679
184.297,246.501369514
184.312,246.605187221
184.327,246.708665503
184.342,246.811807049
184.357,246.914614515
184.372,247.017090436
184.387,247.119237376
184.402,247.22105779
184.417,247.322554088
184.432,247.423728594
184.447,247.52458356
184.462,247.625121145
184.477,247.725343507
184.492,247.82525262
184.507,247.924850471
184.522,248.024138904
184.537,248.123119746
184.552,248.221794694
184.56,248.274296849
184.567,248.320165422
184.582,248.418233473
184.597,248.516000342
184.612,248.613467498
184.627,248.710636281
184.642,248.80750799
184.657,248.904083895
184.672,249.000365116
184.687,249.09635282
184.702,249.192048046
184.717,249.287451837
184.732,249.382565133
184.747,249.477388825
184.762,249.571923826
184.777,249.666170941
184.792,249.760130955
184.807,249.853804632
184.822,249.947192667
184.837,250.040295732
184.852,250.133114503
184.867,250.225649584
184.882,250.317901572
184.897,250.409871035
184.912,250.501558498
184.927,250.592964545
184.942,250.684089617
184.957,250.774934235
184.972,250.865498857
184.987,250.955783954
185.002,251.045789965
185.017,251.135517336
185.032,251.224966475
185.047,251.314137812
185.062,251.403031735
185.077,251.491648655
185.092,251.579988992
185.107,251.668053103
185.122,251.755841403
185.137,251.843354266
185.152,251.930592094
185.167,252.017555241
185.182,252.104244133
185.197,252.190659129
185.212,252.276800615
185.227,252.362669013
185.242,252.448264686
185.257,252.533588037
185.272,252.618639475
185.287,252.703419375
185.302,252.787928197
185.31,252.832888847
185.317,252.872166301
185.332,252.956134155
185.347,253.039832148
185.362,253.12326072
185.377,253.206420312
185.392,253.289311362
185.407,253.371934316
185.422,253.454289651
185.437,253.536377807
185.452,253.618199267
185.467,253.699754499
185.482,253.781043994
185.497,253.862068226
185.512,253.942827704
185.527,254.023322959
185.542,254.103554451
185.557,254.183522743
185.572,254.263228354
185.587,254.342671796
185.602,254.42185364
185.617,254.500774391
185.632,254.579434656
185.647,254.657834951
185.662,254.735975886
185.677,254.813857995
185.692,254.891481883
185.707,254.96884815
185.722,255.045957367
185.737,255.122810136
185.752,255.199407075
185.767,255.275748797
185.782,255.351835912
185.797,255.427669042
185.812,255.503248801
185.827,255.57857587
185.842,255.653650864
185.857,255.728474415
185.872,255.803047198
185.887,255.877369849
185.902,255.95144303
185.917,256.025267412
185.932,256.098843662
185.947,256.172172459
185.96,256.235524425
185.962,256.245254463
185.977,256.318090376
185.992,256.390680858
186.007,256.46302661
186.022,256.535128326
186.037,256.6069867
186.052,256.678602436
186.06,256.716698508
186.067,256.749976214
186.082,256.821108756
186.097,256.892000768
186.112,256.962652938
186.127,257.033066006
186.142,257.103240668
186.157,257.173177665
186.172,257.242877683
186.187,257.312341445
186.202,257.381569709
186.217,257.450563168
186.232,257.519322544
186.247,257.58784857
186.262,257.65614199
186.277,257.724203516
186.292,257.79203387
186.307,257.859633814
186.322,257.927004052
186.337,257.994145341
186.352,258.061058403
186.367,258.127743963
186.382,258.19420277
186.397,258.26043557
186.412,258.32644307
186.427,258.392226028
186.442,258.457785167
186.457,258.523121228
186.472,258.588234955
186.487,258.65312708
186.502,258.717798342
186.517,258.78224947
186.532,258.846481203
186.547,258.910494268
186.562,258.974289431
186.577,259.037867381
186.592,259.101228881
186.607,259.164374647
186.622,259.227305449
186.637,259.290021964
186.652,259.352524976
186.667,259.414815176
186.682,259.476893304
186.697,259.538760091
186.71,259.592207586
186.712,259.600416272
186.727,259.661862558
186.742,259.723099666
186.757,259.78412834
186.772,259.844949305
186.787,259.90556327
186.802,259.965970961
186.817,260.026173087
186.832,260.086170374
186.847,260.145963532
186.862,260.205553277
186.877,260.264940317
186.892,260.324125386
186.907,260.383109158
186.922,260.441892362
186.937,260.500475723
186.952,260.55885989
186.967,260.61704563
186.982,260.675033603
186.997,260.73282451
187.012,260.790419086
187.027,260.847817977
187.042,260.905021909
187.057,260.962031555
187.072,261.018847649
187.087,261.075470831
187.102,261.131901806
187.117,261.188141274
187.132,261.24418989
187.147,261.300048364
187.162,261.355717352
187.177,261.411197551
187.192,261.466489628
187.207,261.521594256
187.222,261.576512118
187.237,261.631243871
187.252,261.685790185
187.267,261.740151718
187.282,261.794329168
187.297,261.84832317
187.312,261.90213439
187.327,261.955763502
187.342,262.009211142
187.357,262.062477962
187.372,262.115564637
187.387,262.168471793
187.402,262.221200085
187.417,262.273750196
187.432,262.326122715
187.447,262.37831832
187.46,262.423411903
187.462,262.430337643
187.477,262.482181334
187.492,262.53385001
187.507,262.585344313
187.522,262.636664892
187.537,262.687812352
187.552,262.738787351
187.567,262.7895905
187.582,262.840222412
187.597,262.890683735
187.612,262.940975074
187.627,262.991097063
187.642,263.041050303
187.657,263.090835428
187.672,263.140453029
187.687,263.189903738
187.702,263.239188169
187.717,263.288306891
187.732,263.337260549
187.747,263.386049753
187.762,263.434675075
187.777,263.483137125
187.792,263.53143651
187.807,263.579573816
187.822,263.627549669
187.837,263.675364591
187.852,263.723019252
187.867,263.770514206
187.882,263.81785003
187.897,263.865027328
187.912,263.912046684
187.927,263.958908645
187.942,264.005613856
187.957,264.052162831
187.972,264.098556184
187.987,264.144794493
188.002,264.190878297
188.017,264.236808184
188.032,264.28258474
188.047,264.32820851
188.062,264.373680063
188.077,264.418999971
188.092,264.464168782
188.107,264.509187063
188.122,264.554055375
188.137,264.598774281
188.152,264.643344328
188.167,264.687766067
188.182,264.732040046
188.197,264.77616682
188.21,264.814291377
188.212,264.820146941
188.227,264.863980955
188.242,264.907669391
188.257,264.951212782
188.272,264.994611721
188.287,265.037866701
188.302,265.080978262
188.317,265.123946968
188.332,265.166773312
188.347,265.209457865
188.362,265.252001128
188.377,265.294403651
188.392,265.336665939
188.407,265.37878855
188.422,265.420771974
188.437,265.462616752
188.452,265.50432339
188.467,265.545892407
188.482,265.587324345
188.497,265.628619698
188.512,265.669778969
188.527,265.710802682
188.542,265.751691364
188.557,265.792445492
188.572,265.833065586
188.587,265.873552157
188.602,265.913905703
188.617,265.954126728
188.632,265.994215729
188.647,266.034173204
188.66,266.068697
188.662,266.073999648
188.677,266.113695562
188.692,266.153261441
188.707,266.192697755
188.722,266.232005022
188.737,266.271183714
188.752,266.310234324
