# 01004 ENAS Ny-Alesund Ii Observations at 12Z 29 Apr 2019
Frequency [GHz],TB
175.31,257.453622388
175.322,257.481184564
175.337,257.515479673
175.352,257.549598336
175.367,257.583539098
175.382,257.617300503
175.397,257.65088113
175.412,257.684279527
175.427,257.717494228
175.442,257.750523794
175.457,257.78336677
175.472,257.816021691
175.487,257.848487111
175.502,257.880761561
175.517,257.912843581
175.532,257.944731706
175.547,257.976424461
175.562,258.007920399
175.577,258.039218031
175.592,258.070315906
175.607,258.101212528
175.622,258.131906444
175.637,258.162396171
175.652,258.192680228
175.667,258.22275716
175.682,258.252625479
175.697,258.282283699
175.712,258.311730359
175.727,258.340963971
175.742,258.369983059
175.757,258.398786154
175.772,258.427371763
175.787,258.455738417
175.802,258.48388464
175.817,258.511808944
175.832,258.539509874
175.847,258.566985928
175.862,258.594235656
175.877,258.621257559
175.892,258.648050183
175.907,258.674612054
175.922,258.700941703
175.937,258.727037635
175.952,258.752898418
175.967,258.778522574
175.982,258.803908629
175.997,258.82905513
176.012,258.853960619
176.027,258.87862364
176.042,258.903042739
176.057,258.927216452
176.072,258.951143344
176.087,258.974821967
176.102,258.998250868
176.117,259.021428624
176.132,259.044353789
176.147,259.067024925
176.162,259.089440613
176.177,259.111599428
176.192,259.133499947
176.207,259.15514075
176.222,259.176520424
176.237,259.197637568
176.252,259.218490784
176.267,259.239078662
176.282,259.259399817
176.297,259.279452855
176.31,259.296614213
176.312,259.299236396
176.327,259.31874907
176.342,259.337989516
176.357,259.356956344
176.372,259.375648209
176.387,259.394063759
176.402,259.412201653
176.417,259.430060546
176.432,259.447639108
176.447,259.464936017
176.46,259.479697815
176.462,259.48194994
176.477,259.498679589
176.492,259.51512365
176.507,259.531280827
176.522,259.547149837
176.537,259.562729407
176.552,259.578018255
176.567,259.593015127
176.582,259.607718766
176.597,259.622127932
176.612,259.636241384
176.627,259.650057899
176.642,259.663576268
176.657,259.67679527
176.672,259.689713718
176.687,259.70233043
176.702,259.714644212
176.717,259.726653914
176.732,259.738358371
176.747,259.749756449
176.762,259.760847003
176.777,259.771628912
176.792,259.782101069
176.807,259.792262365
176.822,259.802111733
176.837,259.811648074
176.852,259.820870327
176.867,259.829777452
176.882,259.838368399
176.897,259.846642142
176.912,259.854597675
176.927,259.862233989
176.942,259.869550095
176.957,259.876545022
176.972,259.883217806
176.987,259.889567499
177.002,259.895593183
177.017,259.901293907
177.032,259.90666879
177.047,259.911716942
177.062,259.916437465
177.077,259.920829522
177.092,259.92489224
177.107,259.928624807
177.122,259.932026394
177.137,259.935096203
177.152,259.937833458
177.167,259.940237371
177.182,259.942307194
177.197,259.944042197
177.21,259.94527446
177.212,259.945441641
177.227,259.946504824
177.242,259.947231068
177.257,259.947619684
177.272,259.947670012
177.287,259.947381423
177.302,259.94675329
177.31,259.946279239
177.317,259.945785001
177.332,259.944475966
177.347,259.942825628
177.362,259.940833402
177.377,259.938498764
177.392,259.935821207
177.407,259.932800201
177.422,259.92943529
177.437,259.925725979
177.452,259.921671826
177.467,259.91727241
177.482,259.912527296
177.497,259.907436123
177.512,259.901998467
177.527,259.896214
177.542,259.890082375
177.557,259.883603262
177.572,259.87677635
177.587,259.869601368
177.602,259.862078041
177.617,259.85420611
177.632,259.845985364
177.647,259.837415572
177.66,259.829705925
177.662,259.82849654
177.677,259.819228089
177.692,259.809610084
177.707,259.799642355
177.722,259.789324808
177.737,259.778657321
177.752,259.767639816
177.767,259.756272221
177.782,259.744554508
177.797,259.732486624
177.812,259.72006856
177.827,259.707300348
177.842,259.694181985
177.857,259.680713522
177.872,259.666895018
177.887,259.652726559
177.902,259.638208237
177.917,259.623340162
177.932,259.608122469
177.947,259.592555308
177.96,259.578781212
177.962,259.576638836
177.977,259.560373245
177.992,259.543758733
178.007,259.526795509
178.022,259.509483805
178.037,259.491823881
178.052,259.473816
178.067,259.455460442
178.082,259.436757498
178.097,259.417707495
178.112,259.398310748
178.127,259.378567602
178.142,259.358478435
178.157,259.3380436
178.172,259.317263482
178.187,259.296138496
178.202,259.274669067
178.217,259.25285559
178.232,259.230698548
178.247,259.208198386
178.262,259.185355549
178.277,259.162170551
178.292,259.138643878
178.307,259.114776033
178.322,259.090567531
178.337,259.066018912
178.352,259.041130715
178.367,259.015903476
178.382,258.990337774
178.397,258.964434171
178.41,258.941711515
178.412,258.938193257
178.427,258.911615614
178.442,258.884701845
178.457,258.857452556
178.472,258.829868366
178.487,258.801949896
178.502,258.773697771
178.517,258.745112639
178.532,258.716195136
178.547,258.686945923
178.562,258.657365631
178.577,258.627454944
178.592,258.597214518
178.607,258.566645019
178.622,258.535747129
178.637,258.504521507
178.652,258.472968852
178.667,258.441089832
178.682,258.408885132
178.697,258.376355443
178.712,258.343501439
178.727,258.310323815
178.742,258.276823253
178.757,258.243000441
178.772,258.208856049
178.787,258.174390777
178.802,258.139605299
178.817,258.104500291
178.832,258.069076422
178.847,258.033334372
178.862,257.997274803
178.877,257.960898384
178.892,257.924205764
178.907,257.887197591
178.922,257.84987451
178.937,257.812237181
178.952,257.774286209
178.967,257.736022228
178.982,257.697445849
178.997,257.658557691
179.012,257.61935833
179.027,257.57984838
179.042,257.540028405
179.057,257.499898956
179.072,257.459460616
179.087,257.418713933
179.102,257.377659402
179.117,257.336297575
179.132,257.294628952
179.147,257.252654013
179.16,257.216028348
179.162,257.210373258
179.177,257.167787144
179.192,257.124896101
179.207,257.081700588
179.222,257.038201016
179.237,256.994397786
179.252,256.950291287
179.267,256.905881884
179.282,256.861169928
179.297,256.816155762
179.312,256.770839698
179.327,256.725222029
179.342,256.679303041
179.357,256.633082994
179.372,256.586562128
179.387,256.539740634
179.402,256.492618769
179.417,256.445196674
179.432,256.397474522
179.447,256.349452446
179.462,256.301130559
179.477,256.252508983
179.492,256.203587766
179.507,256.154366971
179.522,256.104846628
179.537,256.055026755
179.552,256.004907337
179.567,255.954488323
179.582,255.903769672
179.597,255.852751308
179.612,255.801433111
179.627,255.749814964
179.642,255.697896721
179.657,255.64567822
179.672,255.593159247
179.687,255.540339589
179.702,255.487219023
179.717,255.433797283
179.732,255.380074068
179.747,255.326049089
179.762,255.27172201
179.777,255.217092474
179.792,255.162160124
179.807,255.106924538
179.822,255.051385328
179.837,254.995542026
179.852,254.93939419
179.867,254.882941336
179.882,254.826182954
179.897,254.769118518
179.91,254.719414703
179.912,254.711747498
179.927,254.654069317
179.942,254.596083406
179.957,254.537789148
179.972,254.479185923
179.987,254.420273103
180.002,254.361050015
180.017,254.301515985
180.032,254.241670324
180.047,254.181512323
180.062,254.121041254
180.077,254.06025637
180.092,253.999156926
180.107,253.937742139
180.122,253.87601124
180.137,253.813963394
180.152,253.751597818
180.167,253.68891368
180.182,253.62591014
180.197,253.562586345
180.212,253.498941452
180.227,253.434974587
180.242,253.370684872
180.257,253.306071415
180.272,253.241133334
180.287,253.175869719
180.302,253.110279674
180.317,253.044362276
180.332,252.978116623
180.347,252.911541795
180.362,252.844636854
180.377,252.777400886
180.392,252.70983296
180.407,252.641932155
180.422,252.573697545
180.437,252.505128201
180.452,252.436223187
180.467,252.366981602
180.482,252.29740252
180.497,252.227485023
180.512,252.15722822
180.527,252.086631196
180.542,252.015693067
180.557,251.944412936
180.56,251.930115792
180.572,251.872789936
180.587,251.800823195
180.602,251.72851186
180.617,251.655855076
180.632,251.582852026
180.647,251.509501885
180.66,251.445650385
180.662,251.435803858
180.677,251.361757139
180.692,251.287360982
180.707,251.212614602
180.722,251.137517284
180.737,251.062068309
180.752,250.986266966
180.767,250.910112599
180.782,250.83360454
180.797,250.756742159
180.812,250.679524841
180.827,250.601952022
180.842,250.524023136
180.857,250.445737632
180.872,250.367095036
180.887,250.288094855
180.902,250.20873665
180.917,250.129020013
180.932,250.048944536
180.947,249.968509895
180.962,249.887715754
180.977,249.806561822
180.992,249.725047877
181.007,249.643173673
181.022,249.560939057
181.037,249.478343879
181.052,249.395388044
181.067,249.312071489
181.082,249.22839419
181.097,249.144356177
181.112,249.059957531
181.127,248.975198339
181.142,248.890078767
181.157,248.804599022
181.172,248.718759346
181.187,248.632560054
181.202,248.546001485
181.217,248.459084026
181.232,248.37180817
181.247,248.284174382
181.262,248.196183251
181.277,248.107835393
181.292,248.019131481
181.307,247.930072254
181.31,247.912217843
181.322,247.840658522
181.337,247.750891139
181.352,247.660771036
181.367,247.570299214
181.382,247.479476734
181.397,247.388304732
181.412,247.296784424
181.427,247.20491708
181.442,247.112704083
181.457,247.020146863
181.472,246.92724696
181.487,246.834005968
181.502,246.740425608
181.517,246.646507663
181.532,246.552254013
181.547,246.457666674
181.562,246.36274771
181.577,246.267499337
181.592,246.171923843
181.607,246.076023671
181.622,245.979801339
181.637,245.883259536
181.652,245.786401048
181.667,245.689228792
181.682,245.591745841
181.697,245.493955422
181.712,245.395860895
181.727,245.297465775
181.742,245.198773759
181.757,245.09978872
181.772,245.000514685
181.787,244.90095589
181.802,244.801116768
181.817,244.701001944
181.832,244.600616269
181.847,244.499964821
181.862,244.399052898
181.877,244.29788607
181.892,244.19647012
181.907,244.094811142
181.922,243.992915482
181.937,243.890789803
181.952,243.788441053
181.967,243.685876519
181.982,243.583103801
181.997,243.480130862
182.012,243.37696604
182.027,243.273618025
182.042,243.170095946
182.057,243.066409313
182.06,243.045653116
182.072,242.962568112
182.087,242.858582726
182.102,242.754464061
182.117,242.650223494
182.132,242.545872942
182.147,242.44142483
182.162,242.336892146
182.177,242.232288486
182.192,242.127628024
182.207,242.022925591
182.222,241.918196651
182.237,241.81345737
182.252,241.708724612
182.267,241.604015983
182.282,241.499349838
182.297,241.39474535
182.312,241.290222477
182.327,241.185802062
182.342,241.081505797
182.357,240.977356295
182.372,240.873377114
182.387,240.769592756
182.402,240.666028742
182.417,240.562711611
182.432,240.459668941
182.447,240.356929425
182.462,240.254522849
182.477,240.152480139
182.492,240.050833424
182.507,239.949615964
182.522,239.848862299
182.537,239.748608196
182.552,239.648890668
182.567,239.54974805
182.582,239.451219942
182.597,239.353347305
182.612,239.256172412
182.627,239.159738874
182.642,239.064091704
182.657,238.969277225
182.672,238.875343123
182.687,238.782338468
182.702,238.690313669
182.717,238.59932044
182.732,238.509411862
182.747,238.420642265
182.762,238.333067277
182.777,238.246743734
182.792,238.161729665
182.807,238.078084234
182.822,237.995867704
182.837,237.915141322
182.852,237.835967306
182.867,237.758408704
182.882,237.682529363
182.897,237.608393769
182.912,237.536066999
182.927,237.465614525
182.942,237.397102148
182.957,237.330595843
182.972,237.266161558
182.987,237.203865103
183.002,237.143771957
183.017,237.085947061
183.032,237.030454631
183.047,236.977357948
183.062,236.926719131
183.077,236.878598895
183.092,236.833056324
183.107,236.790148626
183.122,236.749930815
183.137,236.712455523
183.152,236.677772678
183.167,236.645929274
183.182,236.616969069
183.197,236.590932376
183.212,236.567855742
183.227,236.547771798
183.242,236.530708967
183.257,236.516691311
183.367,236.508079589
183.382,236.519741595
183.397,236.534443807
183.412,236.552161204
183.427,236.572864384
183.442,236.596519865
183.457,236.623090221
183.472,236.652534398
183.487,236.684807905
183.502,236.719863084
183.517,236.757649409
183.532,236.798113712
183.547,236.84120049
183.562,236.886852137
183.577,236.935009195
183.592,236.985610657
183.607,237.038594132
183.622,237.093896158
183.637,237.15145234
183.652,237.211197636
183.667,237.273066496
183.682,237.336993073
183.697,237.402911425
183.712,237.470755606
183.727,237.5404599
183.742,237.611958892
183.757,237.685187647
183.772,237.760081792
183.787,237.836577664
183.802,237.914612371
183.817,237.994123888
183.832,238.075051164
183.847,238.157334159
183.862,238.240913935
183.877,238.325732698
183.892,238.411733822
183.907,238.49886196
183.922,238.587063001
183.937,238.676284136
183.952,238.766473893
183.967,238.857582106
183.982,238.949559975
183.997,239.042360065
184.012,239.135936281
184.027,239.230243892
184.042,239.325239516
184.057,239.42088112
184.072,239.517127995
184.087,239.613940782
184.102,239.711281363
184.117,239.809112965
184.132,239.907400036
184.147,240.006108295
184.162,240.105204656
184.177,240.204657226
184.192,240.304435291
184.207,240.404509268
184.222,240.504850675
184.237,240.605432127
184.252,240.706227281
184.267,240.807210832
184.282,240.908358433
184.297,241.009646739
184.312,241.111053333
184.327,241.212556683
184.342,241.314136163
184.357,241.415771966
184.372,241.517445123
184.387,241.619137444
184.402,241.720831509
184.417,241.822510627
184.432,241.92415883
184.447,242.025760805
184.462,242.127301927
184.477,242.228768186
184.492,242.330146164
184.507,242.431423072
184.522,242.532586627
184.537,242.633625143
184.552,242.734527387
184.56,242.788282494
184.567,242.835282687
184.582,242.935880791
184.597,243.036311923
184.612,243.136566757
184.627,243.236636379
184.642,243.336512252
184.657,243.436186257
184.672,243.535650637
184.687,243.634897946
184.702,243.733921143
184.717,243.832713439
184.732,243.931268403
184.747,244.029579868
184.762,244.12764197
184.777,244.22544911
184.792,244.32299593
184.807,244.420277335
184.822,244.517288474
184.837,244.614024691
184.852,244.710481571
184.867,244.806654889
184.882,244.902540633
184.897,244.998134964
184.912,245.093434248
184.927,245.188434984
184.942,245.283133878
184.957,245.377527759
184.972,245.471613642
184.987,245.565388654
185.002,245.658850083
185.017,245.751995347
185.032,245.844821977
185.047,245.937327659
185.062,246.029510153
185.077,246.121367366
185.092,246.212897311
185.107,246.304098095
185.122,246.394967915
185.137,246.485505092
185.152,246.575708022
185.167,246.665575188
185.182,246.755105183
185.197,246.844296667
185.212,246.933148358
185.227,247.021659092
185.242,247.109827758
185.257,247.197653333
185.272,247.285134843
185.287,247.372271387
185.302,247.45906214
185.31,247.50520888
185.317,247.545506337
185.332,247.631603267
185.347,247.717352297
185.362,247.80275284
185.377,247.887804367
185.392,247.972506387
185.407,248.056858487
185.422,248.14086032
185.437,248.224511526
185.452,248.307811884
185.467,248.390761122
185.482,248.473359096
185.497,248.555605669
185.512,248.63750076
185.527,248.71904432
185.542,248.800236354
185.557,248.881076898
185.572,248.961566027
185.587,249.04170388
185.602,249.121490599
185.617,249.200926376
185.632,249.280011457
185.647,249.358746099
185.662,249.4371306
185.677,249.515165302
185.692,249.592850571
185.707,249.670186798
185.722,249.74717441
185.737,249.823813888
185.752,249.900105698
185.767,249.97605038
185.782,250.051648461
185.797,250.126900519
185.812,250.201807155
185.827,250.276368997
185.842,250.350586693
185.857,250.424460912
185.872,250.497992353
185.887,250.571181746
185.902,250.644029811
185.917,250.716537321
185.932,250.788705074
185.947,250.860533851
185.96,250.922511911
185.962,250.932024486
185.977,251.003177816
185.992,251.073994688
186.007,251.144475985
186.022,251.214622602
186.037,251.284435435
186.052,251.353915402
186.06,251.390835613
186.067,251.423063454
186.082,251.491880522
186.097,251.560367565
186.112,251.628525558
186.127,251.696355492
186.142,251.763858342
186.157,251.831035132
186.172,251.897886858
186.187,251.964414551
186.202,252.030619223
186.217,252.096501921
186.232,252.1620637
186.247,252.227305579
186.262,252.292228639
186.277,252.35683391
186.292,252.42112247
186.307,252.48509538
186.322,252.548753715
186.337,252.612098524
186.352,252.675130894
186.367,252.737851889
186.382,252.80026259
186.397,252.862364044
186.412,252.924157341
186.427,252.985643557
186.442,253.046823747
186.457,253.10769897
186.472,253.168270297
186.487,253.228538769
186.502,253.288505462
186.517,253.348171398
186.532,253.407537649
186.547,253.466605217
186.562,253.52537517
186.577,253.583848512
186.592,253.642026254
186.607,253.699909408
186.622,253.757498989
186.637,253.814795995
186.652,253.871801383
186.667,253.928516146
186.682,253.984941247
186.697,254.04107765
186.71,254.089496379
186.712,254.09692627
186.727,254.152488079
186.742,254.207763971
186.757,254.262754886
186.772,254.317461695
186.787,254.371885303
186.802,254.426026576
186.817,254.479886394
186.832,254.533465591
186.847,254.586765017
186.862,254.639785483
186.877,254.692527816
186.892,254.744992784
186.907,254.797181199
186.922,254.849093818
186.937,254.900731404
186.952,254.952094679
186.967,255.003184389
186.982,255.054001228
186.997,255.104545892
187.012,255.154819077
187.027,255.204821432
187.042,255.254553628
187.057,255.304016274
187.072,255.353210012
187.087,255.402135428
187.102,255.450793122
187.117,255.499183666
187.132,255.547307611
187.147,255.595165523
187.162,255.642757904
187.177,255.690085266
187.192,255.737148121
187.207,255.783946934
187.222,255.830482191
187.237,255.87675432
187.252,255.922763766
187.267,255.96851097
187.282,256.013996293
187.297,256.05922015
187.312,256.104182922
187.327,256.148884964
187.342,256.193326623
187.357,256.23750822
187.372,256.281430078
187.387,256.325092507
187.402,256.368495804
187.417,256.411640212
187.432,256.454526024
187.447,256.497153479
187.46,256.533888467
187.462,256.539522799
187.477,256.581634226
187.492,256.623487964
187.507,256.665084208
187.522,256.706423131
187.537,256.747504922
187.552,256.78832973
187.567,256.828897707
187.582,256.869208985
187.597,256.909263696
187.612,256.949061967
187.627,256.988603867
187.642,257.027889527
187.657,257.066919001
187.672,257.105692376
187.687,257.144209713
187.702,257.182471065
187.717,257.220476484
187.732,257.258225991
187.747,257.295719625
187.762,257.33295741
187.777,257.369939347
187.792,257.406665438
187.807,257.443135681
187.822,257.479350076
187.837,257.515308594
187.852,257.551011216
187.867,257.586457907
187.882,257.621648617
187.897,257.656583337
187.912,257.691261999
187.927,257.725684548
187.942,257.759850929
187.957,257.793761086
187.972,257.827414948
187.987,257.860812446
188.002,257.893953511
188.017,257.926838073
188.032,257.959466023
188.047,257.991837302
188.062,258.023951828
188.077,258.055809511
188.092,258.087410254
188.107,258.118753967
188.122,258.14984058
188.137,258.180669975
188.152,258.211242079
188.167,258.241556783
188.182,258.271613993
188.197,258.30141364
188.21,258.327031563
188.212,258.330955597
188.227,258.360239808
188.242,258.389266156
188.257,258.418034561
188.272,258.446544933
188.287,258.47479719
188.302,258.502791238
188.317,258.530527012
188.332,258.558004405
188.347,258.585223374
188.362,258.612183822
188.377,258.63888569
188.392,258.665328902
188.407,258.691513391
188.422,258.71743911
188.437,258.743106001
188.452,258.768514011
188.467,258.793663096
188.482,258.818553209
188.497,258.84318431
188.512,258.867556374
188.527,258.891669379
188.542,258.91552329
188.557,258.939118109
188.572,258.962453827
188.587,258.985530423
188.602,259.008347919
188.617,259.03090631
188.632,259.053205614
188.647,259.075245868
188.66,259.094137885
188.662,259.097027086
188.677,259.118549322
188.692,259.139812601
188.707,259.160816993
188.722,259.181562533
188.737,259.202049314
