# 10410 EDZE Essen Observations at 12Z 29 Apr 2019
Frequency [GHz],TB
175.31,266.824563027
175.322,266.825249076
175.337,266.82591728
175.352,266.826374407
175.367,266.826619725
175.382,266.826652495
175.397,266.826472012
175.412,266.826077548
175.427,266.825468389
175.442,266.824643829
175.457,266.823603163
175.472,266.822345694
175.487,266.820870729
175.502,266.819177575
175.517,266.817265557
175.532,266.815133995
175.547,266.812782213
175.562,266.810209552
175.577,266.807415352
175.592,266.804398954
175.607,266.801159712
175.622,266.797696985
175.637,266.794010134
175.652,266.79009853
175.667,266.785961549
175.682,266.781598571
175.697,266.777008998
175.712,266.772192212
175.727,266.767147617
175.742,266.761874624
175.757,266.756372655
175.772,266.750641123
175.787,266.744679465
175.802,266.73848711
175.817,266.732063513
175.832,266.725408117
175.847,266.718520384
175.862,266.711399777
175.877,266.704045776
175.892,266.696457858
175.907,266.688635508
175.922,266.680578231
175.937,266.672285531
175.952,266.663756918
175.967,266.654991907
175.982,266.645990039
175.997,266.636750842
176.012,266.627273865
176.027,266.617558661
176.042,266.607604793
176.057,266.597411825
176.072,266.586979348
176.087,266.576306945
176.102,266.565394213
176.117,266.554240757
176.132,266.542846189
176.147,266.531210142
176.162,266.519332237
176.177,266.507212125
176.192,266.494849457
176.207,266.482243886
176.222,266.46939509
176.237,266.456302739
176.252,266.442966533
176.267,266.429386164
176.282,266.415561341
176.297,266.401491783
176.31,266.389099989
176.312,266.387177212
176.327,266.372617371
176.342,266.357812015
176.357,266.342760885
176.372,266.327463761
176.387,266.311920408
176.402,266.296130628
176.417,266.280094205
176.432,266.263810956
176.447,266.247280697
176.46,266.232754531
176.462,266.230503249
176.477,266.213478463
176.492,266.19620618
176.507,266.178686261
176.522,266.16091858
176.537,266.142903008
176.552,266.124639452
176.567,266.106127797
176.582,266.087367967
176.597,266.068359877
176.612,266.049103466
176.627,266.029598678
176.642,266.009845463
176.657,265.989843794
176.672,265.969593643
176.687,265.949095
176.702,265.92834786
176.717,265.907352238
176.732,265.886108142
176.747,265.86461562
176.762,265.842874698
176.777,265.820885436
176.792,265.798647893
176.807,265.776162151
176.822,265.753428283
176.837,265.730446396
176.852,265.707216587
176.867,265.683738981
176.882,265.660013703
176.897,265.63604089
176.912,265.611820695
176.927,265.587353273
176.942,265.562638804
176.957,265.537677456
176.972,265.512469435
176.987,265.487014931
177.002,265.46131417
177.017,265.435367367
177.032,265.409174761
177.047,265.382736591
177.062,265.356053112
177.077,265.329124601
177.092,265.30195132
177.107,265.274533558
177.122,265.246871619
177.137,265.218965795
177.152,265.190816409
177.167,265.162423783
177.182,265.133788264
177.197,265.104910184
177.21,265.079686588
177.212,265.075789902
177.227,265.046427784
177.242,265.016824204
177.257,264.986979547
177.272,264.956894194
177.287,264.926568559
177.302,264.896003047
177.31,264.879603505
177.317,264.865198082
177.332,264.834154087
177.347,264.802871504
177.362,264.771350778
177.377,264.739592358
177.392,264.707596712
177.407,264.675364314
177.422,264.642895635
177.437,264.610191165
177.452,264.577251407
177.467,264.544076851
177.482,264.510668011
177.497,264.477025405
177.512,264.443149564
177.527,264.409041015
177.542,264.374700296
177.557,264.340127949
177.572,264.30532453
177.587,264.270290604
177.602,264.235026732
177.617,264.199533477
177.632,264.163811424
177.647,264.127861154
177.66,264.09652011
177.662,264.091683259
177.677,264.055278327
177.692,264.018646961
177.707,263.981789761
177.722,263.944707342
177.737,263.907400313
177.752,263.869869293
177.767,263.8321149
177.782,263.794137768
177.797,263.755938524
177.812,263.717517799
177.827,263.678876234
177.842,263.640014465
177.857,263.60093314
177.872,263.561632897
177.887,263.522114395
177.902,263.482378276
177.917,263.442425198
177.932,263.402255814
177.947,263.361870786
177.96,263.326696496
177.962,263.321270759
177.977,263.280456405
177.992,263.239428375
178.007,263.19818734
178.022,263.15673395
178.037,263.115068872
178.052,263.073192767
178.067,263.031106297
178.082,262.988810122
178.097,262.946304902
178.112,262.903591296
178.127,262.860669969
178.142,262.817541566
178.157,262.774206749
178.172,262.730666172
178.187,262.68692048
178.202,262.642970325
178.217,262.598816357
178.232,262.554459213
178.247,262.509899536
178.262,262.465137959
178.277,262.420175123
178.292,262.375011646
178.307,262.329648166
178.322,262.284085296
178.337,262.238323652
178.352,262.192363848
178.367,262.146206486
178.382,262.09985217
178.397,262.0533015
178.41,262.012799205
178.412,262.006555059
178.427,261.959613434
178.442,261.912477203
178.457,261.865146933
178.472,261.817623197
178.487,261.769906543
178.502,261.72199753
178.517,261.673896696
178.532,261.625604575
178.547,261.577121701
178.562,261.528448591
178.577,261.479585754
178.592,261.430533692
178.607,261.38129291
178.622,261.331863882
178.637,261.282247086
178.652,261.232442997
178.667,261.182452066
178.682,261.132274744
178.697,261.08191147
178.712,261.031362668
178.727,260.98062876
178.742,260.929710157
178.757,260.878607249
178.772,260.827320429
178.787,260.775850067
178.802,260.724196535
178.817,260.672360177
178.832,260.62034134
178.847,260.568140357
178.862,260.515757543
178.877,260.463193204
178.892,260.410447638
178.907,260.357521123
178.922,260.304413932
178.937,260.251126321
178.952,260.197658538
178.967,260.144010817
178.982,260.090183376
178.997,260.036176418
179.012,259.981990141
179.027,259.927624724
179.042,259.873080334
179.057,259.81835713
179.072,259.763455245
179.087,259.708374812
179.102,259.653115941
179.117,259.597678738
179.132,259.542063276
179.147,259.486269637
179.16,259.43777107
179.162,259.430297878
179.177,259.374148042
179.192,259.317820157
179.207,259.261314235
179.222,259.204630288
179.237,259.147768295
179.252,259.090728232
179.267,259.033510053
179.282,258.976113706
179.297,258.918539115
179.312,258.8607862
179.327,258.802854864
179.342,258.744744979
179.357,258.686456424
179.372,258.627989061
179.387,258.569342719
179.402,258.510517234
179.417,258.451512412
179.432,258.392328047
179.447,258.332963927
179.462,258.273419816
179.477,258.213695466
179.492,258.153790615
179.507,258.093704982
179.522,258.033438275
179.537,257.972990187
179.552,257.912360392
179.567,257.851548554
179.582,257.790554322
179.597,257.729377322
179.612,257.668017179
179.627,257.60647348
179.642,257.544745822
179.657,257.482833772
179.672,257.420736892
179.687,257.358454714
179.702,257.295986764
179.717,257.233332556
179.732,257.170491583
179.747,257.107463325
179.762,257.04424724
179.777,256.98084278
179.792,256.917249381
179.807,256.853466459
179.822,256.789493414
179.837,256.72532963
179.852,256.660974486
179.867,256.596427325
179.882,256.531687496
179.897,256.466754317
179.91,256.41032196
179.912,256.401627094
179.927,256.336305125
179.942,256.270787679
179.957,256.20507402
179.972,256.139163393
179.987,256.073055015
180.002,256.006748104
180.017,255.940241856
180.032,255.873535443
180.047,255.806628032
180.062,255.739518757
180.077,255.672206755
180.092,255.604691136
180.107,255.536970989
180.122,255.469045393
180.137,255.400913401
180.152,255.332574061
180.167,255.264026392
180.182,255.195269403
180.197,255.126302078
180.212,255.057123394
180.227,254.987732287
180.242,254.918127704
180.257,254.848308553
180.272,254.77827373
180.287,254.708022114
180.302,254.637552556
180.317,254.566863898
180.332,254.495954963
180.347,254.42482454
180.362,254.353471411
180.377,254.281894334
180.392,254.210092047
180.407,254.138063267
180.422,254.065806691
180.437,253.993320995
180.452,253.920604833
180.467,253.847656827
180.482,253.774475605
180.497,253.701059748
180.512,253.627407819
180.527,253.553518367
180.542,253.479389913
180.557,253.405020958
180.56,253.390118173
180.572,253.330409978
180.587,253.255555422
180.602,253.180455728
180.617,253.105109295
180.632,253.02951451
180.647,252.953669729
180.66,252.887734084
180.662,252.87757329
180.677,252.801223503
180.692,252.724618656
180.707,252.647757012
180.722,252.570636805
180.737,252.493256254
180.752,252.415613543
180.767,252.337706845
180.782,252.259534285
180.797,252.181093997
180.812,252.102384058
180.827,252.023402538
180.842,251.944147485
180.857,251.864616908
180.872,251.784808807
180.887,251.704721148
180.902,251.624351881
180.917,251.543698921
180.932,251.46276018
180.947,251.381533522
180.962,251.30001681
180.977,251.218207872
180.992,251.136104528
181.007,251.053704555
181.022,250.971005733
181.037,250.888005813
181.052,250.804702524
181.067,250.721093583
181.082,250.63717668
181.097,250.552949503
181.112,250.468409719
181.127,250.383554975
181.142,250.298382915
181.157,250.212891165
181.172,250.127077345
181.187,250.040939063
181.202,249.954473926
181.217,249.867679527
181.232,249.78055346
181.247,249.693093321
181.262,249.6052967
181.277,249.517161192
181.292,249.428684404
181.307,249.339863938
181.31,249.322058393
181.322,249.250697413
181.337,249.161182463
181.352,249.071316731
181.367,248.981097878
181.382,248.890523597
181.397,248.799591596
181.412,248.708299612
181.427,248.616645416
181.442,248.524626821
181.457,248.432241665
181.472,248.339487843
181.487,248.246363297
181.502,248.15286601
181.517,248.058994041
181.532,247.964745499
181.547,247.870118557
181.562,247.775111479
181.577,247.679722595
181.592,247.583950319
181.607,247.487793168
181.622,247.391249742
181.637,247.294318755
181.652,247.196999035
181.667,247.099289522
181.682,247.001189278
181.697,246.902697516
181.712,246.803813574
181.727,246.704536957
181.742,246.604867315
181.757,246.50480447
181.772,246.404348431
181.787,246.303499393
181.802,246.202257741
181.817,246.100624084
181.832,245.998599234
181.847,245.896184247
181.862,245.793380419
181.877,245.690189305
181.892,245.586612721
181.907,245.482652766
181.922,245.378311845
181.937,245.273592665
181.952,245.168498246
181.967,245.063031966
181.982,244.957197544
181.997,244.850999075
182.012,244.744441032
182.027,244.637528307
182.042,244.530266198
182.057,244.422660453
182.06,244.4010986
182.072,244.314717261
182.087,244.206443314
182.102,244.097845776
182.117,243.988932339
182.132,243.879711228
182.147,243.770191231
182.162,243.660381704
182.177,243.55029262
182.192,243.439934562
182.207,243.329318773
182.222,243.218457149
182.237,243.107362295
182.252,242.996047527
182.267,242.884526895
182.282,242.772815231
182.297,242.660928139
182.312,242.548882043
182.327,242.436694205
182.342,242.324382745
182.357,242.211966665
182.372,242.099465871
182.387,241.986901197
182.402,241.874294419
182.417,241.761668275
182.432,241.649046494
182.447,241.536453787
182.462,241.423915883
182.477,241.311459514
182.492,241.199112438
182.507,241.086903443
182.522,240.974862321
182.537,240.863019877
182.552,240.751407911
182.567,240.640059189
182.582,240.529007416
182.597,240.418287182
182.612,240.307933937
182.627,240.197983879
182.642,240.088473927
182.657,239.979441568
182.672,239.870924786
182.687,239.762961873
182.702,239.655591312
182.717,239.548851539
182.732,239.44278073
182.747,239.337416505
182.762,239.232795642
182.777,239.128953659
182.792,239.025924417
182.807,238.923739546
182.822,238.822427881
182.837,238.722014724
182.852,238.622520995
182.867,238.523962234
182.882,238.426347382
182.897,238.329677396
182.912,238.233943483
182.927,238.139125075
182.942,238.045187283
182.957,237.952077826
182.972,237.859723255
182.987,237.768024219
183.002,237.676849588
183.017,237.586029007
183.032,237.495343382
183.047,237.40451269
183.062,237.31318012
183.077,237.220891252
183.092,237.12706656
183.107,237.030964681
183.122,236.931633055
183.137,236.827841401
183.152,236.717992073
183.167,236.600000941
183.182,236.471144513
183.197,236.32788115
183.212,236.165695176
183.227,235.979136083
183.242,235.7625697
183.257,235.513025915
183.367,235.566211144
183.382,235.804263787
183.397,236.009571064
183.412,236.186245669
183.427,236.340016712
183.442,236.476121269
183.457,236.598815985
183.472,236.711415925
183.487,236.816464936
183.502,236.915909832
183.517,237.011244525
183.532,237.103621042
183.547,237.193932589
183.562,237.282875226
183.577,237.370993585
183.592,237.458714961
183.607,237.546374923
183.622,237.634236682
183.637,237.722505947
183.652,237.811342335
183.667,237.9008683
183.682,237.991176133
183.697,238.082333547
183.712,238.1743881
183.727,238.267370801
183.742,238.36129903
183.757,238.45617894
183.772,238.55200741
183.787,238.648773691
183.802,238.746460779
183.817,238.845046545
183.832,238.944504697
183.847,239.044805606
183.862,239.14591699
183.877,239.2478045
183.892,239.350432215
183.907,239.453763067
183.922,239.557759207
183.937,239.662382318
183.952,239.767593868
183.967,239.873355348
183.982,239.979628447
183.997,240.086375224
184.012,240.19355824
184.027,240.301140666
184.042,240.409086392
184.057,240.5173601
184.072,240.625927305
184.087,240.734754441
184.102,240.843808874
184.117,240.953058952
184.132,241.062473998
184.147,241.172024361
184.162,241.281681399
184.177,241.391417477
184.192,241.501205992
184.207,241.611021348
184.222,241.720838938
184.237,241.830635152
184.252,241.940387357
184.267,242.050073868
184.282,242.159673941
184.297,242.269167742
184.312,242.37853635
184.327,242.487761697
184.342,242.596826578
184.357,242.705714615
184.372,242.814410235
184.387,242.92289864
184.402,243.031165791
184.417,243.139198377
184.432,243.246983806
184.447,243.354510155
184.462,243.461766182
184.477,243.568741272
184.492,243.675425423
184.507,243.78180924
184.522,243.887883883
184.537,243.993641071
184.552,244.099073061
184.56,244.155167962
184.567,244.204172606
184.582,244.308932957
184.597,244.41334783
184.612,244.517411402
184.627,244.621118272
184.642,244.724463465
184.657,244.827442396
184.672,244.930050866
184.687,245.032285043
184.702,245.134141448
184.717,245.235616921
184.732,245.336708646
184.747,245.437414096
184.762,245.537731042
184.777,245.63765753
184.792,245.73719188
184.807,245.836332665
184.822,245.935078687
184.837,246.033428995
184.852,246.131382853
184.867,246.228939723
184.882,246.326099276
184.897,246.422861371
184.912,246.51922604
184.927,246.615193492
184.942,246.710764086
184.957,246.805938338
184.972,246.900716916
184.987,246.995100604
185.002,247.089090331
185.017,247.182687139
185.032,247.275892187
185.047,247.368706736
185.062,247.461132149
185.077,247.553169886
185.092,247.644821491
185.107,247.736088583
185.122,247.826972876
185.137,247.917476136
185.152,248.007600203
185.167,248.09734698
185.182,248.186718422
185.197,248.275716538
185.212,248.364343379
185.227,248.452601049
185.242,248.540491681
185.257,248.628017455
185.272,248.715180567
185.287,248.801983262
185.302,248.888427793
185.31,248.934385877
185.317,248.974516438
185.332,249.060251506
185.347,249.14563531
185.362,249.23067018
185.377,249.315358461
185.392,249.399702503
185.407,249.483704658
185.422,249.567367301
185.437,249.650692779
185.452,249.733683473
185.467,249.81634173
185.482,249.898669923
185.497,249.9806704
185.512,250.062345509
185.527,250.143697593
185.542,250.22472898
185.557,250.305442
185.572,250.385838955
185.587,250.465922139
185.602,250.545693846
185.617,250.625156337
185.632,250.704311864
185.647,250.783162668
185.662,250.861710967
185.677,250.939958965
185.692,251.017908844
185.707,251.095562764
185.722,251.172922879
185.737,251.249991305
185.752,251.326770154
185.767,251.403261506
185.782,251.479467425
185.797,251.555389949
185.812,251.631031102
185.827,251.70639288
185.842,251.781477261
185.857,251.856286193
185.872,251.930821614
185.887,252.005085424
185.902,252.079079516
185.917,252.152805752
185.932,252.226265974
185.947,252.299462001
185.96,252.362686239
185.962,252.372395627
185.977,252.445068625
185.992,252.517482745
186.007,252.589639716
186.022,252.661541248
186.037,252.733189026
186.052,252.804584709
186.06,252.842559896
186.067,252.875729938
186.082,252.946626327
186.097,253.017275484
186.112,253.087678978
186.127,253.157838366
186.142,253.227755179
186.157,253.297430934
186.172,253.366867116
186.187,253.436065209
186.202,253.505026656
186.217,253.573752883
186.232,253.642245315
186.247,253.710505339
186.262,253.778534328
186.277,253.846333634
186.292,253.913904594
186.307,253.981248522
186.322,254.04836672
186.337,254.115260464
186.352,254.181931019
186.367,254.248379622
186.382,254.314607512
186.397,254.380615883
186.412,254.446405936
186.427,254.511978849
186.442,254.577335772
186.457,254.642477847
186.472,254.707406204
186.487,254.772121948
186.502,254.836626173
186.517,254.900919964
186.532,254.965004371
186.547,255.028880448
186.562,255.092549231
186.577,255.156011726
186.592,255.219268944
186.607,255.282321862
186.622,255.345171466
186.637,255.407818701
186.652,255.470264521
186.667,255.532509853
186.682,255.594555612
186.697,255.656402707
186.71,255.709843508
186.712,255.718052019
186.727,255.77950443
186.742,255.840760799
186.757,255.901821979
186.772,255.962688805
186.787,256.0233621
186.802,256.083842678
186.817,256.144131331
186.832,256.204228856
186.847,256.264136012
186.862,256.32385357
186.877,256.383382277
186.892,256.442722873
186.907,256.501876077
186.922,256.560842607
186.937,256.619623159
186.952,256.678218426
186.967,256.736629087
186.982,256.794855806
186.997,256.852899239
187.012,256.910760027
187.027,256.968438807
187.042,257.025936202
187.057,257.083252812
187.072,257.140389242
187.087,257.197346082
187.102,257.254123904
187.117,257.310723273
187.132,257.36714475
187.147,257.423388874
187.162,257.479456182
187.177,257.535347199
187.192,257.591062428
187.207,257.646602379
187.222,257.701967544
187.237,257.757158401
187.252,257.812175418
187.267,257.867019059
187.282,257.921689775
187.297,257.976188003
187.312,258.030514174
187.327,258.08466871
187.342,258.138652015
187.357,258.192464496
187.372,258.246106536
187.387,258.299578518
187.402,258.352880812
187.417,258.406013773
187.432,258.458977761
187.447,258.51177311
187.46,258.557392926
187.462,258.564400152
187.477,258.616859213
187.492,258.669150601
187.507,258.721274617
187.522,258.773231558
187.537,258.825021706
187.552,258.876645339
187.567,258.928102721
187.582,258.979394104
187.597,259.03051974
187.612,259.081479865
187.627,259.132274709
187.642,259.182904497
187.657,259.233369432
187.672,259.28366972
187.687,259.333805561
187.702,259.383777134
187.717,259.433584613
187.732,259.483228178
187.747,259.532707981
187.762,259.582024175
187.777,259.631176902
187.792,259.680166299
187.807,259.728992497
187.822,259.777655609
187.837,259.826155748
187.852,259.874493019
187.867,259.922667519
187.882,259.970679338
187.897,260.018528549
187.912,260.066215232
187.927,260.113739445
187.942,260.161101258
187.957,260.208300712
187.972,260.255337855
187.987,260.302212723
188.002,260.348925349
188.017,260.395475753
188.032,260.441863952
188.047,260.488089964
188.062,260.53415378
188.077,260.580055409
188.092,260.625794834
188.107,260.671372042
188.122,260.716787008
188.137,260.762039715
188.152,260.807130122
188.167,260.852058191
188.182,260.896823879
188.197,260.941427136
188.21,260.979951863
188.212,260.985867911
188.227,261.030146133
188.242,261.074261747
188.257,261.118214676
188.272,261.162004851
188.287,261.205632184
188.302,261.249096593
188.317,261.292397987
188.332,261.335536284
188.347,261.378511369
188.362,261.42132315
188.377,261.463971518
188.392,261.506456361
188.407,261.548777568
188.422,261.590935023
188.437,261.632928602
188.452,261.674758176
188.467,261.716423627
188.482,261.757924816
188.497,261.799261615
188.512,261.840433886
188.527,261.881441487
188.542,261.922284279
188.557,261.962962114
188.572,262.003474848
188.587,262.043822327
188.602,262.08400441
188.617,262.124020932
188.632,262.163871746
188.647,262.203556694
188.66,262.237816023
188.662,262.243075614
188.677,262.282428351
188.692,262.32161474
188.707,262.36063462
188.722,262.399487829
188.737,262.438174202
