# 01004 ENAS Ny-Alesund Ii Observations at 12Z 28 Nov 2019
Frequency [GHz],TB
175.31,198.848032648
175.322,198.910257885
175.337,198.988270467
175.352,199.066540473
175.367,199.145068681
175.382,199.223855853
175.397,199.302902766
175.412,199.382210184
175.427,199.461778873
175.442,199.541609599
175.457,199.621703127
175.472,199.702060215
175.487,199.782681629
175.502,199.863568123
175.517,199.944720459
175.532,200.026139391
175.547,200.107825671
175.562,200.189780051
175.577,200.272003282
175.592,200.354496113
175.607,200.437259287
175.622,200.520293548
175.637,200.603599635
175.652,200.687178287
175.667,200.771030242
175.682,200.855156233
175.697,200.939556986
175.712,201.024233228
175.727,201.109185691
175.742,201.194415088
175.757,201.279922142
175.772,201.365707568
175.787,201.451772077
175.802,201.538116377
175.817,201.624741171
175.832,201.711647161
175.847,201.798835045
175.862,201.886305512
175.877,201.97405926
175.892,202.062096967
175.907,202.150419314
175.922,202.239026979
175.937,202.327920639
175.952,202.417100951
175.967,202.506568585
175.982,202.5963242
175.997,202.686368442
176.012,202.776701961
176.027,202.867325399
176.042,202.958239396
176.057,203.049444585
176.072,203.140941585
176.087,203.232731021
176.102,203.324813505
176.117,203.417189644
176.132,203.509860045
176.147,203.602825295
176.162,203.69608599
176.177,203.789642706
176.192,203.883496023
176.207,203.977646506
176.222,204.07209472
176.237,204.16684121
176.252,204.261886536
176.267,204.357231223
176.282,204.452875809
176.297,204.548820813
176.31,204.632216556
176.312,204.645066752
176.327,204.741614131
176.342,204.838463448
176.357,204.935615191
176.372,205.033069842
176.387,205.13082787
176.402,205.228889739
176.417,205.327255895
176.432,205.425926787
176.447,205.524902845
176.46,205.610929266
176.462,205.62418449
176.477,205.723772136
176.492,205.823666187
176.507,205.923867031
176.522,206.024375049
176.537,206.125190611
176.552,206.226314073
176.567,206.327745782
176.582,206.429486075
176.597,206.531535271
176.612,206.633893684
176.627,206.736561611
176.642,206.839539332
176.657,206.942827131
176.672,207.046425254
176.687,207.150333957
176.702,207.254553468
176.717,207.359084006
176.732,207.463925774
176.747,207.569078964
176.762,207.674543753
176.777,207.780320299
176.792,207.886408744
176.807,207.992809224
176.822,208.09952185
176.837,208.206546722
176.852,208.313883918
176.867,208.42153351
176.882,208.529495541
176.897,208.637770044
176.912,208.746357036
176.927,208.855256509
176.942,208.964468446
176.957,209.073992805
176.972,209.183829527
176.987,209.293978538
177.002,209.404439739
177.017,209.515213014
177.032,209.626298229
177.047,209.73769523
177.062,209.849403838
177.077,209.961423856
177.092,210.073755063
177.107,210.186397227
177.122,210.299350082
177.137,210.412613346
177.152,210.526186714
177.167,210.640069855
177.182,210.754262419
177.197,210.868764028
177.21,210.968248432
177.212,210.983574283
177.227,211.098692765
177.242,211.214119024
177.257,211.329852583
177.272,211.445892948
177.287,211.56223959
177.302,211.678891965
177.31,211.741231376
177.317,211.795849491
177.332,211.913111569
177.347,212.030677562
177.362,212.148546815
177.377,212.266718644
177.392,212.385192326
177.407,212.503967123
177.422,212.62304226
177.437,212.742416933
177.452,212.862090308
177.467,212.982061528
177.482,213.102329688
177.497,213.222893869
177.512,213.343753107
177.527,213.464906418
177.542,213.586352774
177.557,213.708091124
177.572,213.830120375
177.587,213.952439397
177.602,214.075047044
177.617,214.197942111
177.632,214.321123381
177.647,214.444589579
177.66,214.551823091
177.662,214.56833941
177.677,214.69237153
177.692,214.816684573
177.707,214.941277118
177.722,215.066147716
177.737,215.19129488
177.752,215.316717081
177.767,215.442412745
177.782,215.568380267
177.797,215.694617997
177.812,215.821124244
177.827,215.947897275
177.842,216.074935317
177.857,216.202236549
177.872,216.329799115
177.887,216.457621107
177.902,216.58570058
177.917,216.714035538
177.932,216.842623944
177.947,216.971463711
177.96,217.083326522
177.962,217.10055271
177.977,217.229888768
177.992,217.359469656
178.007,217.489293102
178.022,217.619356787
178.037,217.749658337
178.052,217.880195339
178.067,218.01096532
178.082,218.141965761
178.097,218.273194091
178.112,218.404647691
178.127,218.536323883
178.142,218.66821994
178.157,218.800333086
178.172,218.932660485
178.187,219.065199248
178.202,219.197946436
178.217,219.330899046
178.232,219.464054028
178.247,219.597408275
178.262,219.730958609
178.277,219.864701816
178.292,219.998634611
178.307,220.132753651
178.322,220.267055541
178.337,220.401536817
178.352,220.536193962
178.367,220.671023397
178.382,220.806021476
178.397,220.941184506
178.41,221.05845631
178.412,221.076508715
178.427,221.211990277
178.442,221.347625303
178.457,221.48340984
178.472,221.619339869
178.487,221.755411308
178.502,221.891620008
178.517,222.027961758
178.532,222.164432278
178.547,222.301027225
178.562,222.43774218
178.577,222.574572671
178.592,222.711514145
178.607,222.848561989
178.622,222.985711516
178.637,223.122957972
178.652,223.260296539
178.667,223.397722313
178.682,223.53523034
178.697,223.672815581
178.712,223.810472928
178.727,223.948197212
178.742,224.085983176
178.757,224.2238255
178.772,224.361718791
178.787,224.499657583
178.802,224.637636334
178.817,224.775649432
178.832,224.913691189
178.847,225.051755843
178.862,225.189837554
178.877,225.327930416
178.892,225.466028446
178.907,225.604125576
178.922,225.742215674
178.937,225.880292532
178.952,226.018349855
178.967,226.156381289
178.982,226.294380388
178.997,226.432340643
179.012,226.570255457
179.027,226.708118167
179.042,226.84592203
179.057,226.983660224
179.072,227.121325851
179.087,227.258911945
179.102,227.396411454
179.117,227.53381725
179.132,227.671122136
179.147,227.808318834
179.16,227.927129446
179.162,227.945399991
179.177,228.082358176
179.192,228.219185887
179.207,228.355875543
179.222,228.49241949
179.237,228.628809997
179.252,228.765039255
179.267,228.901099392
179.282,229.03698245
179.297,229.172680403
179.312,229.308185153
179.327,229.443488528
179.342,229.578582282
179.357,229.713458095
179.372,229.848107581
179.387,229.982522284
179.402,230.116693671
179.417,230.250613147
179.432,230.384272041
179.447,230.517661618
179.462,230.650773081
179.477,230.783597554
179.492,230.916126103
179.507,231.048349733
179.522,231.180259377
179.537,231.311845908
179.552,231.443100138
179.567,231.574012815
179.582,231.704574632
179.597,231.834776221
179.612,231.964608151
179.627,232.094060946
179.642,232.223125061
179.657,232.351790908
179.672,232.480048841
179.687,232.607889168
179.702,232.735302136
179.717,232.862277956
179.732,232.988806786
179.747,233.114878739
179.762,233.240483886
179.777,233.365612251
179.792,233.490253827
179.807,233.614398561
179.822,233.738036365
179.837,233.861157116
179.852,233.983750658
179.867,234.105806804
179.882,234.227315337
179.897,234.348266018
179.91,234.452630764
179.912,234.468648576
179.927,234.58845272
179.942,234.70766814
179.957,234.826284503
179.972,234.944291469
179.987,235.061678672
180.002,235.178435746
180.017,235.294552308
180.032,235.410017975
180.047,235.524822355
180.062,235.638955057
180.077,235.75240569
180.092,235.865163872
180.107,235.97721922
180.122,236.088561367
180.137,236.199179957
180.152,236.309064647
180.167,236.418205114
180.182,236.526591056
180.197,236.634212197
180.212,236.741058282
180.227,236.847119096
180.242,236.95238445
180.257,237.056844194
180.272,237.160488222
180.287,237.263306462
180.302,237.365288896
180.317,237.466425555
180.332,237.566706519
180.347,237.666121928
180.362,237.764661985
180.377,237.862316949
180.392,237.959077153
180.407,238.054932994
180.422,238.14987495
180.437,238.243893572
180.452,238.336979494
180.467,238.429123433
180.482,238.520316196
180.497,238.610548684
180.512,238.69981189
180.527,238.788096908
180.542,238.875394938
180.557,238.961697282
180.56,238.978837511
180.572,239.046995357
180.587,239.13128069
180.602,239.214544933
180.617,239.296779849
180.632,239.377977337
180.647,239.45812942
180.66,239.526742877
180.662,239.537228256
180.677,239.615266137
180.692,239.692235498
180.707,239.768128913
180.722,239.842939112
180.737,239.91665897
180.752,239.989281517
180.767,240.060799943
180.782,240.131207601
180.797,240.200498006
180.812,240.268664846
180.827,240.335701978
180.842,240.401603436
180.857,240.466363433
180.872,240.529976367
180.887,240.592436814
180.902,240.653739552
180.917,240.713879537
180.932,240.772851927
180.947,240.83065208
180.962,240.887275551
180.977,240.942718101
180.992,240.9969757
181.007,241.050044521
181.022,241.101920956
181.037,241.152601611
181.052,241.202083306
181.067,241.250363086
181.082,241.29743821
181.097,241.343306171
181.112,241.387964683
181.127,241.431411693
181.142,241.473645375
181.157,241.514664137
181.172,241.554466622
181.187,241.593051709
181.202,241.630418518
181.217,241.666566403
181.232,241.701494962
181.247,241.735204034
181.262,241.767693704
181.277,241.7989643
181.292,241.829016394
181.307,241.857850805
181.31,241.863471656
181.322,241.885468601
181.337,241.911871097
181.352,241.937059855
181.367,241.961036687
181.382,241.983803654
181.397,242.005363068
181.412,242.025717487
181.427,242.044869723
181.442,242.062822833
181.457,242.079580128
181.472,242.095145163
181.487,242.109521748
181.502,242.122713937
181.517,242.134726031
181.532,242.145562583
181.547,242.155228386
181.562,242.163728482
181.577,242.171068159
181.592,242.177252947
181.607,242.182288618
181.622,242.186181185
181.637,242.188936904
181.652,242.190562267
181.667,242.191064007
181.682,242.190449089
181.697,242.188724717
181.712,242.185898327
181.727,242.181977583
181.742,242.176970387
181.757,242.170884863
181.772,242.163729364
181.787,242.155512471
181.802,242.146242985
181.817,242.135929931
181.832,242.124582555
181.847,242.11221032
181.862,242.098822905
181.877,242.084430209
181.892,242.069042339
181.907,242.052669617
181.922,242.035322573
181.937,242.017011947
181.952,241.997748685
181.967,241.977543937
181.982,241.956409058
181.997,241.934355602
182.012,241.911395325
182.027,241.88754018
182.042,241.862802315
182.057,241.837194074
182.06,241.83196908
182.072,241.810727993
182.087,241.783416799
182.102,241.755273405
182.117,241.726310915
182.132,241.696542613
182.147,241.665981966
182.162,241.634642622
182.177,241.602538404
182.192,241.569683306
182.207,241.536091497
182.222,241.501777307
182.237,241.46675523
182.252,241.431039918
182.267,241.394646173
182.282,241.357588944
182.297,241.319883317
182.312,241.28154451
182.327,241.242587865
182.342,241.203028832
182.357,241.162882966
182.372,241.122165907
182.387,241.080893369
182.402,241.039081124
182.417,240.996744978
182.432,240.953900756
182.447,240.910564273
182.462,240.866751306
182.477,240.822477567
182.492,240.777758662
182.507,240.732610052
182.522,240.687047009
182.537,240.641084558
182.552,240.594737426
182.567,240.548019967
182.582,240.500946089
182.597,240.453529169
182.612,240.405781948
182.627,240.357716428
182.642,240.309343736
182.657,240.260673984
182.672,240.211716104
182.687,240.162477656
182.702,240.112964617
182.717,240.063181129
182.732,240.013129221
182.747,239.962808482
182.762,239.912215689
182.777,239.86134437
182.792,239.810184313
182.807,239.758720976
182.822,239.706934821
182.837,239.65480052
182.852,239.602286028
182.867,239.549351502
182.882,239.495948004
182.897,239.442015976
182.912,239.387483418
182.927,239.332263689
182.942,239.27625287
182.957,239.219326552
182.972,239.161335909
182.987,239.10210287
183.002,239.041414121
183.017,238.979013598
183.032,238.914593014
183.047,238.847779753
183.062,238.778121265
183.077,238.705064658
183.092,238.627929681
183.107,238.545872382
183.122,238.457835399
183.137,238.362478703
183.152,238.258081034
183.167,238.14239639
183.182,238.012439691
183.197,237.864157889
183.212,237.691911571
183.227,237.487640448
183.242,237.239522793
183.257,236.930012631
183.367,237.004826845
183.382,237.29440042
183.397,237.527752162
183.412,237.720757667
183.427,237.884115314
183.442,238.025163954
183.457,238.149074213
183.472,238.259586664
183.487,238.359472328
183.502,238.450826741
183.517,238.535262941
183.532,238.614041533
183.547,238.688160552
183.562,238.758418968
183.577,238.825462475
183.592,238.889817118
183.607,238.951914405
183.622,239.012110322
183.637,239.070699941
183.652,239.12792877
183.667,239.184001667
183.682,239.239089924
183.697,239.293336926
183.712,239.346862733
183.727,239.399767801
183.742,239.452136036
183.757,239.504037311
183.772,239.555529554
183.787,239.606660492
183.802,239.657469116
183.817,239.707986908
183.832,239.758238894
183.847,239.808244525
183.862,239.858018437
183.877,239.907571101
183.892,239.956909382
183.907,240.006037019
183.922,240.054955041
183.937,240.10366213
183.952,240.152154933
183.967,240.200428335
183.982,240.248475699
183.997,240.296289072
184.012,240.343859369
184.027,240.391176535
184.042,240.43822968
184.057,240.485007207
184.072,240.531496918
184.087,240.577686111
184.102,240.623561661
184.117,240.669110099
184.132,240.714317671
184.147,240.7591704
184.162,240.803654136
184.177,240.847754597
184.192,240.89145741
184.207,240.934748149
184.222,240.977612359
184.237,241.020035586
184.252,241.062003401
184.267,241.103501418
184.282,241.144515313
184.297,241.185030841
184.312,241.225033847
184.327,241.264510281
184.342,241.303446204
184.357,241.341827802
184.372,241.37964139
184.387,241.416873421
184.402,241.453510492
184.417,241.489539346
184.432,241.524946881
184.447,241.55972015
184.462,241.593846367
184.477,241.627312908
184.492,241.660107314
184.507,241.692217293
184.522,241.723630724
184.537,241.754335655
184.552,241.784320306
184.56,241.800013591
184.567,241.813573072
184.582,241.842082523
184.597,241.869837403
184.612,241.896826635
184.627,241.923039319
184.642,241.948464732
184.657,241.973092333
184.672,241.996911761
184.687,242.019912835
184.702,242.042085557
184.717,242.063420112
184.732,242.083906868
184.747,242.10353638
184.762,242.122299385
184.777,242.140186808
184.792,242.157189763
184.807,242.17329955
184.822,242.188507659
184.837,242.20280577
184.852,242.216185755
184.867,242.228639676
184.882,242.240159792
184.897,242.250738553
184.912,242.260368603
184.927,242.269042787
184.942,242.276754141
184.957,242.283495904
184.972,242.289261512
184.987,242.294044601
185.002,242.297839008
185.017,242.300638772
185.032,242.302438135
185.047,242.303231542
185.062,242.303013643
185.077,242.301779292
185.092,242.29952355
185.107,242.296241685
185.122,242.29192917
185.137,242.286581686
185.152,242.280195125
185.167,242.272765584
185.182,242.264289375
185.197,242.254763011
185.212,242.24418322
185.227,242.232546941
185.242,242.219851318
185.257,242.206093711
185.272,242.191271684
185.287,242.175383019
185.302,242.158425699
185.31,242.148944203
185.317,242.140397922
185.332,242.121298093
185.347,242.101124828
185.362,242.079876948
185.377,242.057553485
185.392,242.034153678
185.407,242.00967697
185.422,241.984123011
185.437,241.957491658
185.452,241.929782967
185.467,241.9009972
185.482,241.87113482
185.497,241.84019649
185.512,241.808183075
185.527,241.775095632
185.542,241.740935418
185.557,241.705703887
185.572,241.669402681
185.587,241.632033636
185.602,241.593598779
185.617,241.554100324
185.632,241.51354067
185.647,241.471922404
185.662,241.429248288
185.677,241.385521272
185.692,241.340744481
185.707,241.294921214
185.722,241.248054947
185.737,241.200149323
185.752,241.151208158
185.767,241.10123543
185.782,241.05023529
185.797,240.99821204
185.812,240.945170144
185.827,240.891114228
185.842,240.836049067
185.857,240.779979585
185.872,240.72291086
185.887,240.664848112
185.902,240.605796705
185.917,240.545762141
185.932,240.484750064
185.947,240.422766247
185.96,240.368265473
185.962,240.359816598
185.977,240.295907153
185.992,240.231044074
186.007,240.16523364
186.022,240.098482261
186.037,240.030796452
186.052,239.96218285
186.06,239.925211889
186.067,239.892648199
186.082,239.822199353
186.097,239.750843268
186.112,239.678587001
186.127,239.605437717
186.142,239.531402663
186.157,239.456489189
186.172,239.380704729
186.187,239.304056807
186.202,239.226553031
186.217,239.14820109
186.232,239.069008744
186.247,238.988983836
186.262,238.908134279
186.277,238.826468054
186.292,238.743993207
186.307,238.660717848
186.322,238.576650149
186.337,238.491798337
186.352,238.406170695
186.367,238.319775556
186.382,238.232621306
186.397,238.144716372
186.412,238.056069229
186.427,237.96668839
186.442,237.876582408
186.457,237.785759869
186.472,237.694229395
186.487,237.601999635
186.502,237.509079269
186.517,237.415477
186.532,237.321201555
186.547,237.226261679
186.562,237.130666136
186.577,237.034423708
186.592,236.937543186
186.607,236.840033377
186.622,236.741903089
186.637,236.643161142
186.652,236.543816358
186.667,236.443877561
186.682,236.343353578
186.697,236.242253229
186.71,236.154173524
186.712,236.140585329
186.727,236.038358695
186.742,235.935582122
186.757,235.832264408
186.772,235.728414333
186.787,235.624040658
186.802,235.51915214
186.817,235.413757507
186.832,235.307865474
186.847,235.201484732
186.862,235.094623951
186.877,234.987291776
186.892,234.879496825
186.907,234.771247694
186.922,234.66255294
186.937,234.553421096
186.952,234.443860665
186.967,234.333880112
186.982,234.22348787
186.997,234.112692336
187.012,234.001501867
187.027,233.889924784
187.042,233.777969371
187.057,233.665643866
187.072,233.552956465
187.087,233.439915328
187.102,233.326528561
187.117,233.212804235
187.132,233.098750365
187.147,232.984374926
187.162,232.869685844
187.177,232.754690991
187.192,232.639398196
187.207,232.523815233
187.222,232.407949828
187.237,232.291809653
187.252,232.175402323
187.267,232.058735408
187.282,231.941816417
187.297,231.824652805
187.312,231.707251978
187.327,231.589621278
187.342,231.471767992
187.357,231.353699355
187.372,231.235422536
187.387,231.116944655
187.402,230.998272768
187.417,230.879413871
187.432,230.760374905
187.447,230.64116275
187.46,230.53771073
187.462,230.521784224
187.477,230.402246086
187.492,230.282555032
187.507,230.162717705
187.522,230.042740677
187.537,229.922630462
187.552,229.802393519
187.567,229.682036235
187.582,229.56156494
187.597,229.440985904
187.612,229.320305332
187.627,229.199529367
187.642,229.078664091
187.657,228.957715521
187.672,228.836689615
187.687,228.715592268
187.702,228.594429307
187.717,228.473206507
187.732,228.35192957
187.747,228.230604142
187.762,228.109235805
187.777,227.987830081
187.792,227.866392426
187.807,227.744928232
187.822,227.623442837
187.837,227.501941514
187.852,227.380429467
187.867,227.258911854
187.882,227.137393752
187.897,227.015880195
187.912,226.894376146
187.927,226.772886508
187.942,226.651416128
187.957,226.529969786
187.972,226.408552206
187.987,226.287168057
188.002,226.165821941
188.017,226.044518399
188.032,225.923261918
188.047,225.802056928
188.062,225.680907794
188.077,225.559818829
188.092,225.438794287
188.107,225.31783836
188.122,225.196955184
188.137,225.076148845
188.152,224.955423364
188.167,224.834782711
188.182,224.714230794
188.197,224.59377147
188.21,224.489451231
188.212,224.473408546
188.227,224.353145762
188.242,224.232986815
188.257,224.112935338
188.272,223.992994919
188.287,223.873169085
188.302,223.753461319
188.317,223.633875039
188.332,223.514413624
188.347,223.395080392
188.362,223.275878614
188.377,223.156811509
188.392,223.037882245
188.407,222.919093939
188.422,222.800449659
188.437,222.681952423
188.452,222.563605202
188.467,222.445410919
188.482,222.32737244
188.497,222.209492599
188.512,222.091774167
188.527,221.974219879
188.542,221.856832418
188.557,221.739614422
188.572,221.622568486
188.587,221.505697152
188.602,221.389002928
188.617,221.272488272
188.632,221.156155595
188.647,221.040007268
188.66,220.939496305
188.662,220.924045621
188.677,220.808272939
188.692,220.692691462
188.707,220.577303391
188.722,220.462110889
188.737,220.347116069
