# 01004 ENAS Ny-Alesund Ii Observations at 12Z 25 Feb 2019
Frequency [GHz],TB
175.31,183.162247578
175.322,183.210990144
175.337,183.272134618
175.352,183.333520406
175.367,183.3951486
175.382,183.457020299
175.397,183.519136604
175.412,183.581498622
175.427,183.644107462
175.442,183.706964239
175.457,183.770070074
175.472,183.833426089
175.487,183.897033413
175.502,183.960893177
175.517,184.025006519
175.532,184.089374577
175.547,184.1539985
175.562,184.218879435
175.577,184.284018536
175.592,184.349416963
175.607,184.415075876
175.622,184.480996444
175.637,184.547179834
175.652,184.613627225
175.667,184.680339794
175.682,184.747318726
175.697,184.814565208
175.712,184.882080432
175.727,184.949865595
175.742,185.017921896
175.757,185.086250539
175.772,185.154852734
175.787,185.223729694
175.802,185.292882634
175.817,185.362312775
175.832,185.432021343
175.847,185.502009567
175.862,185.572278678
175.877,185.642829914
175.892,185.713664517
175.907,185.784783729
175.922,185.856188802
175.937,185.927880985
175.952,185.999861536
175.967,186.072131716
175.982,186.144692788
175.997,186.21754602
176.012,186.290692682
176.027,186.364134052
176.042,186.437871406
176.057,186.511906028
176.072,186.586239204
176.087,186.660872223
176.102,186.735806378
176.117,186.811042966
176.132,186.886583286
176.147,186.962428643
176.162,187.038580342
176.177,187.115039694
176.192,187.191808012
176.207,187.268886612
176.222,187.346276815
176.237,187.423979942
176.252,187.50199732
176.267,187.580330277
176.282,187.658980145
176.297,187.737948259
176.31,187.806645749
176.312,187.817235955
176.327,187.896844575
176.342,187.976775462
176.357,188.057029959
176.372,188.137609417
176.387,188.218515186
176.402,188.299748618
176.417,188.38131107
176.432,188.463203899
176.447,188.545428465
176.46,188.616959148
176.462,188.627986131
176.477,188.710878261
176.492,188.79410622
176.507,188.87767138
176.522,188.961575107
176.537,189.045818776
176.552,189.13040376
176.567,189.215331433
176.582,189.300603172
176.597,189.386220356
176.612,189.472184364
176.627,189.558496577
176.642,189.645158377
176.657,189.732171147
176.672,189.819536271
176.687,189.907255132
176.702,189.995329118
176.717,190.083759613
176.732,190.172548004
176.747,190.261695679
176.762,190.351204023
176.777,190.441074426
176.792,190.531308273
176.807,190.621906952
176.822,190.712871851
176.837,190.804204356
176.852,190.895905852
176.867,190.987977727
176.882,191.080421364
176.897,191.173238147
176.912,191.26642946
176.927,191.359996684
176.942,191.453941199
176.957,191.548264384
176.972,191.642967617
176.987,191.738052273
177.002,191.833519725
177.017,191.929371345
177.032,192.025608502
177.047,192.122232562
177.062,192.219244889
177.077,192.316646846
177.092,192.414439788
177.107,192.512625073
177.122,192.611204049
177.137,192.710178067
177.152,192.80954847
177.167,192.909316599
177.182,193.009483788
177.197,193.110051371
177.21,193.197534842
177.212,193.211020674
177.227,193.31239302
177.242,193.414169725
177.257,193.516352102
177.272,193.618941458
177.287,193.721939092
177.302,193.825346301
177.31,193.880664727
177.317,193.929164372
177.332,194.033394587
177.347,194.138038225
177.362,194.24309655
177.377,194.348570826
177.392,194.454462307
177.407,194.560772239
177.422,194.66750186
177.437,194.7746524
177.452,194.882225082
177.467,194.990221116
177.482,195.098641707
177.497,195.207488049
177.512,195.316761326
177.527,195.426462713
177.542,195.536593372
177.557,195.64715446
177.572,195.758147115
177.587,195.869572472
177.602,195.981431647
177.617,196.093725749
177.632,196.206455872
177.647,196.3196231
177.66,196.41805576
177.662,196.433228501
177.677,196.547273131
177.692,196.661758033
177.707,196.776684233
177.722,196.892052746
177.737,197.00786457
177.752,197.124120688
177.767,197.240822068
177.782,197.357969661
177.797,197.475564402
177.812,197.59360721
177.827,197.712098983
177.842,197.831040605
177.857,197.950432941
177.872,198.070276837
177.887,198.190573118
177.902,198.311322592
177.917,198.432526048
177.932,198.554184249
177.947,198.676297943
177.96,198.782498813
177.962,198.798867853
177.977,198.921894682
177.992,199.045379108
178.007,199.169321788
178.022,199.293723356
178.037,199.418584421
178.052,199.543905567
178.067,199.669687351
178.082,199.795930311
178.097,199.922634951
178.112,200.049801754
178.127,200.177431171
178.142,200.305523631
178.157,200.434079527
178.172,200.563099228
178.187,200.692583074
178.202,200.822531371
178.217,200.952944398
178.232,201.083822397
178.247,201.215165585
178.262,201.346974139
178.277,201.479248208
178.292,201.611987905
178.307,201.745193307
178.322,201.878864458
178.337,202.013001361
178.352,202.14760399
178.367,202.282672273
178.382,202.418206106
178.397,202.554205343
178.41,202.672447667
178.412,202.690669799
178.427,202.827599249
178.442,202.964993426
178.457,203.102852021
178.472,203.241174682
178.487,203.379961016
178.502,203.519210583
178.517,203.6589229
178.532,203.799097434
178.547,203.939733611
178.562,204.080830806
178.577,204.222388347
178.592,204.364405513
178.607,204.50688153
178.622,204.649815578
178.637,204.793206781
178.652,204.937054215
178.667,205.081356897
178.682,205.226113794
178.697,205.371323817
178.712,205.51698582
178.727,205.663098599
178.742,205.809660894
178.757,205.956671386
178.772,206.104128695
178.787,206.252031381
178.802,206.400377941
178.817,206.549166813
178.832,206.698396366
178.847,206.848064909
178.862,206.998170683
178.877,207.148711863
178.892,207.299686556
178.907,207.451092801
178.922,207.602928567
178.937,207.755191753
178.952,207.907880186
178.967,208.060991619
178.982,208.214523733
178.997,208.368474134
179.012,208.52284035
179.027,208.677619837
179.042,208.832809967
179.057,208.988408037
179.072,209.144411263
179.087,209.300816779
179.102,209.457621637
179.117,209.614822806
179.132,209.772417171
179.147,209.93040153
179.16,210.067634231
179.162,210.088772595
179.177,210.247526992
179.192,210.406661254
179.207,210.566171828
179.222,210.726055068
179.237,210.886307236
179.252,211.046924501
179.267,211.207902937
179.282,211.369238522
179.297,211.530927139
179.312,211.692964573
179.327,211.855346507
179.342,212.018068528
179.357,212.181126118
179.372,212.344514661
179.387,212.508229434
179.402,212.67226561
179.417,212.836618258
179.432,213.001282339
179.447,213.166252707
179.462,213.331524107
179.477,213.497091172
179.492,213.662948425
179.507,213.82909028
179.522,213.995511033
179.537,214.162204868
179.552,214.329165854
179.567,214.496387944
179.582,214.66386497
179.597,214.83159065
179.612,214.99955858
179.627,215.167762237
179.642,215.336194977
179.657,215.504850029
179.672,215.673720505
179.687,215.842799389
179.702,216.012079541
179.717,216.181553695
179.732,216.351214457
179.747,216.521054306
179.762,216.691065593
179.777,216.861240538
179.792,217.031571231
179.807,217.202049632
179.822,217.372667569
179.837,217.543416737
179.852,217.714288697
179.867,217.885274876
179.882,218.056366571
179.897,218.227554936
179.91,218.375989448
179.912,218.398830997
179.927,218.570185637
179.942,218.741609608
179.957,218.913093521
179.972,219.08462785
179.987,219.256202932
180.002,219.427808965
180.017,219.599436006
180.032,219.771073978
180.047,219.942712659
180.062,220.11434169
180.077,220.285950574
180.092,220.457528671
180.107,220.629065202
180.122,220.800549249
180.137,220.971969753
180.152,221.143315517
180.167,221.314575202
180.182,221.485737331
180.197,221.656790287
180.212,221.827722315
180.227,221.99852152
180.242,222.16917587
180.257,222.339673195
180.272,222.510001188
180.287,222.680147405
180.302,222.850099266
180.317,223.019844059
180.332,223.189368931
180.347,223.358660902
180.362,223.527706857
180.377,223.696493549
180.392,223.865007602
180.407,224.03323551
180.422,224.201163639
180.437,224.36877823
180.452,224.536065395
180.467,224.703011126
180.482,224.869601292
180.497,225.035821642
180.512,225.201657803
180.527,225.367095291
180.542,225.5321195
180.557,225.696715716
180.56,225.729582297
180.572,225.860869114
180.587,226.024564758
180.602,226.187787606
180.617,226.350522515
180.632,226.512754236
180.647,226.674467424
180.66,226.814187485
180.662,226.835646637
180.677,226.99627634
180.692,227.156340905
180.707,227.31582462
180.722,227.474711686
180.737,227.632986223
180.752,227.790632272
180.767,227.947633801
180.782,228.103974706
180.797,228.259638814
180.812,228.414609892
180.827,228.568871641
180.842,228.722407711
180.857,228.875201698
180.872,229.027237148
180.887,229.178497566
180.902,229.328966417
180.917,229.47862713
180.932,229.627463104
180.947,229.775457714
180.962,229.922594313
180.977,230.068856237
180.992,230.214226814
181.007,230.358689363
181.022,230.502227206
181.037,230.644823666
181.052,230.786462082
181.067,230.927125804
181.082,231.066798208
181.097,231.205462694
181.112,231.343102698
181.127,231.479701696
181.142,231.615243208
181.157,231.749710809
181.172,231.88308813
181.187,232.015358869
181.202,232.146506796
181.217,232.276515758
181.232,232.405369688
181.247,232.533052613
181.262,232.659548657
181.277,232.784842053
181.292,232.908917146
181.307,233.031758404
181.31,233.056177238
181.322,233.153350423
181.337,233.273677936
181.352,233.392725819
181.367,233.510479101
181.382,233.626922971
181.397,233.742042785
181.412,233.855824077
181.427,233.968252562
181.442,234.07931415
181.457,234.188994953
181.472,234.297281289
181.487,234.404159696
181.502,234.509616938
181.517,234.613640016
181.532,234.716216174
181.547,234.817332909
181.562,234.916977981
181.577,235.01513942
181.592,235.111805539
181.607,235.206964938
181.622,235.300606518
181.637,235.392719487
181.652,235.483293373
181.667,235.57231803
181.682,235.659783648
181.697,235.745680766
181.712,235.830000278
181.727,235.912733445
181.742,235.993871903
181.757,236.073407675
181.772,236.151333178
181.787,236.227641237
181.802,236.30232509
181.817,236.375378402
181.832,236.446795273
181.847,236.516570248
181.862,236.584698328
181.877,236.651174978
181.892,236.715996141
181.907,236.779158242
181.922,236.840658201
181.937,236.900493445
181.952,236.958661913
181.967,237.015162068
181.982,237.069992907
181.997,237.123153968
182.012,237.174645344
182.027,237.224467683
182.042,237.272622207
182.057,237.319110714
182.06,237.328208692
182.072,237.363935586
182.087,237.407099802
182.102,237.448606939
182.117,237.488461185
182.132,237.526667341
182.147,237.563230828
182.162,237.598157697
182.177,237.631454626
182.192,237.663128932
182.207,237.693188568
182.222,237.721642132
182.237,237.74849886
182.252,237.773768637
182.267,237.797461986
182.282,237.819590073
182.297,237.840164701
182.312,237.859198305
182.327,237.876703945
182.342,237.892695296
182.357,237.907186639
182.372,237.920192848
182.387,237.931729371
182.402,237.941812212
182.417,237.95045791
182.432,237.957683511
182.447,237.96350654
182.462,237.967944964
182.477,237.971017154
182.492,237.972741842
182.507,237.973138065
182.522,237.972225111
182.537,237.970022452
182.552,237.966549669
182.567,237.961826371
182.582,237.955872099
182.597,237.948706216
182.612,237.940347795
182.627,237.930815476
182.642,237.920127315
182.657,237.908300615
182.672,237.895351724
182.687,237.881295822
182.702,237.866146662
182.717,237.849916292
182.732,237.832614728
182.747,237.814249583
182.762,237.794825648
182.777,237.774344404
182.792,237.752803468
182.807,237.730195946
182.822,237.70650969
182.837,237.681726431
182.852,237.655820772
182.867,237.628758997
182.882,237.600497682
182.897,237.570982038
182.912,237.540143948
182.927,237.507899611
182.942,237.474146714
182.957,237.438760994
182.972,237.40159205
182.987,237.362458189
183.002,237.321140042
183.017,237.277372578
183.032,237.230835031
183.047,237.181138057
183.062,237.127807183
183.077,237.070261219
183.092,237.007783739
183.107,236.939484854
183.122,236.864249231
183.137,236.780664234
183.152,236.686919065
183.167,236.580661033
183.182,236.458788527
183.197,236.317152046
183.212,236.150130165
183.227,235.950070068
183.242,235.706730472
183.257,235.407539611
183.367,235.487704098
183.382,235.77170907
183.397,236.003269473
183.412,236.194494575
183.427,236.354920819
183.442,236.491620023
183.457,236.609788023
183.472,236.713271675
183.487,236.804957666
183.502,236.887044626
183.517,236.961231462
183.532,237.028848394
183.547,237.090949248
183.562,237.148377456
183.577,237.201814004
183.592,237.251812818
183.607,237.298827267
183.622,237.343230287
183.637,237.385329859
183.652,237.425381058
183.667,237.463595517
183.682,237.50014896
183.697,237.53518723
183.712,237.568831167
183.727,237.601180582
183.742,237.632317519
183.757,237.66230895
183.772,237.69120902
183.787,237.719060921
183.802,237.745898472
183.817,237.771747453
183.832,237.796626743
183.847,237.820549286
183.862,237.843522924
183.877,237.865551114
183.892,237.886633547
183.907,237.906766679
183.922,237.925944205
183.937,237.944157464
183.952,237.961395795
183.967,237.977646848
183.982,237.992896862
183.997,238.007130907
184.012,238.020333094
184.027,238.032486769
184.042,238.043574675
184.057,238.053579105
184.072,238.062482029
184.087,238.07026521
184.102,238.076910311
184.117,238.082398983
184.132,238.086712947
184.147,238.089834067
184.162,238.09174441
184.177,238.092426306
184.192,238.091862395
184.207,238.090035672
184.222,238.086929523
184.237,238.082527763
184.252,238.076814658
184.267,238.069774957
184.282,238.061393911
184.297,238.051657288
184.312,238.040551396
184.327,238.02806309
184.342,238.014179785
184.357,237.998889465
184.372,237.982180688
184.387,237.964042594
184.402,237.944464904
184.417,237.923437928
184.432,237.90095256
184.447,237.877000282
184.462,237.851573159
184.477,237.824663841
184.492,237.796265555
184.507,237.766372105
184.522,237.734977867
184.537,237.702077782
184.552,237.66766735
184.56,237.648696172
184.567,237.631742629
184.582,237.59430022
184.597,237.55533727
184.612,237.514851455
184.627,237.472840981
184.642,237.429304569
184.657,237.384241451
184.672,237.337651363
184.687,237.289534533
184.702,237.239891674
184.717,237.188723977
184.732,237.136033098
184.747,237.081821156
184.762,237.026090715
184.777,236.968844785
184.792,236.910086805
184.807,236.849820639
184.822,236.788050564
184.837,236.724781262
184.852,236.660017812
184.867,236.59376568
184.882,236.52603071
184.897,236.456819115
184.912,236.386137468
184.927,236.313992694
184.942,236.240392061
184.957,236.16534317
184.972,236.088853947
184.987,236.010932636
185.002,235.931587786
185.017,235.850828248
185.032,235.768663163
185.047,235.685101954
185.062,235.600154317
185.077,235.513830216
185.092,235.42613987
185.107,235.33709375
185.122,235.246702566
185.137,235.154977265
185.152,235.061929014
185.167,234.967569202
185.182,234.871909427
185.197,234.774961488
185.212,234.676737381
185.227,234.577249287
185.242,234.476509568
185.257,234.374530759
185.272,234.271325558
185.287,234.166906824
185.302,234.061287568
185.31,234.004470952
185.317,233.95448094
185.332,233.846500233
185.347,233.737358868
185.362,233.627070389
185.377,233.51564846
185.392,233.403106853
185.407,233.289459447
185.422,233.174720216
185.437,233.05890323
185.452,232.942022641
185.467,232.824092683
185.482,232.705127663
185.497,232.585141956
185.512,232.464149998
185.527,232.342166285
185.542,232.21920536
185.557,232.095281815
185.572,231.970410279
185.587,231.844605419
185.602,231.71788193
185.617,231.590254532
185.632,231.461737964
185.647,231.332346983
185.662,231.202096352
185.677,231.071000842
185.692,230.939075224
185.707,230.806334266
185.722,230.672792727
185.737,230.538465354
185.752,230.403366878
185.767,230.267512009
185.782,230.130915433
185.797,229.993591805
185.812,229.855555751
185.827,229.716821859
185.842,229.577404677
185.857,229.43731871
185.872,229.296578419
185.887,229.15519821
185.902,229.013192439
185.917,228.870575406
185.932,228.727361348
185.947,228.583564443
185.96,228.458479908
185.962,228.439198801
185.977,228.294278466
185.992,228.148817409
186.007,228.002829529
186.022,227.856328647
186.037,227.709328508
186.052,227.561842771
186.06,227.482989848
186.067,227.413885016
186.082,227.265468738
186.097,227.116607341
186.112,226.96731414
186.127,226.81760236
186.142,226.667485131
186.157,226.516975487
186.172,226.366086365
186.187,226.214830604
186.202,226.063220942
186.217,225.911270015
186.232,225.758990355
186.247,225.606394388
186.262,225.453494437
186.277,225.300302714
186.292,225.146831325
186.307,224.993092263
186.322,224.839097414
186.337,224.68485855
186.352,224.53038733
186.367,224.3756953
186.382,224.220793892
186.397,224.065694422
186.412,223.910408089
186.427,223.754945978
186.442,223.599319056
186.457,223.443538171
186.472,223.287614054
186.487,223.131557318
186.502,222.975378457
186.517,222.819087844
186.532,222.662695734
186.547,222.506212263
186.562,222.349647446
186.577,222.193011178
186.592,222.036313234
186.607,221.879563268
186.622,221.722770817
186.637,221.565945294
186.652,221.409095994
186.667,221.252232091
186.682,221.09536264
186.697,220.938496578
186.71,220.802555547
186.712,220.781642718
186.727,220.62480976
186.742,220.468006277
186.757,220.311240734
186.772,220.154521468
186.787,219.997856704
186.802,219.841254547
186.817,219.684722987
186.832,219.528269896
186.847,219.37190303
186.862,219.215630031
186.877,219.059458423
186.892,218.90339562
186.907,218.747448918
186.922,218.591625502
186.937,218.435932445
186.952,218.280376705
186.967,218.124965132
186.982,217.969704465
186.997,217.814601331
187.012,217.65966225
187.027,217.504893632
187.042,217.35030178
187.057,217.195892891
187.072,217.041673055
187.087,216.887648256
187.102,216.733824374
187.117,216.580207186
187.132,216.426802365
187.147,216.273615483
187.162,216.120652009
187.177,215.967917315
187.192,215.815416669
187.207,215.663155244
187.222,215.511138114
187.237,215.359370255
187.252,215.20785655
187.267,215.056601784
187.282,214.905610649
187.297,214.754887744
187.312,214.604437575
187.327,214.454264558
187.342,214.304373016
187.357,214.154767184
187.372,214.00545121
187.387,213.856429151
187.402,213.707704978
187.417,213.559282579
187.432,213.411165754
187.447,213.26335822
187.46,213.135511351
187.462,213.115863611
187.477,212.96868548
187.492,212.821827296
187.507,212.675292449
187.522,212.529084253
187.537,212.383205939
187.552,212.237660662
187.567,212.092451501
187.582,211.947581459
187.597,211.803053466
187.612,211.658870375
187.627,211.515034969
187.642,211.371549958
187.657,211.22841798
187.672,211.085641605
187.687,210.943223332
187.702,210.801165594
187.717,210.659470752
187.732,210.518141105
187.747,210.377178886
187.762,210.236586261
187.777,210.096365332
187.792,209.956518141
187.807,209.817046665
187.822,209.677952822
187.837,209.539238466
187.852,209.400905395
187.867,209.262955348
187.882,209.125390003
187.897,208.988210986
187.912,208.851419859
187.927,208.715018138
187.942,208.579007277
187.957,208.44338868
187.972,208.308163696
187.987,208.173333623
188.002,208.038899707
188.017,207.904863144
188.032,207.771225079
188.047,207.63798661
188.062,207.505148782
188.077,207.372712599
188.092,207.240679012
188.107,207.109048931
188.122,206.977823216
188.137,206.847002686
188.152,206.716588113
188.167,206.586580228
188.182,206.456979719
188.197,206.327787231
188.21,206.216150921
188.212,206.199003369
188.227,206.070628699
188.242,205.942663742
188.257,205.815108986
188.272,205.687964876
188.287,205.561231823
188.302,205.434910196
188.317,205.309000333
188.332,205.183502531
188.347,205.058417055
188.362,204.933744134
188.377,204.809483964
188.392,204.685636705
188.407,204.562202489
188.422,204.439181409
188.437,204.316573533
188.452,204.194378892
188.467,204.072597493
188.482,203.951229305
188.497,203.830274274
188.512,203.709732316
188.527,203.589603315
188.542,203.469887131
188.557,203.350583596
188.572,203.231692514
188.587,203.113213663
188.602,202.995146797
188.617,202.877491642
188.632,202.760247902
188.647,202.643415253
188.66,202.542492553
188.662,202.526993352
188.677,202.410981829
188.692,202.295380293
188.707,202.180188329
188.722,202.065405502
188.737,201.951031355
