# 01004 ENAS Ny-Alesund Ii Observations at 12Z 26 Jul 2019
Frequency [GHz],TB
175.31,267.079157245
175.322,267.085981216
175.337,267.094330719
175.352,267.102478948
175.367,267.110425074
175.382,267.118168288
175.397,267.125707767
175.412,267.133042703
175.427,267.140172289
175.442,267.147095719
175.457,267.153812198
175.472,267.160320933
175.487,267.166621123
175.502,267.172711995
175.517,267.17859276
175.532,267.18426264
175.547,267.189720869
175.562,267.194966676
175.577,267.199999297
175.592,267.204817974
175.607,267.209421958
175.622,267.213810497
175.637,267.217982852
175.652,267.221938286
175.667,267.225676067
175.682,267.229195463
175.697,267.232495762
175.712,267.235576245
175.727,267.238436207
175.742,267.241074941
175.757,267.24349175
175.772,267.245685945
175.787,267.247656839
175.802,267.249403758
175.817,267.250926027
175.832,267.252222977
175.847,267.253293958
175.862,267.254138307
175.877,267.254755386
175.892,267.255144551
175.907,267.255305178
175.922,267.255236636
175.937,267.254938309
175.952,267.254409588
175.967,267.253649866
175.982,267.252658552
175.997,267.25143506
176.012,267.249978799
176.027,267.248289208
176.042,267.246365717
176.057,267.24420777
176.072,267.241814816
176.087,267.239186319
176.102,267.236321741
176.117,267.233220559
176.132,267.229882259
176.147,267.226306332
176.162,267.222492279
176.177,267.218439606
176.192,267.214147837
176.207,267.209616493
176.222,267.204845119
176.237,267.199833251
176.252,267.194580443
176.267,267.189086264
176.282,267.18335028
176.297,267.177372076
176.31,267.17199472
176.312,267.171151243
176.327,267.164687377
176.342,267.157980092
176.357,267.151029006
176.372,267.143833748
176.387,267.136393958
176.402,267.128709281
176.417,267.120779379
176.432,267.112603915
176.447,267.10418257
176.46,267.096684946
176.462,267.09551504
176.477,267.086601013
176.492,267.077440203
176.507,267.068032325
176.522,267.058377112
176.537,267.048474302
176.552,267.03832365
176.567,267.027924911
176.582,267.017277858
176.597,267.006382273
176.612,266.995237949
176.627,266.98384469
176.642,266.972202306
176.657,266.960310626
176.672,266.948169486
176.687,266.93577873
176.702,266.923138218
176.717,266.910247818
176.732,266.897107407
176.747,266.883716881
176.762,266.870076137
176.777,266.856185085
176.792,266.842043656
176.807,266.827651782
176.822,266.813009407
176.837,266.798116492
176.852,266.782973005
176.867,266.767578922
176.882,266.751934236
176.897,266.736038955
176.912,266.719893084
176.927,266.70349665
176.942,266.686849694
176.957,266.669952255
176.972,266.652804398
176.987,266.635406192
177.002,266.617757714
177.017,266.59985906
177.032,266.581710331
177.047,266.563311646
177.062,266.544663126
177.077,266.525764912
177.092,266.506617146
177.107,266.487219988
177.122,266.467573616
177.137,266.447678205
177.152,266.427533949
177.167,266.407141048
177.182,266.386499719
177.197,266.365610189
177.21,266.34730534
177.212,266.344472684
177.227,266.323087464
177.242,266.301454776
177.257,266.279574895
177.272,266.257448089
177.287,266.235074657
177.302,266.212454891
177.31,266.200290404
177.317,266.189589107
177.332,266.166477623
177.347,266.143120767
177.362,266.119518879
177.377,266.095672312
177.392,266.07158142
177.407,266.047246581
177.422,266.022668172
177.437,265.997846579
177.452,265.972782208
177.467,265.947475464
177.482,265.921926761
177.497,265.89613653
177.512,265.87010521
177.527,265.843833239
177.542,265.817321077
177.557,265.790569186
177.572,265.763578034
177.587,265.736348105
177.602,265.708879888
177.617,265.681173876
177.632,265.653230576
177.647,265.625050501
177.66,265.600436648
177.662,265.596634171
177.677,265.567982117
177.692,265.539094869
177.707,265.509972976
177.722,265.480616986
177.737,265.451027453
177.752,265.421204949
177.767,265.391150039
177.782,265.360863304
177.797,265.330345328
177.812,265.2995967
177.827,265.268618016
177.842,265.237409879
177.857,265.2059729
177.872,265.174307691
177.887,265.142414866
177.902,265.110295058
177.917,265.077948891
177.932,265.045376999
177.947,265.012580018
177.96,264.983974399
177.962,264.979558599
177.977,264.946313384
177.992,264.912845024
178.007,264.879154176
178.022,264.845241494
178.037,264.811107649
178.052,264.776753301
178.067,264.742179117
178.082,264.707385773
178.097,264.672373944
178.112,264.637144298
178.127,264.601697525
178.142,264.566034296
178.157,264.530155301
178.172,264.494061219
178.187,264.457752742
178.202,264.421230555
178.217,264.384495339
178.232,264.347547794
178.247,264.310388603
178.262,264.273018459
178.277,264.235438048
178.292,264.197648066
178.307,264.159649199
178.322,264.121442137
178.337,264.08302757
178.352,264.04440619
178.367,264.00557868
178.382,263.966545726
178.397,263.927308016
178.41,263.893136906
178.412,263.887866231
178.427,263.848221057
178.442,263.808373165
178.457,263.768323245
178.472,263.72807196
178.487,263.687619993
178.502,263.646968007
178.517,263.606116671
178.532,263.565066653
178.547,263.523818612
178.562,263.482373204
178.577,263.440731089
178.592,263.398892913
178.607,263.356859326
178.622,263.314630968
178.637,263.272208481
178.652,263.2295925
178.667,263.186783648
178.682,263.143782562
178.697,263.100589855
178.712,263.057206146
178.727,263.013632049
178.742,262.969868168
178.757,262.925915104
178.772,262.881773452
178.787,262.837443805
178.802,262.792926747
178.817,262.748222858
178.832,262.703332715
178.847,262.658256876
178.862,262.612995913
178.877,262.567550382
178.892,262.52192083
178.907,262.476107801
178.922,262.430111836
178.937,262.383933466
178.952,262.33757322
178.967,262.291031611
178.982,262.244309159
178.997,262.197406372
179.012,262.150323744
179.027,262.103061779
179.042,262.055620957
179.057,262.008001763
179.072,261.960204675
179.087,261.912230163
179.102,261.86407868
179.117,261.815750695
179.132,261.767246652
179.147,261.718567
179.16,261.676236252
179.162,261.66971217
179.177,261.620682602
179.192,261.571478714
179.207,261.522100934
179.222,261.472549667
179.237,261.422825331
179.252,261.372928316
179.267,261.322859031
179.282,261.272617858
179.297,261.222205186
179.312,261.171621391
179.327,261.120866854
179.342,261.069941937
179.357,261.01884701
179.372,260.967582428
179.387,260.916148547
179.402,260.864545718
179.417,260.812774279
179.432,260.76083458
179.447,260.708726951
179.462,260.656451728
179.477,260.604009234
179.492,260.551399798
179.507,260.49862374
179.522,260.445681372
179.537,260.392573013
179.552,260.339298977
179.567,260.285859562
179.582,260.23225508
179.597,260.178485833
179.612,260.124552119
179.627,260.070454237
179.642,260.016192486
179.657,259.96176716
179.672,259.907178547
179.687,259.852426944
179.702,259.797512639
179.717,259.742435923
179.732,259.687197082
179.747,259.631796409
179.762,259.576234192
179.777,259.520510715
179.792,259.464626273
179.807,259.408581151
179.822,259.35237564
179.837,259.296010029
179.852,259.239484612
179.867,259.18279968
179.882,259.125955536
179.897,259.068952466
179.91,259.019421488
179.912,259.011790774
179.927,258.954470763
179.942,258.896992728
179.957,258.839356989
179.972,258.781563839
179.987,258.723613602
180.002,258.66550659
180.017,258.607243125
180.032,258.548823526
180.047,258.490248122
180.062,258.431517244
180.077,258.372631225
180.092,258.31359041
180.107,258.254395144
180.122,258.195045771
180.137,258.135542653
180.152,258.075886146
180.167,258.016076618
180.182,257.956114441
180.197,257.895999991
180.212,257.835733652
180.227,257.775315816
180.242,257.714746875
180.257,257.654027238
180.272,257.593157306
180.287,257.5321375
180.302,257.470968241
180.317,257.409649962
180.332,257.348183096
180.347,257.286568089
180.362,257.224805391
180.377,257.162895464
180.392,257.10083877
180.407,257.038635782
180.422,256.976286987
180.437,256.91379287
180.452,256.85115393
180.467,256.788370669
180.482,256.725443599
180.497,256.66237325
180.512,256.599160136
180.527,256.535804804
180.542,256.472307791
180.557,256.408669656
180.56,256.395925144
180.572,256.344890954
180.587,256.280972255
180.602,256.216914136
180.617,256.152717182
180.632,256.08838198
180.647,256.023909134
180.66,255.9679218
180.662,255.959299253
180.677,255.894552952
180.692,255.829670855
180.707,255.764653588
180.722,255.699501795
180.737,255.634216125
180.752,255.568797233
180.767,255.503245773
180.782,255.437562425
180.797,255.371747859
180.812,255.305802766
180.827,255.239727837
180.842,255.173523766
180.857,255.10719127
180.872,255.040731055
180.887,254.97414385
180.902,254.907430381
180.917,254.840591387
180.932,254.773627614
180.947,254.706539808
180.962,254.639328737
180.977,254.571995162
180.992,254.504539858
181.007,254.436963612
181.022,254.369267211
181.037,254.30145145
181.052,254.233517143
181.067,254.165465099
181.082,254.097296147
181.097,254.029011111
181.112,253.960610842
181.127,253.892096181
181.142,253.823467996
181.157,253.754727157
181.172,253.685874542
181.187,253.616911047
181.202,253.547837575
181.217,253.478655043
181.232,253.409364378
181.247,253.339966525
181.262,253.270462448
181.277,253.200853112
181.292,253.131139512
181.307,253.061322652
181.31,253.047346978
181.322,252.991403557
181.337,252.921383275
181.352,252.851262869
181.367,252.781043428
181.382,252.710726065
181.397,252.640311913
181.412,252.569802142
181.427,252.499197939
181.442,252.42850053
181.457,252.35771117
181.472,252.28683115
181.487,252.215861799
181.502,252.144804481
181.517,252.073660604
181.532,252.002431626
181.547,251.931119046
181.562,251.859724422
181.577,251.788249351
181.592,251.716695502
181.607,251.645064595
181.622,251.573358422
181.637,251.501578838
181.652,251.429727778
181.667,251.357807242
181.682,251.285819323
181.697,251.213766195
181.712,251.141650116
181.727,251.069473462
181.742,250.997238685
181.757,250.924948361
181.772,250.852605179
181.787,250.780211935
181.802,250.707771568
181.817,250.635287134
181.832,250.562761842
181.847,250.490199038
181.862,250.417602227
181.877,250.344975079
181.892,250.272321426
181.907,250.199645284
181.922,250.126950853
181.937,250.054242535
181.952,249.981524932
181.967,249.908802856
181.982,249.836081358
181.997,249.763365701
182.012,249.690661417
182.027,249.617974281
182.042,249.545310329
182.057,249.472675883
182.06,249.458153113
182.072,249.40007755
182.087,249.32752224
182.102,249.255017174
182.117,249.182569898
182.132,249.110188287
182.147,249.037880585
182.162,248.965655379
182.177,248.893521636
182.192,248.821488721
182.207,248.749566398
182.222,248.677764839
182.237,248.606094656
182.252,248.534566898
182.267,248.463193075
182.282,248.391985168
182.297,248.320955645
182.312,248.25011747
182.327,248.179484123
182.342,248.10906961
182.357,248.038888481
182.372,247.968955837
182.387,247.899287347
182.402,247.829899266
182.417,247.760808437
182.432,247.69203231
182.447,247.623588955
182.462,247.555497069
182.477,247.487775983
182.492,247.420445685
182.507,247.353526825
182.522,247.287040701
182.537,247.221009305
182.552,247.155455293
182.567,247.090402016
182.582,247.0258735
182.597,246.961894474
182.612,246.898490345
182.627,246.835687209
182.642,246.773511851
182.657,246.711991735
182.672,246.651154978
182.687,246.591030372
182.702,246.53164735
182.717,246.473035966
182.732,246.415226889
182.747,246.358251357
182.762,246.302141183
182.777,246.246928681
182.792,246.192646673
182.807,246.1393284
182.822,246.087007509
182.837,246.035717985
182.852,245.985494088
182.867,245.93637028
182.882,245.888381151
182.897,245.841561322
182.912,245.795945347
182.927,245.751567579
182.942,245.708462051
182.957,245.666662298
182.972,245.626201163
182.987,245.58711057
183.002,245.549421241
183.017,245.513162315
183.032,245.478360916
183.047,245.445041526
183.062,245.413225174
183.077,245.382928307
183.092,245.354161148
183.107,245.326925334
183.122,245.301210278
183.137,245.276987488
183.152,245.254201326
183.167,245.232753462
183.182,245.212475486
183.197,245.193078675
183.212,245.174056961
183.227,245.154490249
183.242,245.132627719
183.257,245.105000741
183.367,245.104702872
183.382,245.127956305
183.397,245.146580161
183.412,245.163483914
183.427,245.180145419
183.442,245.197349353
183.457,245.215531174
183.472,245.234940738
183.487,245.255723906
183.502,245.277965301
183.517,245.301711842
183.532,245.326986267
183.547,245.353795233
183.562,245.382134324
183.577,245.411991294
183.592,245.4433482
183.607,245.476182864
183.622,245.51046992
183.637,245.546181553
183.652,245.583288047
183.667,245.62175824
183.682,245.66155984
183.697,245.702659704
183.712,245.745024052
183.727,245.788618648
183.742,245.833408975
183.757,245.879360339
183.772,245.926438008
183.787,245.974607301
183.802,246.02383368
183.817,246.07408283
183.832,246.125320713
183.847,246.177513655
183.862,246.230628371
183.877,246.28463202
183.892,246.33949227
183.907,246.395177295
183.922,246.451655841
183.937,246.50889723
183.952,246.566871389
183.967,246.625548878
183.982,246.684900896
183.997,246.744899303
184.012,246.805516621
184.027,246.866726048
184.042,246.928501471
184.057,246.990817444
184.072,247.053649228
184.087,247.116972744
184.102,247.18076462
184.117,247.245002149
184.132,247.309663306
184.147,247.374726735
184.162,247.440171736
184.177,247.505978276
184.192,247.572126949
184.207,247.638599004
184.222,247.705376297
184.237,247.772441317
184.252,247.839777138
184.267,247.907367435
184.282,247.975196461
184.297,248.043249027
184.312,248.111510502
184.327,248.179966799
184.342,248.248604344
184.357,248.317410089
184.372,248.38637147
184.387,248.455476422
184.402,248.524713341
184.417,248.594071083
184.432,248.663538952
184.447,248.733106678
184.462,248.802764411
184.477,248.872502694
184.492,248.94231248
184.507,249.012185079
184.522,249.082112173
184.537,249.152085804
184.552,249.222098345
184.56,249.259451742
184.567,249.292142494
184.582,249.362211267
184.597,249.432297988
184.612,249.502396268
184.627,249.572499998
184.642,249.642603341
184.657,249.71270072
184.672,249.782786806
184.687,249.852856505
184.702,249.922904956
184.717,249.992927517
184.732,250.062919754
184.747,250.132877431
184.762,250.202796512
184.777,250.272673138
184.792,250.342503624
184.807,250.412284457
184.822,250.482012284
184.837,250.551683895
184.852,250.621296241
184.867,250.690846391
184.882,250.760331563
184.897,250.829749091
184.912,250.899096429
184.927,250.968371147
184.942,251.037570924
184.957,251.106693528
184.972,251.175736836
184.987,251.24469881
185.002,251.313577508
185.017,251.38237106
185.032,251.451077676
185.047,251.519695642
185.062,251.588223311
185.077,251.656659106
185.092,251.725001504
185.107,251.793249049
185.122,251.861400332
185.137,251.929454003
185.152,251.997408762
185.167,252.065263347
185.182,252.133016546
185.197,252.200667185
185.212,252.26821413
185.227,252.335656284
185.242,252.402992583
185.257,252.470221997
185.272,252.537343521
185.287,252.604356181
185.302,252.671259033
185.31,252.706895338
185.317,252.738051157
185.332,252.804731655
185.347,252.871299648
185.362,252.937754285
185.377,253.00409473
185.392,253.070320164
185.407,253.136429792
185.422,253.202422826
185.437,253.2682985
185.452,253.334056066
185.467,253.399694785
185.482,253.465213924
185.497,253.530612774
185.512,253.595890634
185.527,253.661046815
185.542,253.726080638
185.557,253.790991433
185.572,253.855778537
185.587,253.920441303
185.602,253.984979093
185.617,254.049391271
185.632,254.113677216
185.647,254.177836308
185.662,254.241867944
185.677,254.305771525
185.692,254.369546453
185.707,254.433192153
185.722,254.496708035
185.737,254.560093537
185.752,254.623348094
185.767,254.686471151
185.782,254.749462159
185.797,254.812320571
185.812,254.875045853
185.827,254.937637479
185.842,255.000094927
185.857,255.06241768
185.872,255.124605227
185.887,255.186657071
185.902,255.248572718
185.917,255.310351676
185.932,255.371993464
185.947,255.433497611
185.96,255.486689506
185.962,255.494863649
185.977,255.556091111
185.992,255.617179552
186.007,255.678128521
186.022,255.738937578
186.037,255.799606295
186.052,255.860134242
186.06,255.892358109
186.067,255.920521003
186.082,255.980766163
186.097,256.040869323
186.112,256.100830083
186.127,256.160648053
186.142,256.220322853
186.157,256.279854102
186.172,256.339241442
186.187,256.398484506
186.202,256.457582939
186.217,256.516536396
186.232,256.575344541
186.247,256.634007039
186.262,256.692523564
186.277,256.750893806
186.292,256.809117442
186.307,256.867194181
186.322,256.925123719
186.337,256.982905773
186.352,257.040540057
186.367,257.098026302
186.382,257.155364237
186.397,257.212553594
186.412,257.269594128
186.427,257.326485588
186.442,257.383227736
186.457,257.439820333
186.472,257.496263156
186.487,257.552555985
186.502,257.608698597
186.517,257.664690793
186.532,257.720532364
186.547,257.776223123
186.562,257.831762873
186.577,257.887151431
186.592,257.942388619
186.607,257.997474266
186.622,258.052408204
186.637,258.10719027
186.652,258.161820316
186.667,258.216298179
186.682,258.27062372
186.697,258.324796797
186.71,258.371623366
186.712,258.378817276
186.727,258.432685021
186.742,258.486399914
186.757,258.539961824
186.772,258.59337064
186.787,258.646626244
186.802,258.699728528
186.817,258.752677383
186.832,258.805472714
186.847,258.858114414
186.862,258.9106024
186.877,258.962936569
186.892,259.015116839
186.907,259.067143121
186.922,259.119015336
186.937,259.170733401
186.952,259.222297244
186.967,259.273706785
186.982,259.324961956
186.997,259.376062685
187.012,259.427008903
187.027,259.477800545
187.042,259.528437545
187.057,259.578919844
187.072,259.629247375
187.087,259.67942008
187.102,259.729437902
187.117,259.779300783
187.132,259.829008664
187.147,259.878561488
187.162,259.927959197
187.177,259.977201744
187.192,260.026289066
187.207,260.07522111
187.222,260.123997824
187.237,260.172619151
187.252,260.22108504
187.267,260.269395429
187.282,260.317550273
187.297,260.365549504
187.312,260.413393073
187.327,260.461080919
187.342,260.508612987
187.357,260.555989214
187.372,260.603209545
187.387,260.650273918
187.402,260.697182267
187.417,260.743934529
187.432,260.79053064
187.447,260.836970531
187.46,260.877092021
187.462,260.883254137
187.477,260.929381385
187.492,260.975352208
187.507,261.021166526
187.522,261.066824267
187.537,261.112325355
187.552,261.157669706
187.567,261.202857244
187.582,261.247887883
187.597,261.292761531
187.612,261.337478111
187.627,261.382037524
187.642,261.426439685
187.657,261.470684486
187.672,261.514771843
187.687,261.55870165
187.702,261.602473803
187.717,261.646088201
187.732,261.689544733
187.747,261.73284329
187.762,261.775983758
187.777,261.818966022
187.792,261.861789968
187.807,261.904455474
187.822,261.946962412
187.837,261.98931066
187.852,262.031500089
187.867,262.07353057
187.882,262.115401964
187.897,262.15711414
187.912,262.198666961
187.927,262.240060277
187.942,262.281293951
187.957,262.322367834
187.972,262.363281781
187.987,262.404035637
188.002,262.444629246
188.017,262.485062456
188.032,262.525335105
188.047,262.565447038
188.062,262.605398085
188.077,262.645188087
188.092,262.684816871
188.107,262.724284271
188.122,262.763590114
188.137,262.802734227
188.152,262.841716428
188.167,262.880536548
188.182,262.919194402
188.197,262.957689815
188.21,262.990920963
188.212,262.996022597
188.227,263.034192567
188.242,263.072199534
188.257,263.110043322
188.272,263.147723727
188.287,263.185240568
188.302,263.22259365
188.317,263.25978278
188.332,263.296807765
188.347,263.333668409
188.362,263.370364511
188.377,263.406895883
188.392,263.443262324
188.407,263.479463629
188.422,263.515499606
188.437,263.551370052
188.452,263.587074767
188.467,263.622613552
188.482,263.657986206
188.497,263.693192521
188.512,263.728232307
188.527,263.763105352
188.542,263.797811461
188.557,263.832350435
188.572,263.866722068
188.587,263.900926161
188.602,263.934962515
188.617,263.968830931
188.632,264.002531209
188.647,264.036063157
188.66,264.064987858
188.662,264.06942657
188.677,264.102621251
188.692,264.135647016
188.707,264.168503658
188.722,264.201190991
188.737,264.233708826
