# 10410 EDZE Essen Observations at 12Z 20 Oct 2019
Frequency [GHz],TB
175.31,267.937220495
175.322,267.920459754
175.337,267.89942416
175.352,267.878294451
175.367,267.857070591
175.382,267.835752542
175.397,267.814340264
175.412,267.792833718
175.427,267.771232865
175.442,267.74953767
175.457,267.727748091
175.472,267.705864087
175.487,267.683885622
175.502,267.661812659
175.517,267.639645151
175.532,267.617383068
175.547,267.595026364
175.562,267.572575002
175.577,267.55002894
175.592,267.527388137
175.607,267.504652552
175.622,267.481822146
175.637,267.458896876
175.652,267.435876699
175.667,267.412761572
175.682,267.389551453
175.697,267.366246299
175.712,267.342846064
175.727,267.319350703
175.742,267.295760174
175.757,267.272074427
175.772,267.248293417
175.787,267.224417095
175.802,267.200445413
175.817,267.176378323
175.832,267.152215776
175.847,267.127957719
175.862,267.103604102
175.877,267.079154871
175.892,267.054609974
175.907,267.029969356
175.922,267.005232959
175.937,266.980400731
175.952,266.955472612
175.967,266.930448542
175.982,266.905328463
175.997,266.880112313
176.012,266.854800031
176.027,266.829391551
176.042,266.80388681
176.057,266.778285741
176.072,266.752588276
176.087,266.726794347
176.102,266.700903882
176.117,266.674916811
176.132,266.648833059
176.147,266.622652551
176.162,266.596375214
176.177,266.570000963
176.192,266.543529723
176.207,266.516961412
176.222,266.490295946
176.237,266.463533239
176.252,266.436673205
176.267,266.409715757
176.282,266.382660801
176.297,266.355508248
176.31,266.331897016
176.312,266.328258
176.327,266.300909963
176.342,266.273464041
176.357,266.245920127
176.372,266.218278124
176.387,266.190537925
176.402,266.162699423
176.417,266.134762509
176.432,266.106727073
176.447,266.078592999
176.46,266.05413026
176.462,266.050360174
176.477,266.022028477
176.492,265.99359779
176.507,265.965067988
176.522,265.936438945
176.537,265.907710536
176.552,265.878882628
176.567,265.849955088
176.582,265.820927784
176.597,265.79180057
176.612,265.762573313
176.627,265.733245866
176.642,265.703818081
176.657,265.674289812
176.672,265.644660907
176.687,265.614931208
176.702,265.585100559
176.717,265.555168802
176.732,265.52513577
176.747,265.495001298
176.762,265.464765215
176.777,265.434427353
176.792,265.403987531
176.807,265.373445575
176.822,265.342801299
176.837,265.312054522
176.852,265.281205053
176.867,265.250252702
176.882,265.219197273
176.897,265.188038572
176.912,265.156776393
176.927,265.125410535
176.942,265.093940787
176.957,265.06236694
176.972,265.030688778
176.987,264.998906082
177.002,264.967018634
177.017,264.935026205
177.032,264.902928568
177.047,264.87072549
177.062,264.838416733
177.077,264.806002062
177.092,264.773481229
177.107,264.740853991
177.122,264.708120093
177.137,264.675279285
177.152,264.642331306
177.167,264.609275893
177.182,264.576112782
177.197,264.542841704
177.21,264.513919224
177.212,264.509462385
177.227,264.475974546
177.242,264.442377906
177.257,264.40867218
177.272,264.37485708
177.287,264.34093231
177.302,264.306897575
177.31,264.28870065
177.317,264.272752573
177.332,264.238496997
177.347,264.204130541
177.362,264.169652887
177.377,264.135063721
177.392,264.100362718
177.407,264.065549554
177.422,264.030623897
177.437,263.995585414
177.452,263.960433765
177.467,263.925168608
177.482,263.889789593
177.497,263.854296373
177.512,263.81868859
177.527,263.782965881
177.542,263.747127884
177.557,263.711174231
177.572,263.675104546
177.587,263.638918452
177.602,263.602615568
177.617,263.566195505
177.632,263.529657871
177.647,263.493002275
177.66,263.461138361
177.662,263.456228312
177.677,263.419335581
177.692,263.382323667
177.707,263.345192163
177.722,263.307940643
177.737,263.27056869
177.752,263.233075875
177.767,263.195461763
177.782,263.157725918
177.797,263.119867898
177.812,263.081887258
177.827,263.043783547
177.842,263.005556305
177.857,262.967205075
177.872,262.92872939
177.887,262.890128781
177.902,262.85140277
177.917,262.812550882
177.932,262.773572626
177.947,262.734467517
177.96,262.700473429
177.962,262.695235056
177.977,262.655874748
177.992,262.616386088
178.007,262.576768562
178.022,262.537021659
178.037,262.497144861
178.052,262.457137641
178.067,262.41699947
178.082,262.376729813
178.097,262.336328132
178.112,262.295793879
178.127,262.255126508
178.142,262.214325462
178.157,262.173390183
178.172,262.132320101
178.187,262.091114648
178.202,262.049773249
178.217,262.008295322
178.232,261.966680282
178.247,261.924927533
178.262,261.883036481
178.277,261.841006525
178.292,261.798837053
178.307,261.756527454
178.322,261.714077109
178.337,261.671485396
178.352,261.62875168
178.367,261.585875329
178.382,261.542855701
178.397,261.499692153
178.41,261.462166817
178.412,261.456384025
178.427,261.412930666
178.442,261.36933141
178.457,261.325585588
178.472,261.281692524
178.487,261.237651539
178.502,261.193461945
178.517,261.149123048
178.532,261.104634151
178.547,261.059994548
178.562,261.015203531
178.577,260.970260381
178.592,260.925164374
178.607,260.879914785
178.622,260.834510878
178.637,260.78895191
178.652,260.743237134
178.667,260.697365795
178.682,260.651337136
178.697,260.605150387
178.712,260.558804777
178.727,260.512299526
178.742,260.465633848
178.757,260.41880695
178.772,260.371818034
178.787,260.32466629
178.802,260.277350908
178.817,260.229871068
178.832,260.182225943
178.847,260.134414702
178.862,260.086436499
178.877,260.038290492
178.892,259.989975824
178.907,259.941491631
178.922,259.892837048
178.937,259.844011196
178.952,259.795013191
178.967,259.745842142
178.982,259.696497152
178.997,259.64697731
179.012,259.597281706
179.027,259.547409419
179.042,259.497359517
179.057,259.447131062
179.072,259.396723111
179.087,259.346134709
179.102,259.295364895
179.117,259.244412698
179.132,259.193277143
179.147,259.14195724
179.16,259.097330106
179.162,259.090451998
179.177,259.038760408
179.192,258.986881463
179.207,258.93481414
179.222,258.882557413
179.237,258.830110239
179.252,258.777471575
179.267,258.724640361
179.282,258.671615533
179.297,258.618396019
179.312,258.564980731
179.327,258.511368577
179.342,258.457558454
179.357,258.40354925
179.372,258.349339842
179.387,258.294929097
179.402,258.240315875
179.417,258.185499022
179.432,258.130477378
179.447,258.075249767
179.462,258.019815007
179.477,257.964171906
179.492,257.908319258
179.507,257.852255851
179.522,257.795980458
179.537,257.73949184
179.552,257.682788753
179.567,257.625869938
179.582,257.568734123
179.597,257.511380028
179.612,257.45380636
179.627,257.396011815
179.642,257.337995075
179.657,257.279754813
179.672,257.221289689
179.687,257.162598351
179.702,257.103679433
179.717,257.04453156
179.732,256.985153342
179.747,256.925543375
179.762,256.865700245
179.777,256.805622528
179.792,256.745308777
179.807,256.684757543
179.822,256.623967358
179.837,256.56293674
179.852,256.501664196
179.867,256.440148218
179.882,256.378387284
179.897,256.31637986
179.91,256.26243951
179.912,256.254124395
179.927,256.191619326
179.942,256.128863074
179.957,256.065854047
179.972,256.00259064
179.987,255.939071228
180.002,255.875294177
180.017,255.811257833
180.032,255.746960531
180.047,255.68240059
180.062,255.61757631
180.077,255.552485979
180.092,255.487127871
180.107,255.42150024
180.122,255.355601326
180.137,255.289429353
180.152,255.22298253
180.167,255.156259049
180.182,255.089257084
180.197,255.021974794
180.212,254.954410322
180.227,254.886561797
180.242,254.818427323
180.257,254.750004994
180.272,254.681292888
180.287,254.612289059
180.302,254.542991552
180.317,254.473398388
180.332,254.403507575
180.347,254.333317103
180.362,254.262824942
180.377,254.192029046
180.392,254.120927354
180.407,254.049517782
180.422,253.977798233
180.437,253.905766593
180.452,253.833420721
180.467,253.760758472
180.482,253.687777671
180.497,253.614476134
180.512,253.540851654
180.527,253.466902005
180.542,253.39262495
180.557,253.318018229
180.56,253.303057124
180.572,253.243079563
180.587,253.16780666
180.602,253.092197204
180.617,253.016248869
180.632,252.939959308
180.647,252.863326153
180.66,252.796630984
180.662,252.786347025
180.677,252.709019521
180.692,252.631341229
180.707,252.553309713
180.722,252.474922525
180.737,252.396177199
180.752,252.31707125
180.767,252.237602183
180.782,252.15776748
180.797,252.077564613
180.812,251.996991037
180.827,251.916044192
180.842,251.834721503
180.857,251.753020384
180.872,251.67093823
180.887,251.588472428
180.902,251.50562035
180.917,251.422379353
180.932,251.33874679
180.947,251.254719992
180.962,251.170296289
180.977,251.085472999
180.992,251.000247427
181.007,250.914616875
181.022,250.828578633
181.037,250.742129985
181.052,250.655268213
181.067,250.567990591
181.082,250.48029439
181.097,250.392176875
181.112,250.303635317
181.127,250.214666977
181.142,250.125269125
181.157,250.03543903
181.172,249.945173963
181.187,249.854471203
181.202,249.763328031
181.217,249.671741743
181.232,249.579709637
181.247,249.487229031
181.262,249.394297251
181.277,249.300911639
181.292,249.207069557
181.307,249.112768386
181.31,249.093852832
181.322,249.018005527
181.337,248.922778411
181.352,248.827084492
181.367,248.730921256
181.382,248.634286217
181.397,248.537176933
181.412,248.439590995
181.427,248.341526037
181.442,248.242979738
181.457,248.14394983
181.472,248.04443409
181.487,247.94443036
181.502,247.843936538
181.517,247.742950589
181.532,247.641470543
181.547,247.539494511
181.562,247.437020677
181.577,247.334047314
181.592,247.23057278
181.607,247.12659553
181.622,247.022114121
181.637,246.917127213
181.652,246.811633585
181.667,246.70563213
181.682,246.599121873
181.697,246.49210197
181.712,246.384571717
181.727,246.276530563
181.742,246.167978114
181.757,246.05891414
181.772,245.949338588
181.787,245.839251587
181.802,245.728653463
181.817,245.617544745
181.832,245.505926177
181.847,245.393798728
181.862,245.281163604
181.877,245.16802226
181.892,245.054376413
181.907,244.940228054
181.922,244.82557946
181.937,244.710433213
181.952,244.594792208
181.967,244.478659669
181.982,244.362039173
181.997,244.244934654
182.012,244.12735043
182.027,244.009291213
182.042,243.89076213
182.057,243.771768746
182.06,243.747914874
182.072,243.652317078
182.087,243.532413614
182.102,243.412065343
182.117,243.291279764
182.132,243.170064921
182.147,243.048429416
182.162,242.926382439
182.177,242.803933788
182.192,242.681093903
182.207,242.557873878
182.222,242.434285506
182.237,242.310341288
182.252,242.186054476
182.267,242.061439093
182.282,241.936509967
182.297,241.811282761
182.312,241.685774004
182.327,241.560001117
182.342,241.433982454
182.357,241.307737327
182.372,241.181286039
182.387,241.05464992
182.402,240.927851359
182.417,240.800913826
182.432,240.673861922
182.447,240.546721392
182.462,240.419519165
182.477,240.292283373
182.492,240.165043396
182.507,240.037829866
182.522,239.910674702
182.537,239.783611119
182.552,239.656673659
182.567,239.529898178
182.582,239.403321879
182.597,239.276983285
182.612,239.150922245
182.627,239.025179913
182.642,238.899798718
182.657,238.774822331
182.672,238.650295599
182.687,238.526264491
182.702,238.402775991
182.717,238.279878007
182.732,238.157619224
182.747,238.036048939
182.762,237.915216868
182.777,237.79517291
182.792,237.675966853
182.807,237.557648045
182.822,237.440264994
182.837,237.323864894
182.852,237.208493063
182.867,237.094192289
182.882,236.98100204
182.897,236.868957552
182.912,236.75808872
182.927,236.648418817
182.942,236.539962933
182.957,236.432726142
182.972,236.326701292
182.987,236.221866351
183.002,236.118181222
183.017,236.015583869
183.032,235.913985618
183.047,235.813265444
183.062,235.713262972
183.077,235.613769932
183.092,235.514519713
183.107,235.415174688
183.122,235.315310995
183.137,235.214400756
183.152,235.11179236
183.167,235.006691239
183.182,234.898147634
183.197,234.78506788
183.212,234.666289374
183.227,234.540815329
183.242,234.408429725
183.257,234.271139868
183.367,234.293213795
183.382,234.426377233
183.397,234.553819734
183.412,234.674296538
183.427,234.788309862
183.442,234.896932629
183.457,235.001320923
183.472,235.10253369
183.487,235.201479745
183.502,235.298914825
183.517,235.395456505
183.532,235.491603893
183.547,235.587756929
183.562,235.684233516
183.577,235.78128405
183.592,235.879103486
183.607,235.97784125
183.622,236.077609364
183.637,236.17848907
183.652,236.28053628
183.667,236.383786029
183.682,236.488256169
183.697,236.593950404
183.712,236.70086081
183.727,236.808969958
183.742,236.918252667
183.757,237.028677477
183.772,237.1402079
183.787,237.25280346
183.802,237.366420586
183.817,237.48101335
183.832,237.596534108
183.847,237.712934037
183.862,237.830163579
183.877,237.94817283
183.892,238.066911863
183.907,238.186330997
183.922,238.306381024
183.937,238.427013401
183.952,238.548180403
183.967,238.669835254
183.982,238.791932229
183.997,238.91442674
184.012,239.037275395
184.027,239.16043606
184.042,239.283867882
184.057,239.407531321
184.072,239.531388167
184.087,239.655401539
184.102,239.779535891
184.117,239.903757004
184.132,240.02803197
184.147,240.152329181
184.162,240.276618311
184.177,240.400870281
184.192,240.525057249
184.207,240.649152575
184.222,240.773130784
184.237,240.896967555
184.252,241.020639676
184.267,241.144125012
184.282,241.267402479
184.297,241.390452011
184.312,241.513254521
184.327,241.635791878
184.342,241.758046865
184.357,241.880003158
184.372,242.001645284
184.387,242.122958599
184.402,242.243929254
184.417,242.364544167
184.432,242.484790986
184.447,242.604658078
184.462,242.724134483
184.477,242.843209898
184.492,242.96187465
184.507,243.080119667
184.522,243.197936457
184.537,243.315317084
184.552,243.432254141
184.56,243.494436799
184.567,243.548740733
184.582,243.664770453
184.597,243.780337364
184.612,243.895435972
184.627,244.010061216
184.642,244.124208439
184.657,244.237873385
184.672,244.351052164
184.687,244.463741246
184.702,244.575937446
184.717,244.687637902
184.732,244.798840062
184.747,244.909541677
184.762,245.019740776
184.777,245.129435663
184.792,245.238624893
184.807,245.347307275
184.822,245.455481843
184.837,245.56314786
184.852,245.670304798
184.867,245.776952328
184.882,245.883090318
184.897,245.988718814
184.912,246.093838034
184.927,246.198448362
184.942,246.302550336
184.957,246.406144645
184.972,246.509232111
184.987,246.611813694
185.002,246.713890474
185.017,246.815463658
185.032,246.916534556
185.047,247.017104587
185.062,247.11717527
185.077,247.21674822
185.092,247.315825133
185.107,247.414407796
185.122,247.512498071
185.137,247.610097895
185.152,247.707209269
185.167,247.803834266
185.182,247.899975011
185.197,247.995633693
185.212,248.090812546
185.227,248.185513859
185.242,248.279739963
185.257,248.37349323
185.272,248.466776074
185.287,248.559590942
185.302,248.651940315
185.31,248.701003843
185.317,248.743826702
185.332,248.835252642
185.347,248.926220696
185.362,249.016733453
185.377,249.106793513
185.392,249.196403502
185.407,249.28556606
185.422,249.374283838
185.437,249.462559503
185.452,249.550395727
185.467,249.637795197
185.482,249.7247606
185.497,249.811294636
185.512,249.897400004
185.527,249.983079405
185.542,250.068335544
185.557,250.153171126
185.572,250.237588852
185.587,250.321591424
185.602,250.405181537
185.617,250.488361886
185.632,250.571135157
185.647,250.653504034
185.662,250.735471188
185.677,250.817039286
185.692,250.898210987
185.707,250.97898894
185.722,251.059375784
185.737,251.139374146
185.752,251.218986644
185.767,251.298215883
185.782,251.377064457
185.797,251.455534946
185.812,251.533629917
185.827,251.611351925
185.842,251.68870351
185.857,251.765687196
185.872,251.842305497
185.887,251.918560906
185.902,251.994455906
185.917,252.069992961
185.932,252.145174523
185.947,252.220003023
185.96,252.284570672
185.962,252.294480881
185.977,252.368610494
185.992,252.442394252
186.007,252.515834521
186.022,252.58893365
186.037,252.661693976
186.052,252.734117817
186.06,252.772607073
186.067,252.806207469
186.082,252.877965219
186.097,252.949393332
186.112,253.020494055
186.127,253.09126962
186.142,253.161722242
186.157,253.231854113
186.172,253.301667418
186.187,253.371164317
186.202,253.440346949
186.217,253.509217447
186.232,253.577777919
186.247,253.646030455
186.262,253.713977133
186.277,253.781620007
186.292,253.848961121
186.307,253.916002494
186.322,253.982746138
186.337,254.049194036
186.352,254.115348166
186.367,254.181210479
186.382,254.246782916
186.397,254.312067399
186.412,254.377065831
186.427,254.441780105
186.442,254.50621209
186.457,254.570363643
186.472,254.634236604
186.487,254.697832796
186.502,254.761154028
186.517,254.824202093
186.532,254.886978764
186.547,254.949485803
186.562,255.011724955
186.577,255.07369795
186.592,255.1354065
186.607,255.196852305
186.622,255.258037049
186.637,255.318962401
186.652,255.379630014
186.667,255.440041526
186.682,255.500198566
186.697,255.56010274
186.71,255.611816383
186.712,255.619755643
186.727,255.679158859
186.742,255.738313956
186.757,255.797222486
186.772,255.855885988
186.787,255.914305988
186.802,255.972483999
186.817,256.030421518
186.832,256.088120034
186.847,256.145581014
186.862,256.202805921
186.877,256.259796197
186.892,256.316553282
186.907,256.37307859
186.922,256.429373531
186.937,256.485439499
186.952,256.541277879
186.967,256.596890042
186.982,256.652277344
186.997,256.707441135
187.012,256.762382746
187.027,256.817103503
187.042,256.871604715
187.057,256.925887684
187.072,256.979953695
187.087,257.033804028
187.102,257.08743995
187.117,257.140862714
187.132,257.194073562
187.147,257.247073731
187.162,257.29986444
187.177,257.352446904
187.192,257.404822321
187.207,257.456991885
187.222,257.508956775
187.237,257.560718163
187.252,257.612277206
187.267,257.663635058
187.282,257.714792857
187.297,257.765751736
187.312,257.816512816
187.327,257.867077208
187.342,257.917446014
187.357,257.967620328
187.372,258.017601232
187.387,258.067389801
187.402,258.116987104
187.417,258.166394193
187.432,258.215612117
187.447,258.264641917
187.46,258.306983032
187.462,258.313484619
187.477,258.362141249
187.492,258.410612818
187.507,258.458900332
187.522,258.507004786
187.537,258.55492717
187.552,258.602668462
187.567,258.650229637
187.582,258.697611658
187.597,258.744815479
187.612,258.791842052
187.627,258.838692316
187.642,258.885367203
187.657,258.93186764
187.672,258.978194545
187.687,259.024348828
187.702,259.070331395
187.717,259.116143139
187.732,259.161784948
187.747,259.207257709
187.762,259.25256229
187.777,259.297699564
187.792,259.342670389
187.807,259.387475622
187.822,259.432116107
187.837,259.476592686
187.852,259.520906196
187.867,259.565057459
187.882,259.6090473
187.897,259.652876532
187.912,259.696545964
187.927,259.740056396
187.942,259.783408626
187.957,259.826603443
187.972,259.86964163
187.987,259.912523963
188.002,259.955251216
188.017,259.997824152
188.032,260.040243532
188.047,260.082510109
188.062,260.12462463
188.077,260.166587839
188.092,260.208400471
188.107,260.250063258
188.122,260.291576925
188.137,260.33294219
188.152,260.374159769
188.167,260.415230369
188.182,260.456154699
188.197,260.496933449
188.21,260.532157815
188.212,260.537567318
188.227,260.578056992
188.242,260.618403153
188.257,260.658606477
188.272,260.69866764
188.287,260.738587306
188.302,260.778366139
188.317,260.818004795
188.332,260.857503925
188.347,260.896864181
188.362,260.936086201
188.377,260.975170625
188.392,261.014118086
188.407,261.052929213
188.422,261.091604628
188.437,261.130144948
188.452,261.168550793
188.467,261.206822769
188.482,261.244961482
188.497,261.282967532
188.512,261.320841518
188.527,261.358584028
188.542,261.396195652
188.557,261.433676975
188.572,261.471028572
188.587,261.508251019
188.602,261.545344887
188.617,261.582310741
188.632,261.619149144
188.647,261.655860653
188.66,261.687575079
188.662,261.69244582
188.677,261.728905198
188.692,261.765239331
188.707,261.801448758
188.722,261.837534021
188.737,261.873495647
188.752,261.90933417
