# 10410 EDZE Essen Observations at 12Z 18 Dec 2019
Frequency [GHz],TB
175.31,269.236817151
175.322,269.256847826
175.337,269.281726147
175.352,269.306425652
175.367,269.330945256
175.382,269.355283878
175.397,269.379440434
175.412,269.403413844
175.427,269.427203028
175.442,269.450806907
175.457,269.474224406
175.472,269.497454448
175.487,269.520495961
175.502,269.543347872
175.517,269.566009111
175.532,269.588478612
175.547,269.610755308
175.562,269.632838135
175.577,269.654726033
175.592,269.676417943
175.607,269.697912808
175.622,269.719209575
175.637,269.740307192
175.652,269.761204613
175.667,269.781900792
175.682,269.802394686
175.697,269.822685259
175.712,269.842771473
175.727,269.862652297
175.742,269.882326702
175.757,269.901793665
175.772,269.921052163
175.787,269.940101181
175.802,269.958939704
175.817,269.977566725
175.832,269.995981238
175.847,270.014182244
175.862,270.032168746
175.877,270.049939754
175.892,270.067494282
175.907,270.084831349
175.922,270.101949977
175.937,270.118849196
175.952,270.13552804
175.967,270.151985548
175.982,270.168220766
175.997,270.184232745
176.012,270.200020541
176.027,270.215583216
176.042,270.230919839
176.057,270.246029484
176.072,270.260911233
176.087,270.275564174
176.102,270.2899874
176.117,270.304180012
176.132,270.318141117
176.147,270.331869832
176.162,270.345365276
176.177,270.358626579
176.192,270.371652878
176.207,270.384443317
176.222,270.396997047
176.237,270.409313228
176.252,270.421391026
176.267,270.433229618
176.282,270.444828187
176.297,270.456185925
176.31,270.465833875
176.312,270.467302033
176.327,270.478175719
176.342,270.488806201
176.357,270.499192707
176.372,270.509334471
176.387,270.519230739
176.402,270.528880764
176.417,270.538283811
176.432,270.547439153
176.447,270.556346071
176.46,270.563863908
176.462,270.56500386
176.477,270.573411822
176.492,270.581569269
176.507,270.589475524
176.522,270.597129921
176.537,270.604531803
176.552,270.611680525
176.567,270.618575452
176.582,270.62521596
176.597,270.631601436
176.612,270.637731279
176.627,270.643604897
176.642,270.649221711
176.657,270.654581154
176.672,270.659682669
176.687,270.664525714
176.702,270.669109753
176.717,270.673434268
176.732,270.677498751
176.747,270.681302704
176.762,270.684845644
176.777,270.6881271
176.792,270.691146613
176.807,270.693903737
176.822,270.696398039
176.837,270.698629097
176.852,270.700596506
176.867,270.702299869
176.882,270.703738807
176.897,270.704912952
176.912,270.705821948
176.927,270.706465455
176.942,270.706843146
176.957,270.706954708
176.972,270.706799839
176.987,270.706378254
177.002,270.705689681
177.017,270.704733862
177.032,270.703510554
177.047,270.702019525
177.062,270.70026056
177.077,270.698233459
177.092,270.695938034
177.107,270.693374113
177.122,270.690541539
177.137,270.687440167
177.152,270.684069869
177.167,270.680430532
177.182,270.676522055
177.197,270.672344354
177.21,270.668505854
177.212,270.66789736
177.227,270.663181019
177.242,270.658195289
177.257,270.652940146
177.272,270.647415581
177.287,270.641621597
177.302,270.635558216
177.31,270.63221427
177.317,270.629225472
177.332,270.622623415
177.347,270.61575211
177.362,270.608611638
177.377,270.601202094
177.392,270.593523588
177.407,270.585576245
177.422,270.577360207
177.437,270.568875628
177.452,270.560122678
177.467,270.551101544
177.482,270.541812426
177.497,270.532255539
177.512,270.522431113
177.527,270.512339393
177.542,270.501980639
177.557,270.491355126
177.572,270.480463144
177.587,270.469304995
177.602,270.457880999
177.617,270.446191488
177.632,270.434236811
177.647,270.422017328
177.66,270.411213201
177.662,270.409533416
177.677,270.396785464
177.692,270.383773878
177.707,270.370499076
177.722,270.356961489
177.737,270.343161563
177.752,270.329099758
177.767,270.314776547
177.782,270.300192415
177.797,270.285347864
177.812,270.270243404
177.827,270.254879563
177.842,270.239256878
177.857,270.223375901
177.872,270.207237195
177.887,270.190841336
177.902,270.174188913
177.917,270.157280525
177.932,270.140116785
177.947,270.122698315
177.96,270.107396751
177.962,270.105025752
177.977,270.08709974
177.992,270.068920938
178.007,270.050490013
178.022,270.031807644
178.037,270.01287452
178.052,269.99369134
178.067,269.974258813
178.082,269.954577658
178.097,269.934648604
178.112,269.914472386
178.127,269.894049753
178.142,269.873381458
178.157,269.852468265
178.172,269.831310946
178.187,269.80991028
178.202,269.788267054
178.217,269.766382063
178.232,269.744256108
178.247,269.721889997
178.262,269.699284544
178.277,269.676440571
178.292,269.653358904
178.307,269.630040374
178.322,269.60648582
178.337,269.582696083
178.352,269.558672009
178.367,269.53441445
178.382,269.509924261
178.397,269.4852023
178.41,269.463589788
178.412,269.460249428
178.427,269.43506651
178.442,269.409654413
178.457,269.384014006
178.472,269.35814616
178.487,269.332051747
178.502,269.30573164
178.517,269.279186714
178.532,269.252417844
178.547,269.225425904
178.562,269.198211767
178.577,269.170776308
178.592,269.143120399
178.607,269.115244909
178.622,269.087150709
178.637,269.058838665
178.652,269.030309639
178.667,269.001564494
178.682,268.972604085
178.697,268.943429267
178.712,268.914040889
178.727,268.884439795
178.742,268.854626824
178.757,268.82460281
178.772,268.794368582
178.787,268.763924961
178.802,268.733272763
178.817,268.702412795
178.832,268.671345859
178.847,268.640072747
178.862,268.608594243
178.877,268.576911124
178.892,268.545024157
178.907,268.512934099
178.922,268.480641698
178.937,268.448147691
178.952,268.415452804
178.967,268.382557755
178.982,268.349463246
178.997,268.316169971
179.012,268.282678611
179.027,268.248989831
179.042,268.215104288
179.057,268.181022624
179.072,268.146745465
179.087,268.112273425
179.102,268.077607104
179.117,268.042747086
179.132,268.00769394
179.147,267.972448219
179.16,267.941746572
179.162,267.937010461
179.177,267.901381188
179.192,267.865560904
179.207,267.829550097
179.222,267.793349237
179.237,267.756958776
179.252,267.72037915
179.267,267.683610774
179.282,267.646654045
179.297,267.609509344
179.312,267.572177028
179.327,267.534657436
179.342,267.496950889
179.357,267.459057686
179.372,267.420978105
179.387,267.382712403
179.402,267.344260818
179.417,267.305623564
179.432,267.266800835
179.447,267.227792801
179.462,267.188599612
179.477,267.149221393
179.492,267.109658249
179.507,267.069910259
179.522,267.02997748
179.537,266.989859945
179.552,266.949557665
179.567,266.909070623
179.582,266.868398781
179.597,266.827542075
179.612,266.786500416
179.627,266.745273691
179.642,266.703861761
179.657,266.662264461
179.672,266.620481602
179.687,266.578512967
179.702,266.536358313
179.717,266.494017374
179.732,266.451489853
179.747,266.408775429
179.762,266.365873754
179.777,266.322784452
179.792,266.27950712
179.807,266.236041328
179.822,266.192386618
179.837,266.148542505
179.852,266.104508474
179.867,266.060283985
179.882,266.015868467
179.897,265.971261322
179.91,265.932446308
179.912,265.926461923
179.927,265.881469615
179.942,265.836283713
179.957,265.790903504
179.972,265.745328244
179.987,265.699557162
180.002,265.653589455
180.017,265.607424294
180.032,265.561060816
180.047,265.514498131
180.062,265.467735317
180.077,265.420771423
180.092,265.373605467
180.107,265.326236438
180.122,265.278663291
180.137,265.230884953
180.152,265.18290032
180.167,265.134708254
180.182,265.086307589
180.197,265.037697126
180.212,264.988875634
180.227,264.939841851
180.242,264.890594481
180.257,264.8411322
180.272,264.791453646
180.287,264.741557431
180.302,264.691442127
180.317,264.64110628
180.332,264.590548398
180.347,264.539766958
180.362,264.488760403
180.377,264.437527142
180.392,264.38606555
180.407,264.334373968
180.422,264.282450703
180.437,264.230294027
180.452,264.177902177
180.467,264.125273354
180.482,264.072405727
180.497,264.019297426
180.512,263.965946545
180.527,263.912351144
180.542,263.858509245
180.557,263.804418834
180.56,263.79357075
180.572,263.750077859
180.587,263.695484232
180.602,263.640635826
180.617,263.585530477
180.632,263.530165983
180.647,263.474540101
180.66,263.426117808
180.662,263.418650551
180.677,263.362495014
180.692,263.30607113
180.707,263.2493765
180.722,263.192408683
180.737,263.135165199
180.752,263.077643525
180.767,263.019841098
180.782,262.961755311
180.797,262.903383517
180.812,262.844723025
180.827,262.785771099
180.842,262.726524963
180.857,262.666981792
180.872,262.607138722
180.887,262.546992839
180.902,262.486541187
180.917,262.425780761
180.932,262.364708512
180.947,262.303321344
180.962,262.241616113
180.977,262.179589627
180.992,262.117238646
181.007,262.054559882
181.022,261.991549996
181.037,261.928205603
181.052,261.864523265
181.067,261.800499494
181.082,261.736130753
181.097,261.671413451
181.112,261.606343947
181.127,261.540918549
181.142,261.47513351
181.157,261.408985032
181.172,261.342469264
181.187,261.275582302
181.202,261.208320186
181.217,261.140678904
181.232,261.072654391
181.247,261.004242524
181.262,260.93543913
181.277,260.866239979
181.292,260.796640785
181.307,260.72663721
181.31,260.712587584
181.322,260.656224861
181.337,260.58539929
181.352,260.514155993
181.367,260.442490415
181.382,260.370397946
181.397,260.297873921
181.412,260.224913624
181.427,260.151512287
181.442,260.077665088
181.457,260.003367157
181.472,259.928613571
181.487,259.85339936
181.502,259.777719505
181.517,259.701568942
181.532,259.62494256
181.547,259.547835204
181.562,259.470241681
181.577,259.392156752
181.592,259.313575146
181.607,259.234491554
181.622,259.154900633
181.637,259.074797013
181.652,258.994175293
181.667,258.913030053
181.682,258.831355849
181.697,258.749147223
181.712,258.666398704
181.727,258.583104815
181.742,258.499260074
181.757,258.414859003
181.772,258.329896134
181.787,258.244366011
181.802,258.158263201
181.817,258.071582298
181.832,257.984317932
181.847,257.896464777
181.862,257.808017559
181.877,257.718971066
181.892,257.629320156
181.907,257.539059772
181.922,257.448184945
181.937,257.356690816
181.952,257.26457264
181.967,257.171825805
181.982,257.078445842
181.997,256.984428446
182.012,256.889769484
182.027,256.79446502
182.042,256.698511328
182.057,256.601904912
182.06,256.582505012
182.072,256.50464253
182.087,256.406721207
182.102,256.308138268
182.117,256.208891353
182.132,256.108978447
182.147,256.008397904
182.162,255.907148477
182.177,255.805229343
182.192,255.702640141
182.207,255.599380995
182.222,255.495452554
182.237,255.390856026
182.252,255.285593213
182.267,255.179666551
182.282,255.073079149
182.297,254.965834829
182.312,254.857938176
182.327,254.749394571
182.342,254.640210248
182.357,254.530392335
182.372,254.419948907
182.387,254.30888903
182.402,254.197222819
182.417,254.084961486
182.432,253.972117393
182.447,253.858704103
182.462,253.744736438
182.477,253.630230526
182.492,253.515203855
182.507,253.399675323
182.522,253.283665284
182.537,253.167195597
182.552,253.050289664
182.567,252.932972465
182.582,252.815270596
182.597,252.697212283
182.612,252.578827404
182.627,252.460147488
182.642,252.341205708
182.657,252.222036858
182.672,252.102677308
182.687,251.983164944
182.702,251.863539077
182.717,251.743840334
182.732,251.624110498
182.747,251.50439233
182.762,251.384729328
182.777,251.265165446
182.792,251.145744748
182.807,251.026510991
182.822,250.907507127
182.837,250.788774718
182.852,250.670353234
182.867,250.55227923
182.882,250.434585379
182.897,250.317299331
182.912,250.200442386
182.927,250.084027933
182.942,249.968059625
182.957,249.852529261
182.972,249.737414311
182.987,249.622675039
183.002,249.508251183
183.017,249.394058124
183.032,249.279982526
183.047,249.165877426
183.062,249.051556845
183.077,248.936790116
183.092,248.82129634
183.107,248.704739879
183.122,248.586728531
183.137,248.466817505
183.152,248.344524808
183.167,248.219367991
183.182,248.090939564
183.197,247.959050018
183.212,247.823983992
183.227,247.686932202
183.242,247.550659066
183.257,247.42038395
183.367,247.435908715
183.382,247.564150723
183.397,247.696843047
183.412,247.82947074
183.427,247.959739705
183.442,248.086737579
183.457,248.21032932
183.472,248.330776155
183.487,248.448513224
183.502,248.56402708
183.517,248.677792119
183.532,248.790240404
183.547,248.901749818
183.562,249.012641892
183.577,249.123184484
183.592,249.233596632
183.607,249.34405416
183.622,249.454695283
183.637,249.565625877
183.652,249.676924232
183.667,249.788645275
183.682,249.900824254
183.697,250.013479941
183.712,250.126617397
183.727,250.240230351
183.742,250.354303239
183.757,250.46881296
183.772,250.58373037
183.787,250.699021566
183.802,250.81464898
183.817,250.930572309
183.832,251.046749306
183.847,251.163136455
183.862,251.279689535
183.877,251.396364098
183.892,251.513115868
183.907,251.629901074
183.922,251.746676722
183.937,251.86340082
183.952,251.980032557
183.967,252.096532447
183.982,252.212862439
183.997,252.328985998
184.012,252.444868166
184.027,252.560475604
184.042,252.675776606
184.057,252.790741115
184.072,252.90534071
184.087,253.019548598
184.102,253.133339584
184.117,253.246690043
184.132,253.359577882
184.147,253.471982503
184.162,253.583884751
184.177,253.695266871
184.192,253.806112459
184.207,253.916406408
184.222,254.026134861
184.237,254.135285152
184.252,254.243845761
184.267,254.351806257
184.282,254.459157251
184.297,254.565890341
184.312,254.671998068
184.327,254.777473863
184.342,254.882312005
184.357,254.98650757
184.372,255.090056394
184.387,255.192955024
184.402,255.295200679
184.417,255.396791215
184.432,255.497725081
184.447,255.598001285
184.462,255.697619361
184.477,255.796579335
184.492,255.894881692
184.507,255.992527346
184.522,256.089517613
184.537,256.185854181
184.552,256.281539087
184.56,256.332305381
184.567,256.376574689
184.582,256.470963645
184.597,256.564708888
184.612,256.65781361
184.627,256.750281234
184.642,256.842115403
184.657,256.933319957
184.672,257.023898919
184.687,257.113856475
184.702,257.203196966
184.717,257.291924865
184.732,257.380044772
184.747,257.467561394
184.762,257.554479539
184.777,257.640804101
184.792,257.726540052
184.807,257.811692431
184.822,257.896266334
184.837,257.980266908
184.852,258.063699339
184.867,258.146568849
184.882,258.228880684
184.897,258.310640113
184.912,258.391852416
184.927,258.472522882
184.942,258.552656804
184.957,258.63225947
184.972,258.711336164
184.987,258.789892157
185.002,258.867932706
185.017,258.945463046
185.032,259.022488395
185.047,259.099013941
185.062,259.175044846
185.077,259.25058624
185.092,259.325643222
185.107,259.400220852
185.122,259.474324155
185.137,259.547958115
185.152,259.621127676
185.167,259.693837739
185.182,259.766093161
185.197,259.837898753
185.212,259.909259282
185.227,259.980179466
185.242,260.050663975
185.257,260.12071743
185.272,260.190344404
185.287,260.259549418
185.302,260.328336945
185.31,260.364854448
185.317,260.396711405
185.332,260.464677168
185.347,260.532238554
185.362,260.599399828
185.377,260.666165206
185.392,260.732538854
185.407,260.798524882
185.422,260.864127353
185.437,260.929350275
185.452,260.994197608
185.467,261.058673258
185.482,261.122781082
185.497,261.186524886
185.512,261.249908427
185.527,261.312935409
185.542,261.375609489
185.557,261.437934273
185.572,261.49991332
185.587,261.561550139
185.602,261.622848191
185.617,261.683810889
185.632,261.744441601
185.647,261.804743645
185.662,261.864720294
185.677,261.924374776
185.692,261.983710272
185.707,262.042729918
185.722,262.101436808
185.737,262.159833987
185.752,262.217924462
185.767,262.275711194
185.782,262.3331971
185.797,262.390385057
185.812,262.4472779
185.827,262.503878423
185.842,262.560189377
185.857,262.616213476
185.872,262.671953392
185.887,262.727411758
185.902,262.782591168
185.917,262.837494179
185.932,262.892123307
185.947,262.946481033
185.96,262.993373417
185.962,263.0005698
185.977,263.054392014
185.992,263.107950045
186.007,263.161246227
186.022,263.214282858
186.037,263.267062202
186.052,263.319586488
186.06,263.347495909
186.067,263.37185791
186.082,263.423878629
186.097,263.475650771
186.112,263.527176431
186.127,263.578457668
186.142,263.629496513
186.157,263.680294962
186.172,263.730854978
186.187,263.781178495
186.202,263.831267416
186.217,263.881123612
186.232,263.930748924
186.247,263.980145163
186.262,264.029314109
186.277,264.078257514
186.292,264.1269771
186.307,264.175474561
186.322,264.223751561
186.337,264.271809736
186.352,264.319650694
186.367,264.367276015
186.382,264.414687252
186.397,264.46188593
186.412,264.508873547
186.427,264.555651575
186.442,264.602221456
186.457,264.648584611
186.472,264.69474243
186.487,264.74069628
186.502,264.786447502
186.517,264.831997409
186.532,264.877347291
186.547,264.922498414
186.562,264.967452016
186.577,265.012209312
186.592,265.056771493
186.607,265.101139725
186.622,265.145315149
186.637,265.189298885
186.652,265.233092026
186.667,265.276695644
186.682,265.320110786
186.697,265.363338477
186.71,265.400651623
186.712,265.406379718
186.727,265.449235488
186.742,265.491906744
186.757,265.534394418
186.772,265.576699423
186.787,265.618822647
186.802,265.660764959
186.817,265.702527204
186.832,265.744110206
186.847,265.785514769
186.862,265.826741673
186.877,265.867791679
186.892,265.908665528
186.907,265.949363937
186.922,265.989887605
186.937,266.030237211
186.952,266.070413412
186.967,266.110416846
186.982,266.150248131
186.997,266.189907866
187.012,266.229396628
187.027,266.268714978
187.042,266.307863456
187.057,266.346842582
187.072,266.38565286
187.087,266.424294773
187.102,266.462768787
187.117,266.501075348
187.132,266.539214886
187.147,266.577187812
187.162,266.614994519
187.177,266.652635382
187.192,266.690110761
187.207,266.727420995
187.222,266.764566411
187.237,266.801547314
187.252,266.838363996
187.267,266.875016731
187.282,266.911505778
187.297,266.947831378
187.312,266.983993758
187.327,267.019993128
187.342,267.055829685
187.357,267.091503607
187.372,267.12701506
187.387,267.162364195
187.402,267.197551146
187.417,267.232576036
187.432,267.267438971
187.447,267.302140044
187.46,267.332083442
187.462,267.336679336
187.477,267.371056911
187.492,267.405272823
187.507,267.43932711
187.522,267.4732198
187.537,267.506950907
187.552,267.540520431
187.567,267.573928364
187.582,267.60717468
187.597,267.640259348
187.612,267.67318232
187.627,267.705943539
187.642,267.738542939
187.657,267.770980438
187.672,267.803255949
187.687,267.835369371
187.702,267.867320594
187.717,267.899109498
187.732,267.930735954
187.747,267.962199823
187.762,267.993500957
187.777,268.0246392
187.792,268.055614384
187.807,268.086426337
187.822,268.117074876
187.837,268.147559812
187.852,268.177880946
187.867,268.208038072
187.882,268.238030979
187.897,268.267859447
187.912,268.29752325
187.927,268.327022154
187.942,268.356355921
187.957,268.385524306
187.972,268.414527058
187.987,268.443363922
188.002,268.472034634
188.017,268.500538929
188.032,268.528876535
188.047,268.557047175
188.062,268.585050571
188.077,268.612886437
188.092,268.640554485
188.107,268.668054423
188.122,268.695385956
188.137,268.722548785
188.152,268.749542608
188.167,268.776367123
188.182,268.803022021
188.197,268.829506995
188.21,268.852322948
188.212,268.855821732
188.227,268.881965922
188.242,268.90793925
188.257,268.933741399
188.272,268.959372054
188.287,268.984830896
188.302,269.010117608
188.317,269.03523187
188.332,269.060173364
188.347,269.084941771
188.362,269.109536771
188.377,269.133958047
188.392,269.158205279
188.407,269.182278151
188.422,269.206176346
188.437,269.229899549
188.452,269.253447446
188.467,269.276819726
188.482,269.300016077
188.497,269.323036191
188.512,269.345879761
188.527,269.368546482
188.542,269.391036054
188.557,269.413348177
188.572,269.435482555
188.587,269.457438893
188.602,269.479216903
188.617,269.500816296
188.632,269.52223679
188.647,269.543478105
188.66,269.561742095
188.662,269.564539965
188.677,269.585422097
188.692,269.606124233
188.707,269.626646111
188.722,269.64698747
188.737,269.667148055
