# 01004 ENAS Ny-Alesund Ii Observations at 12Z 13 Jul 2019
Frequency [GHz],TB
175.31,264.976878594
175.322,264.998426463
175.337,265.025210947
175.352,265.051827428
175.367,265.078274894
175.382,265.104552348
175.397,265.130658775
175.412,265.156593177
175.427,265.182354551
175.442,265.207941894
175.457,265.233354208
175.472,265.258590503
175.487,265.283649779
175.502,265.308531044
175.517,265.33323331
175.532,265.357755592
175.547,265.382096903
175.562,265.406256262
175.577,265.430232688
175.592,265.454025208
175.607,265.477632848
175.622,265.501054634
175.637,265.524289602
175.652,265.547336785
175.667,265.570195231
175.682,265.592863975
175.697,265.615342068
175.712,265.637628553
175.727,265.659722492
175.742,265.681622943
175.757,265.703328965
175.772,265.724839623
175.787,265.746153993
175.802,265.767271146
175.817,265.788190161
175.832,265.808910123
175.847,265.829430123
175.862,265.849749256
175.877,265.869866615
175.892,265.889781307
175.907,265.909492444
175.922,265.928999135
175.937,265.948300503
175.952,265.967395673
175.967,265.986283772
175.982,266.004963946
175.997,266.023435332
176.012,266.041697075
176.027,266.059748337
176.042,266.07758828
176.057,266.095216064
176.072,266.112630873
176.087,266.129831877
176.102,266.146818273
176.117,266.16358925
176.132,266.180144012
176.147,266.196481769
176.162,266.212601734
176.177,266.228503133
176.192,266.244185195
176.207,266.259647161
176.222,266.274888272
176.237,266.289907788
176.252,266.304704967
176.267,266.319279082
176.282,266.333629412
176.297,266.347755242
176.31,266.359815488
176.312,266.361655864
176.327,266.37533059
176.342,266.388778726
176.357,266.401999594
176.372,266.414992526
176.387,266.42775686
176.402,266.440291946
176.417,266.452597139
176.432,266.464671808
176.447,266.47651533
176.46,266.486592269
176.462,266.488127093
176.477,266.499506486
176.492,266.510652924
176.507,266.521565817
176.522,266.532244589
176.537,266.542688683
176.552,266.552897537
176.567,266.562870613
176.582,266.572607375
176.597,266.582107305
176.612,266.591369885
176.627,266.600394622
176.642,266.609181014
176.657,266.617728594
176.672,266.626036888
176.687,266.634105439
176.702,266.641933802
176.717,266.64952154
176.732,266.656868233
176.747,266.663973471
176.762,266.670836847
176.777,266.67745798
176.792,266.683836488
176.807,266.68997201
176.822,266.69586419
176.837,266.701512688
176.852,266.706917174
176.867,266.712077332
176.882,266.71699286
176.897,266.721663459
176.912,266.726088851
176.927,266.730268769
176.942,266.734202956
176.957,266.737891168
176.972,266.741333174
176.987,266.744528759
177.002,266.747477714
177.017,266.750179842
177.032,266.752634966
177.047,266.754842918
177.062,266.756803541
177.077,266.75851669
177.092,266.75998224
177.107,266.761200068
177.122,266.762170072
177.137,266.762892158
177.152,266.763366249
177.167,266.763592273
177.182,266.76357018
177.197,266.763299929
177.21,266.762864952
177.212,266.762781487
177.227,266.762014837
177.242,266.760999987
177.257,266.759736928
177.272,266.758225694
177.287,266.756466317
177.302,266.754458846
177.31,266.753286766
177.317,266.75220333
177.332,266.749699848
177.347,266.746948484
177.362,266.743949334
177.377,266.740702497
177.392,266.73720811
177.407,266.733466292
177.422,266.729477189
177.437,266.725240964
177.452,266.720757778
177.467,266.716027814
177.482,266.711051263
177.497,266.705828326
177.512,266.700359217
177.527,266.694644164
177.542,266.688683402
177.557,266.682477179
177.572,266.676025752
177.587,266.669329393
177.602,266.662388378
177.617,266.655203
177.632,266.647773553
177.647,266.640100355
177.66,266.633253328
177.662,266.632183725
177.677,266.624023989
177.692,266.615621489
177.707,266.606976573
177.722,266.598089603
177.737,266.588960941
177.752,266.579590964
177.767,266.569980056
177.782,266.560128609
177.797,266.550037027
177.812,266.539705716
177.827,266.529135093
177.842,266.51832558
177.857,266.507277609
177.872,266.495991614
177.887,266.484468047
177.902,266.472707347
177.917,266.460709982
177.932,266.448476403
177.947,266.436007086
177.96,266.425010017
177.962,266.423302494
177.977,266.410363119
177.992,266.397189429
178.007,266.383781917
178.022,266.370141073
178.037,266.35626739
178.052,266.342161364
178.067,266.327823496
178.082,266.313254285
178.097,266.298454241
178.112,266.283423867
178.127,266.268163672
178.142,266.252674162
178.157,266.236955855
178.172,266.221009251
178.187,266.204834861
178.202,266.188433202
178.217,266.171804781
178.232,266.154950097
178.247,266.137869664
178.262,266.120563983
178.277,266.103033559
178.292,266.085278884
178.307,266.067300455
178.322,266.049098767
178.337,266.030674302
178.352,266.012027551
178.367,265.993158982
178.382,265.97406907
178.397,265.954758283
178.41,265.937843956
178.412,265.935227073
178.427,265.915475906
178.442,265.895505217
178.457,265.875315445
178.472,265.85490702
178.487,265.834280357
178.502,265.813435878
178.517,265.792373976
178.532,265.771095042
178.547,265.749599462
178.562,265.727887597
178.577,265.705959806
178.592,265.68381644
178.607,265.661457826
178.622,265.638884284
178.637,265.61609612
178.652,265.593093626
178.667,265.569877074
178.682,265.54644673
178.697,265.522802841
178.712,265.498945635
178.727,265.47487532
178.742,265.450592096
178.757,265.426096139
178.772,265.401387611
178.787,265.376466648
178.802,265.351333379
178.817,265.3259879
178.832,265.300430297
178.847,265.274660623
178.862,265.248678924
178.877,265.222485219
178.892,265.196079497
178.907,265.16946174
178.922,265.142631894
178.937,265.115589882
178.952,265.088335608
178.967,265.060868955
178.982,265.033189766
178.997,265.005297873
179.012,264.977193078
179.027,264.948875154
179.042,264.920343842
179.057,264.89159887
179.072,264.86263993
179.087,264.833466679
179.102,264.804078758
179.117,264.774475766
179.132,264.744657285
179.147,264.714622861
179.16,264.688417977
179.162,264.684372009
179.177,264.653904208
179.192,264.623218916
179.207,264.592315554
179.222,264.561193512
179.237,264.529852148
179.252,264.498290783
179.267,264.46650871
179.282,264.434505187
179.297,264.402279437
179.312,264.369830651
179.327,264.337157978
179.342,264.304260542
179.357,264.271137425
179.372,264.237787681
179.387,264.204210317
179.402,264.170404311
179.417,264.136368604
179.432,264.102102101
179.447,264.067603666
179.462,264.032872126
179.477,263.997906279
179.492,263.962704866
179.507,263.927266616
179.522,263.891590201
179.537,263.855674258
179.552,263.819517389
179.567,263.783118153
179.582,263.746475072
179.597,263.709586633
179.612,263.672451275
179.627,263.635067399
179.642,263.597433376
179.657,263.559547522
179.672,263.521408128
179.687,263.483013429
179.702,263.444361637
179.717,263.405450908
179.732,263.366279367
179.747,263.326845095
179.762,263.287146138
179.777,263.247180487
179.792,263.20694611
179.807,263.166440922
179.822,263.125662802
179.837,263.084609584
179.852,263.043279068
179.867,263.001669008
179.882,262.959777116
179.897,262.917601071
179.91,262.880816818
179.912,262.8751385
179.927,262.832386995
179.942,262.789344112
179.957,262.746007354
179.972,262.702374197
179.987,262.658442063
180.002,262.614208348
180.017,262.569670395
180.032,262.524825514
180.047,262.479670966
180.062,262.434203987
180.077,262.388421757
180.092,262.342321427
180.107,262.295900102
180.122,262.249154853
180.137,262.202082704
180.152,262.154680645
180.167,262.106945625
180.182,262.058874561
180.197,262.010464316
180.212,261.961711728
180.227,261.912613595
180.242,261.863166669
180.257,261.813367676
180.272,261.76321329
180.287,261.712700156
180.302,261.661824883
180.317,261.610584047
180.332,261.558974168
180.347,261.506991755
180.362,261.454633264
180.377,261.401895121
180.392,261.348773713
180.407,261.295265403
180.422,261.241366499
180.437,261.187073297
180.452,261.132382044
180.467,261.077288954
180.482,261.021790218
180.497,260.965881981
180.512,260.909560366
180.527,260.852821462
180.542,260.795661317
180.557,260.73807596
180.56,260.726507512
180.572,260.68006138
180.587,260.621613545
180.602,260.562728382
180.617,260.503401799
180.632,260.443629665
180.647,260.383407832
180.66,260.330848588
180.662,260.322732115
180.677,260.26159831
180.692,260.200002178
180.707,260.137939453
180.722,260.075405861
180.737,260.012397081
180.752,259.948908784
180.767,259.884936613
180.782,259.820476188
180.797,259.755523103
180.812,259.690072939
180.827,259.624121252
180.842,259.557663585
180.857,259.490695455
180.872,259.423212371
180.887,259.355209815
180.902,259.286683265
180.917,259.217628177
180.932,259.148039996
180.947,259.077914164
180.962,259.007246094
180.977,258.936031216
180.992,258.864264923
181.007,258.791942632
181.022,258.719059734
181.037,258.645611622
181.052,258.571593689
181.067,258.497001335
181.082,258.421829955
181.097,258.346074943
181.112,258.269731713
181.127,258.192795679
181.142,258.115262266
181.157,258.037126912
181.172,257.958385071
181.187,257.87903222
181.202,257.799063844
181.217,257.718475465
181.232,257.637262626
181.247,257.555420896
181.262,257.472945881
181.277,257.38983322
181.292,257.306078599
181.307,257.221677738
181.31,257.204719642
181.322,257.136626408
181.337,257.050920441
181.352,256.964555703
181.367,256.877528146
181.382,256.78983377
181.397,256.701468651
181.412,256.61242894
181.427,256.522710867
181.442,256.432310759
181.457,256.34122502
181.472,256.249450166
181.487,256.156982812
181.502,256.063819687
181.517,255.969957643
181.532,255.875393662
181.547,255.780124853
181.562,255.684148479
181.577,255.587461943
181.592,255.490062829
181.607,255.391948874
181.622,255.29311801
181.637,255.193568352
181.652,255.093298229
181.667,254.992306174
181.682,254.890590951
181.697,254.788151562
181.712,254.684987265
181.727,254.581097582
181.742,254.47648231
181.757,254.371141549
181.772,254.265075701
181.787,254.158285501
181.802,254.050772028
181.817,253.942536712
181.832,253.833581371
181.847,253.723908217
181.862,253.613519879
181.877,253.502419424
181.892,253.390610383
181.907,253.278096757
181.922,253.164883057
181.937,253.050974324
181.952,252.936376146
181.967,252.821094692
181.982,252.705136739
181.997,252.588509679
182.012,252.471221584
182.027,252.353281195
182.042,252.234697991
182.057,252.115482182
182.06,252.091564062
182.072,251.995644777
182.087,251.875197586
182.102,251.75415327
182.117,251.632525383
182.132,251.51032839
182.147,251.38757771
182.162,251.264289759
182.177,251.140481989
182.192,251.016172915
182.207,250.891382177
182.222,250.766130548
182.237,250.640440018
182.252,250.514333792
182.267,250.387836371
182.282,250.260973579
182.297,250.13377259
182.312,250.006262013
182.327,249.8784719
182.342,249.750433797
182.357,249.622180816
182.372,249.493747641
182.387,249.365170598
182.402,249.23648769
182.417,249.107738635
182.432,248.978964922
182.447,248.850209844
182.462,248.721518534
182.477,248.592938003
182.492,248.464517187
182.507,248.336306968
182.522,248.208360222
182.537,248.080731822
182.552,247.953478691
182.567,247.82665981
182.582,247.700336224
182.597,247.574571083
182.612,247.449429643
182.627,247.324979242
182.642,247.201289328
182.657,247.078431457
182.672,246.956479238
182.687,246.835508346
182.702,246.715596479
182.717,246.596823315
182.732,246.479270477
182.747,246.363021459
182.762,246.248161572
182.777,246.134777854
182.792,246.022958998
182.807,245.912795233
182.822,245.804378217
182.837,245.697800921
182.852,245.59315748
182.867,245.490543029
182.882,245.390053573
182.897,245.291785769
182.912,245.195836759
182.927,245.102303941
182.942,245.011284765
182.957,244.922876491
182.972,244.837175925
182.987,244.754279185
183.002,244.674281406
183.017,244.597276443
183.032,244.523356619
183.047,244.452612363
183.062,244.385131937
183.077,244.321001098
183.092,244.260302782
183.107,244.203116765
183.122,244.149519366
183.137,244.099583094
183.152,244.053376361
183.167,244.010963135
183.182,243.972402691
183.197,243.937749298
183.212,243.907051963
183.227,243.88035419
183.242,243.857693757
183.257,243.839102526
183.367,243.828604996
183.382,243.84432479
183.397,243.86410778
183.412,243.88792093
183.427,243.915725329
183.442,243.947476411
183.457,243.983124185
183.472,244.022613475
183.487,244.065884189
183.502,244.112871613
183.517,244.163506713
183.532,244.217716424
183.547,244.275423995
183.562,244.336549299
183.577,244.401009148
183.592,244.46871764
183.607,244.539586461
183.622,244.613525216
183.637,244.690441717
183.652,244.770242326
183.667,244.852832204
183.682,244.938115625
183.697,245.02599622
183.712,245.116377263
183.727,245.209161892
183.742,245.304253346
183.757,245.401555199
183.772,245.500971534
183.787,245.602407149
183.802,245.705767733
183.817,245.810960018
183.832,245.917891933
183.847,246.026472738
183.862,246.136613139
183.877,246.248225401
183.892,246.361223448
183.907,246.475522943
183.922,246.59104136
183.937,246.707698058
183.952,246.825414329
183.967,246.944113441
183.982,247.063720669
183.997,247.184163349
184.012,247.305370864
184.027,247.427274678
184.042,247.549808334
184.057,247.672907467
184.072,247.79650979
184.087,247.920555071
184.102,248.044985151
184.117,248.169743889
184.132,248.294777167
184.147,248.420032853
184.162,248.545460765
184.177,248.671012657
184.192,248.796642162
184.207,248.922304775
184.222,249.047957808
184.237,249.173560344
184.252,249.299073213
184.267,249.424458925
184.282,249.549681656
184.297,249.674707178
184.312,249.799502834
184.327,249.924037487
184.342,250.048281472
184.357,250.172206564
184.372,250.295785923
184.387,250.418994044
184.402,250.541806736
184.417,250.664201063
184.432,250.786155301
184.447,250.907648903
184.462,251.028662454
184.477,251.149177636
184.492,251.26917718
184.507,251.38864483
184.522,251.507565309
184.537,251.625924284
184.552,251.743708317
184.56,251.806287007
184.567,251.860904846
184.582,251.977502137
184.597,252.093489263
184.612,252.208856056
184.627,252.323593101
184.642,252.437691666
184.657,252.551143723
184.672,252.663941869
184.687,252.776079336
184.702,252.88754994
184.717,252.998348074
184.732,253.108468665
184.747,253.217907168
184.762,253.326659525
184.777,253.434722156
184.792,253.542091932
184.807,253.648766149
184.822,253.75474252
184.837,253.860019148
184.852,253.964594503
184.867,254.068467414
184.882,254.171637049
184.897,254.274102896
184.912,254.375864742
184.927,254.476922674
184.942,254.577277043
184.957,254.676928473
184.972,254.775877831
184.987,254.874126214
185.002,254.971674948
185.017,255.068525572
185.032,255.164679812
185.047,255.260139605
185.062,255.354907044
185.077,255.448984402
185.092,255.542374111
185.107,255.63507875
185.122,255.727101048
185.137,255.818443848
185.152,255.909110138
185.167,255.999103019
185.182,256.088425697
185.197,256.177081485
185.212,256.265073793
185.227,256.352406122
185.242,256.439082059
185.257,256.525105268
185.272,256.610479491
185.287,256.695208531
185.302,256.779296262
185.31,256.823882185
185.317,256.862746617
185.332,256.945563575
185.347,257.027751175
185.362,257.109313497
185.377,257.190254664
185.392,257.27057884
185.407,257.350290219
185.422,257.429393032
185.437,257.507891535
185.452,257.585790011
185.467,257.663092765
185.482,257.739804122
185.497,257.815928423
185.512,257.891470026
185.527,257.966433304
185.542,258.040822632
185.557,258.114642398
185.572,258.187896997
185.587,258.260590825
185.602,258.332728286
185.617,258.404313768
185.632,258.475351684
185.647,258.545846419
185.662,258.615802372
185.677,258.685223926
185.692,258.754115455
185.707,258.822481333
185.722,258.890325926
185.737,258.957653576
185.752,259.024468619
185.767,259.090775391
185.782,259.15657819
185.797,259.22188132
185.812,259.286689057
185.827,259.351005666
185.842,259.414835389
185.857,259.478182458
185.872,259.541051077
185.887,259.603445439
185.902,259.665369707
185.917,259.726828033
185.932,259.787824535
185.947,259.848363323
185.96,259.900463182
185.962,259.90844847
185.977,259.968084041
185.992,260.02727406
186.007,260.086022539
186.022,260.14433346
186.037,260.202210779
186.052,260.259658435
186.06,260.290122849
186.067,260.316680333
186.082,260.373280349
186.097,260.429462336
186.112,260.485230119
186.127,260.540587502
186.142,260.595538252
186.157,260.650086109
186.172,260.704234794
186.187,260.757987985
186.202,260.811349343
186.217,260.864322494
186.232,260.916911036
186.247,260.969118536
186.262,261.020948536
186.277,261.072404541
186.292,261.12349003
186.307,261.174208454
186.322,261.224563225
186.337,261.274557735
186.352,261.324195337
186.367,261.373479354
186.382,261.422413083
186.397,261.470999783
186.412,261.519242687
186.427,261.567144993
186.442,261.614709869
186.457,261.661940448
186.472,261.70883984
186.487,261.755411108
186.502,261.801657298
186.517,261.847581416
186.532,261.893186439
186.547,261.938475309
186.562,261.983450934
186.577,262.028116196
186.592,262.07247394
186.607,262.116526979
186.622,262.160278096
186.637,262.203730038
186.652,262.246885523
186.667,262.289747228
186.682,262.332317813
186.697,262.374599887
186.71,262.411012986
186.712,262.416596045
186.727,262.458308833
186.742,262.499740772
186.757,262.540894352
186.772,262.581772028
186.787,262.622376222
186.802,262.662709325
186.817,262.702773694
186.832,262.742571658
186.847,262.782105504
186.862,262.821377495
186.877,262.860389862
186.892,262.899144798
186.907,262.93764447
186.922,262.97589101
186.937,263.013886515
186.952,263.051633054
186.967,263.089132665
186.982,263.126387353
186.997,263.163399092
187.012,263.200169819
187.027,263.236701447
187.042,263.272995857
187.057,263.309054894
187.072,263.344880374
187.087,263.380474088
187.102,263.415837787
187.117,263.450973197
187.132,263.485882009
187.147,263.52056589
187.162,263.555026478
187.177,263.589265367
187.192,263.623284134
187.207,263.657084329
187.222,263.690667463
187.237,263.72403502
187.252,263.757188459
187.267,263.790129204
187.282,263.822858657
187.297,263.855378186
187.312,263.887689136
187.327,263.91979282
187.342,263.951690521
187.357,263.983383502
187.372,264.014872991
187.387,264.046160191
187.402,264.077246284
187.417,264.108132414
187.432,264.138819706
187.447,264.169309262
187.46,264.195574424
187.462,264.199602149
187.477,264.229699416
187.492,264.259602079
187.507,264.289311133
187.522,264.318827557
187.537,264.348152283
187.552,264.377286243
187.567,264.406230328
187.582,264.434985413
187.597,264.463552348
187.612,264.491931955
187.627,264.520125043
187.642,264.548132387
187.657,264.575954752
187.672,264.603592868
187.687,264.631047449
187.702,264.658319189
187.717,264.685408761
187.732,264.712316815
187.747,264.739043977
187.762,264.765590859
187.777,264.791958049
187.792,264.818146118
187.807,264.844155617
187.822,264.869987077
187.837,264.895641007
187.852,264.921117907
187.867,264.946418248
187.882,264.971542488
187.897,264.996491071
187.912,265.02126442
187.927,265.045862942
187.942,265.07028702
187.957,265.094537037
187.972,265.118613345
187.987,265.142516293
188.002,265.166246206
188.017,265.189803388
188.032,265.213188147
188.047,265.236400766
188.062,265.259441509
188.077,265.282310636
188.092,265.305008391
188.107,265.327535003
188.122,265.349890681
188.137,265.372075644
188.152,265.394090076
188.167,265.415934157
188.182,265.437608064
188.197,265.459111949
188.21,265.477611238
188.212,265.480445962
188.227,265.501610245
188.242,265.522604919
188.257,265.543430103
188.272,265.564085909
188.287,265.584572432
188.302,265.604889768
188.317,265.62503799
188.332,265.645017176
188.347,265.664827392
188.362,265.684468695
188.377,265.703941135
188.392,265.723244754
188.407,265.742379588
188.422,265.761345671
188.437,265.780143025
188.452,265.798771663
188.467,265.817231603
188.482,265.835522847
188.497,265.8536454
188.512,265.871599257
188.527,265.88938441
188.542,265.907000846
188.557,265.924448553
188.572,265.9417275
188.587,265.958837677
188.602,265.975779049
188.617,265.992551587
188.632,266.009155258
188.647,266.025590028
188.66,266.039696846
188.662,266.041855865
188.677,266.057952715
188.692,266.073880547
188.707,266.089639316
188.722,266.10522898
