# 48698 WSSS Singapore Observations at 12Z 13 Mar 2019
Frequency [GHz],TB
175.31,278.555442331
175.322,278.531653341
175.337,278.501841711
175.352,278.471946073
175.367,278.441966188
175.382,278.41190179
175.397,278.38175268
175.412,278.351518583
175.427,278.321199239
175.442,278.290794406
175.457,278.260303869
175.472,278.229727318
175.487,278.199064537
175.502,278.168315274
175.517,278.137479268
175.532,278.106556265
175.547,278.075546015
175.562,278.044448231
175.577,278.013262689
175.592,277.981989111
175.607,277.95062726
175.622,277.919176857
175.637,277.887637639
175.652,277.856009328
175.667,277.824291685
175.682,277.792484441
175.697,277.760587322
175.712,277.728600065
175.727,277.696522397
175.742,277.66435404
175.757,277.63209474
175.772,277.599744235
175.787,277.567302209
175.802,277.534768424
175.817,277.502142598
175.832,277.469424452
175.847,277.436613715
175.862,277.403710102
175.877,277.370713342
175.892,277.33762314
175.907,277.304439223
175.922,277.271161323
175.937,277.237789116
175.952,277.204322361
175.967,277.17076078
175.982,277.137104046
175.997,277.103351906
176.012,277.069504039
176.027,277.035560201
176.042,277.001520067
176.057,276.967383358
176.072,276.933149762
176.087,276.898819004
176.102,276.864390815
176.117,276.829864865
176.132,276.795240864
176.147,276.760518541
176.162,276.725697546
176.177,276.690777641
176.192,276.655758493
176.207,276.620639807
176.222,276.585421274
176.237,276.550102622
176.252,276.514683514
176.267,276.479163663
176.282,276.443542758
176.297,276.407820504
176.31,276.376778988
176.312,276.37199658
176.327,276.336070691
176.342,276.300042512
176.357,276.263911753
176.372,276.227678095
176.387,276.191341236
176.402,276.154900854
176.417,276.11835664
176.432,276.081708282
176.447,276.044955463
176.46,276.013018286
176.462,276.008097872
176.477,275.9711352
176.492,275.934067122
176.507,275.89689333
176.522,275.859613463
176.537,275.82222727
176.552,275.784734384
176.567,275.747134506
176.582,275.709427302
176.597,275.671612477
176.612,275.633689677
176.627,275.595658594
176.642,275.557518902
176.657,275.519270286
176.672,275.480912411
176.687,275.442444938
176.702,275.403867553
176.717,275.365179964
176.732,275.326381781
176.747,275.287472728
176.762,275.24845244
176.777,275.209320605
176.792,275.170076902
176.807,275.130720977
176.822,275.091252507
176.837,275.051671177
176.852,275.011976631
176.867,274.972168559
176.882,274.932246611
176.897,274.892210465
176.912,274.852059773
176.927,274.81179422
176.942,274.771413447
176.957,274.730917138
176.972,274.69030495
176.987,274.649576544
177.002,274.608731574
177.017,274.567769742
177.032,274.526690654
177.047,274.485494025
177.062,274.444179466
177.077,274.402746698
177.092,274.361195305
177.107,274.319525038
177.122,274.277735479
177.137,274.235826329
177.152,274.193797227
177.167,274.151647879
177.182,274.109377873
177.197,274.066986904
177.21,274.030149959
177.212,274.024474652
177.227,273.981840735
177.242,273.93908482
177.257,273.896206591
177.272,273.853205688
177.287,273.810081773
177.302,273.766834497
177.31,273.74371871
177.317,273.723463501
177.332,273.67996848
177.347,273.636349077
177.362,273.592604933
177.377,273.548735729
177.392,273.504741098
177.407,273.460620707
177.422,273.416374216
177.437,273.372001275
177.452,273.327501543
177.467,273.282874679
177.482,273.238120334
177.497,273.193238184
177.512,273.148227852
177.527,273.103089029
177.542,273.05782135
177.557,273.012424472
177.572,272.966898046
177.587,272.921241758
177.602,272.875455249
177.617,272.829538157
177.632,272.783490159
177.647,272.737310901
177.66,272.697182448
177.662,272.691000074
177.677,272.644557288
177.692,272.597982213
177.707,272.551274528
177.722,272.504433902
177.737,272.457459929
177.752,272.410352323
177.767,272.363110753
177.782,272.31573484
177.797,272.26822425
177.812,272.220578649
177.827,272.172797699
177.842,272.12488107
177.857,272.076828401
177.872,272.028639351
177.887,271.980313607
177.902,271.931850805
177.917,271.883250627
177.932,271.834512729
177.947,271.785636746
177.96,271.743165634
177.962,271.736622372
177.977,271.687469275
177.992,271.638177099
178.007,271.588745518
178.022,271.539174182
178.037,271.489462754
178.052,271.439610938
178.067,271.389618355
178.082,271.339484679
178.097,271.289209597
178.112,271.238792767
178.127,271.188233834
178.142,271.13753249
178.157,271.086688389
178.172,271.03570121
178.187,270.984570614
178.202,270.933296264
178.217,270.881877852
178.232,270.830315035
178.247,270.778607466
178.262,270.726754851
178.277,270.674756821
178.292,270.622613075
178.307,270.570323266
178.322,270.517887084
178.337,270.465304205
178.352,270.412574272
178.367,270.359697004
178.382,270.306672023
178.397,270.253499045
178.41,270.207295819
178.412,270.200177733
178.427,270.146707754
178.442,270.093088786
178.457,270.039320499
178.472,269.985402585
178.487,269.931334714
178.502,269.877116554
178.517,269.822747794
178.532,269.768228087
178.547,269.713557138
178.562,269.658734626
178.577,269.603760212
178.592,269.548633588
178.607,269.493354417
178.622,269.437922379
178.637,269.38233716
178.652,269.32659846
178.667,269.270705908
178.682,269.214659214
178.697,269.158458074
178.712,269.102102125
178.727,269.045591083
178.742,268.988924606
178.757,268.932102379
178.772,268.875124094
178.787,268.817989395
178.802,268.760697997
178.817,268.703249556
178.832,268.645643761
178.847,268.587880279
178.862,268.529958804
178.877,268.471878986
178.892,268.413640531
178.907,268.355243089
178.922,268.296686365
178.937,268.237970014
178.952,268.179093705
178.967,268.120057128
178.982,268.060859951
178.997,268.001501849
179.012,267.941982459
179.027,267.88230149
179.042,267.822458606
179.057,267.762453469
179.072,267.702285739
179.087,267.641955081
179.102,267.581461166
179.117,267.520803657
179.132,267.459982201
179.147,267.398996482
179.16,267.346009034
179.162,267.337846139
179.177,267.276530829
179.192,267.215050211
179.207,267.153403949
179.222,267.09159165
179.237,267.029613008
179.252,266.967467639
179.267,266.905155198
179.282,266.842675326
179.297,266.780027667
179.312,266.717211819
179.327,266.654227462
179.342,266.591074169
179.357,266.527751626
179.372,266.464259406
179.387,266.400597146
179.402,266.336764478
179.417,266.27276098
179.432,266.208586264
179.447,266.144239945
179.462,266.07972162
179.477,266.015030874
179.492,265.950167288
179.507,265.885130455
179.522,265.819919929
179.537,265.754535335
179.552,265.688976181
179.567,265.623242062
179.582,265.557332537
179.597,265.491247134
179.612,265.424985397
179.627,265.358546839
179.642,265.291931038
179.657,265.225137491
179.672,265.158165692
179.687,265.091015161
179.702,265.023685391
179.717,264.956175883
179.732,264.888486097
179.747,264.820615496
179.762,264.752563562
179.777,264.68432973
179.792,264.615913444
179.807,264.547314138
179.822,264.478531245
179.837,264.409564108
179.852,264.340412192
179.867,264.271074859
179.882,264.201551476
179.897,264.131841393
179.91,264.071274475
179.912,264.061943967
179.927,263.991858519
179.942,263.921584364
179.957,263.851120817
179.972,263.780467155
179.987,263.709622646
180.002,263.638586574
180.017,263.567358127
180.032,263.495936547
180.047,263.424321069
180.062,263.352510825
180.077,263.280505022
180.092,263.208302793
180.107,263.135903245
180.122,263.063305524
180.137,262.990508687
180.152,262.917511798
180.167,262.844313908
180.182,262.770914048
180.197,262.697311179
180.212,262.62350429
180.227,262.549492319
180.242,262.4752742
180.257,262.400848783
180.272,262.326215004
180.287,262.251371655
180.302,262.176317536
180.317,262.101051456
180.332,262.025572135
180.347,261.949878316
180.362,261.873968673
180.377,261.797841851
180.392,261.721496494
180.407,261.644931172
180.422,261.568144422
180.437,261.491134783
180.452,261.413900732
180.467,261.336440686
180.482,261.25875308
180.497,261.180836246
180.512,261.102688519
180.527,261.024308187
180.542,260.945693468
180.557,260.866842562
180.56,260.851043877
180.572,260.787753638
180.587,260.708424769
180.602,260.628854068
180.617,260.549039507
180.632,260.468979053
180.647,260.388670632
180.66,260.318867777
180.662,260.308112129
180.677,260.227301321
180.692,260.146235983
180.707,260.064913855
180.722,259.983332562
180.737,259.901489723
180.752,259.819382899
180.767,259.737009559
180.782,259.654367148
180.797,259.571453047
180.812,259.488264558
180.827,259.404798956
180.842,259.321053434
180.857,259.237025111
180.872,259.152711082
180.887,259.068108351
180.902,258.983213835
180.917,258.898024451
180.932,258.812537
180.947,258.726748205
180.962,258.640654765
180.977,258.554253301
180.992,258.46754033
181.007,258.380512328
181.022,258.29316572
181.037,258.205496812
181.052,258.117501867
181.067,258.029177076
181.082,257.940518553
181.097,257.851522358
181.112,257.762184421
181.127,257.672500667
181.142,257.582466888
181.157,257.492078863
181.172,257.401332226
181.187,257.310222597
181.202,257.2187455
181.217,257.126896356
181.232,257.03467054
181.247,256.942063346
181.262,256.849069999
181.277,256.755685603
181.292,256.661905289
181.307,256.567723989
181.31,256.548839169
181.322,256.473136639
181.337,256.378138072
181.352,256.282723062
181.367,256.186886276
181.382,256.090622342
181.397,255.993925813
181.412,255.896791139
181.427,255.799212706
181.442,255.701184856
181.457,255.602701816
181.472,255.503757781
181.487,255.40434686
181.502,255.304463062
181.517,255.204100408
181.532,255.10325274
181.547,255.001913922
181.562,254.90007772
181.577,254.797737828
181.592,254.694887865
181.607,254.591521423
181.622,254.487632012
181.637,254.38321307
181.652,254.278257961
181.667,254.172760044
181.682,254.06671257
181.697,253.960108774
181.712,253.852941772
181.727,253.745204689
181.742,253.636890555
181.757,253.527992375
181.772,253.418503094
181.787,253.308415612
181.802,253.197722758
181.817,253.086417377
181.832,252.974492175
181.847,252.861939898
181.862,252.748753258
181.877,252.634924843
181.892,252.520447296
181.907,252.405313184
181.922,252.289515082
181.937,252.173045503
181.952,252.055896951
181.967,251.938061926
181.982,251.819532906
181.997,251.700302366
182.012,251.580362808
182.027,251.459706677
182.042,251.338326511
182.057,251.216214806
182.06,251.191704031
182.072,251.093364121
182.087,250.969767078
182.102,250.845416325
182.117,250.72030454
182.132,250.594424594
182.147,250.467769338
182.162,250.340331812
182.177,250.21210519
182.192,250.083082732
182.207,249.953257979
182.222,249.822624629
182.237,249.691176605
182.252,249.55890816
182.267,249.42581381
182.282,249.291888432
182.297,249.157127302
182.312,249.021526144
182.327,248.885081185
182.342,248.747789179
182.357,248.609647571
182.372,248.470654396
182.387,248.330808546
182.402,248.190109725
182.417,248.048558581
182.432,247.906156831
182.447,247.76290731
182.462,247.61881416
182.477,247.473882892
182.492,247.328120543
182.507,247.181535858
182.522,247.034139401
182.537,246.885943759
182.552,246.736963685
182.567,246.587216354
182.582,246.436721517
182.597,246.285501779
182.612,246.133582729
182.627,245.980993367
182.642,245.827766202
182.657,245.673937601
182.672,245.519548114
182.687,245.364642719
182.702,245.209271227
182.717,245.053488458
182.732,244.897354785
182.747,244.740936301
182.762,244.584305293
182.777,244.42754053
182.792,244.270727648
182.807,244.113959443
182.822,243.957336286
182.837,243.800966352
182.852,243.644965918
182.867,243.489459612
182.882,243.334580636
182.897,243.180470821
182.912,243.027280809
182.927,242.875169895
182.942,242.724306039
182.957,242.574865566
182.972,242.427032898
182.987,242.281000107
183.002,242.136966354
183.017,241.995137357
183.032,241.855724719
183.047,241.718945406
183.062,241.58502149
183.077,241.454180303
183.092,241.326655457
183.107,241.202689316
183.122,241.082537748
183.137,240.966478273
183.152,240.854823449
183.167,240.747941502
183.182,240.646286802
183.197,240.55044243
183.212,240.461175003
183.227,240.379497537
183.242,240.306724559
183.257,240.244489148
183.367,240.245698885
183.382,240.307277374
183.397,240.378980872
183.412,240.459256662
183.427,240.546871489
183.442,240.640881354
183.457,240.740572248
183.472,240.845398729
183.487,240.954931903
183.502,241.068820239
183.517,241.186761678
183.532,241.308485205
183.547,241.433738879
183.562,241.562282703
183.577,241.693884539
183.592,241.828318115
183.607,241.965362177
183.622,242.104800537
183.637,242.246422414
183.652,242.39002301
183.667,242.535404138
183.682,242.68237478
183.697,242.830751674
183.712,242.980359643
183.727,243.131031944
183.742,243.282610435
183.757,243.434945682
183.772,243.587896998
183.787,243.741332293
183.802,243.895127998
183.817,244.049168797
183.832,244.203347462
183.847,244.357564505
183.862,244.51172787
183.877,244.665752655
183.892,244.819560721
183.907,244.973080372
183.922,245.12624599
183.937,245.278997694
183.952,245.431280966
183.967,245.583046369
183.982,245.73424919
183.997,245.884849093
184.012,246.034809885
184.027,246.184099168
184.042,246.332688102
184.057,246.480551102
184.072,246.627665628
184.087,246.774011926
184.102,246.919572802
184.117,247.064333473
184.132,247.208281317
184.147,247.351405676
184.162,247.493697746
184.177,247.635150384
184.192,247.775757974
184.207,247.915516297
184.222,248.054422362
184.237,248.192474366
184.252,248.329671518
184.267,248.466013998
184.282,248.601502808
184.297,248.736139725
184.312,248.869927222
184.327,249.002868405
184.342,249.134966906
184.357,249.266226873
184.372,249.396652918
184.387,249.526250002
184.402,249.655023498
184.417,249.782979003
184.432,249.910122483
184.447,250.036460055
184.462,250.161998134
184.477,250.286743247
184.492,250.410702113
184.507,250.533881571
184.522,250.656288602
184.537,250.777930223
184.552,250.898813603
184.56,250.962977201
184.567,251.018945947
184.582,251.138334495
184.597,251.256986556
184.612,251.374909469
184.627,251.492110549
184.642,251.608597197
184.657,251.72437675
184.672,251.839456597
184.687,251.953844083
184.702,252.06754654
184.717,252.180571334
184.732,252.292925745
184.747,252.40461704
184.762,252.515652489
184.777,252.626039295
184.792,252.735784658
184.807,252.844895682
184.822,252.953379515
184.837,253.061243189
184.852,253.168493734
184.867,253.275138098
184.882,253.381183226
184.897,253.486635998
184.912,253.591503216
184.927,253.695791651
184.942,253.799508025
184.957,253.902659028
184.972,254.005251235
184.987,254.10729122
185.002,254.208785467
185.017,254.30974042
185.032,254.410162458
185.047,254.510057899
185.062,254.60943302
185.077,254.708293988
185.092,254.806646948
185.107,254.904497984
185.122,255.001853103
185.137,255.098718252
185.152,255.195099319
185.167,255.291002097
185.182,255.386432359
185.197,255.481395781
185.212,255.575897969
185.227,255.669944493
185.242,255.763540834
185.257,255.856692386
185.272,255.949404518
185.287,256.041682477
185.302,256.133531512
185.31,256.182344052
185.317,256.224956742
185.332,256.315963225
185.347,256.40655597
185.362,256.49673991
185.377,256.586519908
185.392,256.675900745
185.407,256.764887132
185.422,256.853483742
185.437,256.941695139
185.452,257.029525853
185.467,257.116980289
185.482,257.204062829
185.497,257.290777793
185.512,257.377129397
185.527,257.46312182
185.542,257.548759128
185.557,257.634045369
185.572,257.718984493
185.587,257.803580397
185.602,257.887836879
185.617,257.971757731
185.632,258.055346632
185.647,258.138607194
185.662,258.221542981
185.677,258.304157493
185.692,258.386454164
185.707,258.468436341
185.722,258.550107358
185.737,258.631470442
185.752,258.712528772
185.767,258.793285452
185.782,258.873743568
185.797,258.953906127
185.812,259.033776048
185.827,259.113356211
185.842,259.192649456
185.857,259.27165856
185.872,259.350386212
185.887,259.428835103
185.902,259.507007803
185.917,259.584906898
185.932,259.662534883
185.947,259.739894179
185.96,259.806723456
185.962,259.816987229
185.977,259.893816339
185.992,259.970383832
186.007,260.046691946
186.022,260.122742889
186.037,260.198538815
186.052,260.274081845
186.06,260.31426876
186.067,260.349374028
186.082,260.424417405
186.097,260.499213945
186.112,260.573765583
186.127,260.648074219
186.142,260.722141692
186.157,260.795969836
186.172,260.869560405
186.187,260.942915154
186.202,261.016035766
186.217,261.088923942
186.232,261.161581253
186.247,261.234009326
186.262,261.306209699
186.277,261.378183896
186.292,261.449933444
186.307,261.52145974
186.322,261.592764263
186.337,261.663848363
186.352,261.734713455
186.367,261.805360835
186.382,261.875791835
186.397,261.946007721
186.412,262.016009751
186.427,262.085799146
186.442,262.155377119
186.457,262.224744818
186.472,262.293903434
186.487,262.362854055
186.502,262.43159781
186.517,262.500135766
186.532,262.568468971
186.547,262.636598487
186.562,262.704525315
186.577,262.772250442
186.592,262.839774856
186.607,262.907099487
186.622,262.97422532
186.637,263.041153221
186.652,263.107884107
186.667,263.174418875
186.682,263.24075838
186.697,263.306903477
186.71,263.364072598
186.712,263.372854979
186.727,263.438613718
186.742,263.504180492
186.757,263.569556106
186.772,263.634741303
186.787,263.699736857
186.802,263.764543524
186.817,263.829162026
186.832,263.893593078
186.847,263.957837415
186.862,264.021895688
186.877,264.085768616
186.892,264.149456863
186.907,264.21296108
186.922,264.276281925
186.937,264.339420054
186.952,264.40237608
186.967,264.465150625
186.982,264.527744319
186.997,264.590157751
187.012,264.652391513
187.027,264.714446198
187.042,264.776322382
187.057,264.838020643
187.072,264.899541522
187.087,264.960885595
187.102,265.022053379
187.117,265.083045439
187.132,265.143862322
187.147,265.204504516
187.162,265.264972585
187.177,265.325267007
187.192,265.38538831
187.207,265.445336979
187.222,265.505113536
187.237,265.56471845
187.252,265.624152212
187.267,265.68341531
187.282,265.742508234
187.297,265.801431418
187.312,265.860185369
187.327,265.918770522
187.342,265.977187337
187.357,266.035436297
187.372,266.093517818
187.387,266.15143235
187.402,266.209180377
187.417,266.26676229
187.432,266.324178547
187.447,266.381429575
187.46,266.430913825
187.462,266.438515819
187.477,266.495437679
187.492,266.552195585
187.507,266.608789978
187.522,266.66522126
187.537,266.721489826
187.552,266.77759613
187.567,266.83354057
187.582,266.889323545
187.597,266.944945437
187.612,267.000406702
187.627,267.0557077
187.642,267.110848839
187.657,267.165830524
187.672,267.220653147
187.687,267.275317097
187.702,267.329822775
187.717,267.384170552
187.732,267.438360832
187.747,267.492393994
187.762,267.546270434
187.777,267.599990518
187.792,267.653554639
187.807,267.706963188
187.822,267.760216515
187.837,267.81331503
187.852,267.866259095
187.867,267.919049085
187.882,267.971685383
187.897,268.024168345
187.912,268.076498358
187.927,268.128675796
187.942,268.180701025
187.957,268.232574417
187.972,268.284296326
187.987,268.335867141
188.002,268.387287227
188.017,268.438556934
188.032,268.489676638
188.047,268.54064672
188.062,268.591467523
188.077,268.642139398
188.092,268.692662755
188.107,268.743037914
188.122,268.793265249
188.137,268.84334513
188.152,268.893277921
188.167,268.943063965
188.182,268.992703635
188.197,269.042197287
188.21,269.084973938
188.212,269.091545267
188.227,269.140747951
188.242,269.189805698
188.257,269.238718861
188.272,269.287487795
188.287,269.336112851
188.302,269.384594397
188.317,269.432932795
188.332,269.481128382
188.347,269.529181525
188.362,269.577092587
188.377,269.624861891
188.392,269.672489832
188.407,269.719976741
188.422,269.767322981
188.437,269.814528893
188.452,269.861594866
188.467,269.908521209
188.482,269.9553083
188.497,270.001956465
188.512,270.048466105
188.527,270.094837546
188.542,270.141071142
188.557,270.187167215
188.572,270.233126179
188.587,270.278948332
188.602,270.324634061
188.617,270.370183691
188.632,270.415597579
188.647,270.460876081
188.66,270.500008224
188.662,270.506019564
188.677,270.551028356
188.692,270.595902804
188.707,270.640643274
188.722,270.685250117
188.737,270.72972366
