# 78954 TBPB Grantley Adams Observations at 12Z 18 Jun 2019
Frequency [GHz],TB
175.31,277.327835798
175.322,277.306077296
175.337,277.278806123
175.352,277.251453494
175.367,277.224019096
175.382,277.196502611
175.397,277.168903722
175.412,277.141222105
175.427,277.113457439
175.442,277.085609398
175.457,277.057677654
175.472,277.029661877
175.487,277.001561736
175.502,276.973376895
175.517,276.945107019
175.532,276.916751767
175.547,276.8883108
175.562,276.859783774
175.577,276.831170342
175.592,276.802470158
175.607,276.773682869
175.622,276.744808124
175.637,276.715845567
175.652,276.686794842
175.667,276.657655586
175.682,276.62842744
175.697,276.599110037
175.712,276.569703011
175.727,276.540205991
175.742,276.510618606
175.757,276.480940482
175.772,276.451171241
175.787,276.421310503
175.802,276.391357886
175.817,276.361313006
175.832,276.331175477
175.847,276.300944906
175.862,276.270620904
175.877,276.240203075
175.892,276.20969102
175.907,276.179084341
175.922,276.148382635
175.937,276.117585496
175.952,276.086692516
175.967,276.055703284
175.982,276.024617388
175.997,275.993434411
176.012,275.962153934
176.027,275.930775536
176.042,275.899298793
176.057,275.867723277
176.072,275.83604856
176.087,275.804274208
176.102,275.772399786
176.117,275.740424856
176.132,275.708348978
176.147,275.676171707
176.162,275.643892597
176.177,275.611511198
176.192,275.579027058
176.207,275.546439722
176.222,275.513748732
176.237,275.480953626
176.252,275.44805394
176.267,275.415049209
176.282,275.38193896
176.297,275.348722723
176.31,275.319849216
176.312,275.315400021
176.327,275.281970374
176.342,275.248433302
176.357,275.214788319
176.372,275.181034937
176.387,275.147172665
176.402,275.113201009
176.417,275.079119472
176.432,275.044927554
176.447,275.01062475
176.46,274.980805569
176.462,274.976210555
176.477,274.941684459
176.492,274.907045948
176.507,274.872294508
176.522,274.837429617
176.537,274.802450755
176.552,274.767357395
176.567,274.732149008
176.582,274.696825063
176.597,274.661385023
176.612,274.62582835
176.627,274.590154502
176.642,274.554362934
176.657,274.518453096
176.672,274.482424438
176.687,274.446276403
176.702,274.410008433
176.717,274.373619966
176.732,274.337110436
176.747,274.300479274
176.762,274.263725908
176.777,274.226849762
176.792,274.189850257
176.807,274.15272681
176.822,274.115478835
176.837,274.078105742
176.852,274.040606938
176.867,274.002981826
176.882,273.965229806
176.897,273.927350273
176.912,273.889342622
176.927,273.851206239
176.942,273.812940511
176.957,273.774544819
176.972,273.736018541
176.987,273.697361052
177.002,273.658571723
177.017,273.619649919
177.032,273.580595006
177.047,273.541406342
177.062,273.502083283
177.077,273.462625181
177.092,273.423031385
177.107,273.383301239
177.122,273.343434084
177.137,273.303429257
177.152,273.263286091
177.167,273.223003916
177.182,273.182582056
177.197,273.142019833
177.21,273.106751842
177.212,273.101316566
177.227,273.060471567
177.242,273.019484146
177.257,272.97835361
177.272,272.937079261
177.287,272.895660395
177.302,272.854096308
177.31,272.831869171
177.317,272.812386289
177.332,272.770529625
177.347,272.728525596
177.362,272.686373481
177.377,272.644072555
177.392,272.601622085
177.407,272.559021339
177.422,272.516269577
177.437,272.473366057
177.452,272.430310033
177.467,272.387100752
177.482,272.343737461
177.497,272.300219399
177.512,272.256545804
177.527,272.212715907
177.542,272.168728936
177.557,272.124584115
177.572,272.080280664
177.587,272.035817798
177.602,271.991194727
177.617,271.946410659
177.632,271.901464794
177.647,271.856356332
177.66,271.817130184
177.662,271.811084465
177.677,271.765648382
177.692,271.720047269
177.707,271.674280305
177.722,271.628346665
177.737,271.582245523
177.752,271.535976043
177.767,271.489537389
177.782,271.442928718
177.797,271.396149184
177.812,271.349197935
177.827,271.302074116
177.842,271.254776866
177.857,271.20730532
177.872,271.159658609
177.887,271.111835859
177.902,271.06383619
177.917,271.01565872
177.932,270.96730256
177.947,270.918766817
177.96,270.876556551
177.962,270.870050594
177.977,270.821152989
177.992,270.772073095
178.007,270.72281
178.022,270.673362787
178.037,270.623730537
178.052,270.573912321
178.067,270.523907211
178.082,270.47371427
178.097,270.423332557
178.112,270.372761128
178.127,270.321999033
178.142,270.271045316
178.157,270.219899018
178.172,270.168559174
178.187,270.117024814
178.202,270.065294965
178.217,270.013368645
178.232,269.961244871
178.247,269.908922655
178.262,269.856401
178.277,269.803678908
178.292,269.750755375
178.307,269.697629392
178.322,269.644299944
178.337,269.590766012
178.352,269.537026571
178.367,269.483080593
178.382,269.428927043
178.397,269.374564882
178.41,269.327281459
178.412,269.319993066
178.427,269.265210544
178.442,269.210216263
178.457,269.155009162
178.472,269.099588178
178.487,269.04395224
178.502,268.988100275
178.517,268.932031201
178.532,268.875743935
178.547,268.819237385
178.562,268.762510458
178.577,268.705562053
178.592,268.648391065
178.607,268.590996384
178.622,268.533376894
178.637,268.475531476
178.652,268.417459003
178.667,268.359158346
178.682,268.30062837
178.697,268.241867932
178.712,268.182875889
178.727,268.12365109
178.742,268.06419238
178.757,268.004498597
178.772,267.944568577
178.787,267.88440115
178.802,267.82399514
178.817,267.763349367
178.832,267.702462647
178.847,267.641333789
178.862,267.579961599
178.877,267.518344878
178.892,267.45648242
178.907,267.394373019
178.922,267.332015458
178.937,267.269408522
178.952,267.206550985
178.967,267.143441622
178.982,267.080079199
178.997,267.01646248
179.012,266.952590224
179.027,266.888461185
179.042,266.824074114
179.057,266.759427755
179.072,266.69452085
179.087,266.629352136
179.102,266.563920346
179.117,266.498224209
179.132,266.432262449
179.147,266.366033787
179.16,266.308418727
179.162,266.29953694
179.177,266.23277062
179.192,266.165733537
179.207,266.098424395
179.222,266.030841897
179.237,265.962984739
179.252,265.894851617
179.267,265.826441222
179.282,265.75775224
179.297,265.688783357
179.312,265.619533254
179.327,265.550000608
179.342,265.480184095
179.357,265.410082387
179.372,265.339694152
179.387,265.269018059
179.402,265.198052771
179.417,265.126796949
179.432,265.055249252
179.447,264.983408339
179.462,264.911272862
179.477,264.838841476
179.492,264.76611283
179.507,264.693085574
179.522,264.619758356
179.537,264.54612982
179.552,264.472198612
179.567,264.397963374
179.582,264.323422749
179.597,264.248575377
179.612,264.173419898
179.627,264.097954953
179.642,264.022179179
179.657,263.946091216
179.672,263.8696897
179.687,263.79297327
179.702,263.715940565
179.717,263.638590221
179.732,263.560920877
179.747,263.482931173
179.762,263.404619747
179.777,263.32598524
179.792,263.247026294
179.807,263.167741549
179.822,263.08812965
179.837,263.008189241
179.852,262.927918969
179.867,262.847317482
179.882,262.766383429
179.897,262.685115464
179.91,262.614412088
179.912,262.603512239
179.927,262.521572411
179.942,262.439294639
179.957,262.356677584
179.972,262.273719911
179.987,262.190420286
180.002,262.106777379
180.017,262.022789864
180.032,261.938456416
180.047,261.853775716
180.062,261.768746446
180.077,261.683367293
180.092,261.597636948
180.107,261.511554104
180.122,261.42511746
180.137,261.338325718
180.152,261.251177583
180.167,261.163671766
180.182,261.07580698
180.197,260.987581944
180.212,260.89899538
180.227,260.810046014
180.242,260.720732577
180.257,260.631053803
180.272,260.541008432
180.287,260.450595206
180.302,260.359812872
180.317,260.26866018
180.332,260.177135885
180.347,260.085238745
180.362,259.992967522
180.377,259.900320979
180.392,259.807297885
180.407,259.713897012
180.422,259.620117131
180.437,259.52595702
180.452,259.431415455
180.467,259.336491217
180.482,259.241183087
180.497,259.145489846
180.512,259.049410277
180.527,258.952943163
180.542,258.856087286
180.557,258.758841427
180.56,258.73934535
180.572,258.661204366
180.587,258.563174881
180.602,258.464751746
180.617,258.365933734
180.632,258.26671961
180.647,258.167108138
180.66,258.080455823
180.662,258.067098073
180.677,257.966688165
180.692,257.865877156
180.707,257.764663779
180.722,257.663046757
180.737,257.561024802
180.752,257.458596616
180.767,257.355760885
180.782,257.252516282
180.797,257.148861464
180.812,257.04479507
180.827,256.940315722
180.842,256.83542202
180.857,256.730112543
180.872,256.624385845
180.887,256.518240456
180.902,256.41167488
180.917,256.304687588
180.932,256.197277025
180.947,256.089441599
180.962,255.981179685
180.977,255.872489618
180.992,255.763369697
181.007,255.653818176
181.022,255.543833266
181.037,255.433413129
181.052,255.322555881
181.067,255.211259582
181.082,255.099522238
181.097,254.987341797
181.112,254.874716148
181.127,254.761643112
181.142,254.648120447
181.157,254.534145837
181.172,254.419716896
181.187,254.304831158
181.202,254.189486078
181.217,254.073679027
181.232,253.957407288
181.247,253.840668054
181.262,253.72345842
181.277,253.605775386
181.292,253.487615846
181.307,253.368976588
181.31,253.34519088
181.322,253.24985429
181.337,253.130245515
181.352,253.010146706
181.367,252.889554181
181.382,252.768464134
181.397,252.646872622
181.412,252.52477557
181.427,252.402168757
181.442,252.27904782
181.457,252.155408244
181.472,252.031245357
181.487,251.90655433
181.502,251.781330168
181.517,251.655567706
181.532,251.529261606
181.547,251.402406347
181.562,251.274996229
181.577,251.147025358
181.592,251.018487648
181.607,250.889376813
181.622,250.759686362
181.637,250.629409594
181.652,250.498539593
181.667,250.367069222
181.682,250.23499112
181.697,250.102297693
181.712,249.96898111
181.727,249.835033298
181.742,249.700445938
181.757,249.565210453
181.772,249.42931801
181.787,249.292759508
181.802,249.155525574
181.817,249.017606557
181.832,248.878992521
181.847,248.739673237
181.862,248.59963818
181.877,248.458876516
181.892,248.317377098
181.907,248.175128456
181.922,248.032118792
181.937,247.888335967
181.952,247.743767494
181.967,247.598400529
181.982,247.452221857
181.997,247.305217885
182.012,247.157374627
182.027,247.008677693
182.042,246.859112275
182.057,246.70866313
182.06,246.678465882
182.072,246.557314571
182.087,246.405050441
182.102,246.251854101
182.117,246.097708407
182.132,245.942595691
182.147,245.786497736
182.162,245.62939575
182.177,245.47127034
182.192,245.312101482
182.207,245.151868486
182.222,244.990549962
182.237,244.828123782
182.252,244.664567035
182.267,244.499855983
182.282,244.333966005
182.297,244.166871546
182.312,243.998546052
182.327,243.828961904
182.342,243.658090341
182.357,243.485901377
182.372,243.312363713
182.387,243.137444631
182.402,242.961109888
182.417,242.783323583
182.432,242.60404803
182.447,242.423243593
182.462,242.240868523
182.477,242.056878761
182.492,241.871227727
182.507,241.683866078
182.522,241.494741442
182.537,241.303798109
182.552,241.110976696
182.567,240.91621376
182.582,240.719441364
182.597,240.520586587
182.612,240.319570964
182.627,240.11630986
182.642,239.910711746
182.657,239.702677385
182.672,239.492098904
182.687,239.278858725
182.702,239.062828355
182.717,238.843866997
182.732,238.621819959
182.747,238.396516826
182.762,238.167769372
182.777,237.93536915
182.792,237.699084732
182.807,237.458658526
182.822,237.213803121
182.837,236.964197081
182.852,236.709480103
182.867,236.449247464
182.882,236.183043638
182.897,235.910355
182.912,235.630601492
182.927,235.34312716
182.942,235.047189485
182.957,234.741947452
182.972,234.426448405
182.987,234.099613844
183.002,233.76022456
183.017,233.406905839
183.032,233.038114047
183.047,232.652126827
183.062,232.247040541
183.077,231.820780816
183.092,231.371135549
183.107,230.895825033
183.122,230.392632114
183.137,229.85962769
183.152,229.295545226
183.167,228.700383886
183.182,228.076353543
183.197,227.429309726
183.212,226.770835669
183.227,226.121025484
183.242,225.511556241
183.257,224.987145063
183.367,225.096152826
183.382,225.642258044
183.397,226.26084493
183.412,226.910533119
183.427,227.562922407
183.442,228.200410632
183.457,228.813117571
183.472,229.396280207
183.487,229.948354211
183.502,230.469722795
183.517,230.961853523
183.532,231.426763724
183.547,231.866690798
183.562,232.283895408
183.577,232.680549391
183.592,233.058676788
183.607,233.420127598
183.622,233.766571152
183.637,234.099500855
183.652,234.420245077
183.667,234.729980981
183.682,235.029749356
183.697,235.32046929
183.712,235.602952069
183.727,235.877913969
183.742,236.14598782
183.757,236.40773333
183.772,236.663646213
183.787,236.914166227
183.802,237.159684207
183.817,237.400548202
183.832,237.63706883
183.847,237.869523928
183.862,238.098162606
183.877,238.323208759
183.892,238.544864134
183.907,238.763310982
183.922,238.97871438
183.937,239.191224241
183.952,239.400977075
183.967,239.608097516
183.982,239.812699663
183.997,240.01488825
184.012,240.214759669
184.027,240.412402864
184.042,240.607900123
184.057,240.80132777
184.072,240.99275677
184.087,241.182253267
184.102,241.369879061
184.117,241.555692023
184.132,241.739746468
184.147,241.922093481
184.162,242.102781215
184.177,242.281855146
184.192,242.459358304
184.207,242.635331485
184.222,242.809813431
184.237,242.982840999
184.252,243.154449307
184.267,243.324671871
184.282,243.493540721
184.297,243.661086512
184.312,243.827338624
184.327,243.992325244
184.342,244.156073453
184.357,244.318609296
184.372,244.479957847
184.387,244.64014327
184.402,244.799188876
184.417,244.957117168
184.432,245.113949891
184.447,245.269708071
184.462,245.424412056
184.477,245.578081547
184.492,245.730735634
184.507,245.882392822
184.522,246.033071059
184.537,246.182787765
184.552,246.331559848
184.56,246.410524403
184.567,246.479403731
184.582,246.626335369
184.597,246.772370266
184.612,246.917523494
184.627,247.06180971
184.642,247.205243166
184.657,247.347837726
184.672,247.489606876
184.687,247.63056374
184.702,247.770721087
184.717,247.910091342
184.732,248.048686597
184.747,248.18651862
184.762,248.323598864
184.777,248.459938473
184.792,248.595548293
184.807,248.730438876
184.822,248.864620492
184.837,248.99810313
184.852,249.130896509
184.867,249.263010084
184.882,249.39445305
184.897,249.525234347
184.912,249.655362672
184.927,249.784846476
184.942,249.913693978
184.957,250.041913164
184.972,250.169511794
184.987,250.296497409
185.002,250.422877336
185.017,250.548658689
185.032,250.673848379
185.047,250.798453115
185.062,250.922479412
185.077,251.045933592
185.092,251.168821795
185.107,251.291149974
185.122,251.412923909
185.137,251.534149207
185.152,251.654831306
185.167,251.774975482
185.182,251.89458685
185.197,252.013670373
185.212,252.132230861
185.227,252.25027298
185.242,252.367801252
185.257,252.484820065
185.272,252.601333669
185.287,252.717346187
185.302,252.832861616
185.31,252.894267934
185.317,252.947883832
185.332,253.062416593
185.347,253.176463542
185.362,253.290028213
185.377,253.403114034
185.392,253.515724331
185.407,253.627862328
185.422,253.739531156
185.437,253.850733854
185.452,253.96147337
185.467,254.071752569
185.482,254.181574233
185.497,254.290941065
185.512,254.399855691
185.527,254.508320667
185.542,254.616338476
185.557,254.723911537
185.572,254.831042202
185.587,254.937732764
185.602,255.043985455
185.617,255.149802454
185.632,255.255185883
185.647,255.360137815
185.662,255.464660274
185.677,255.568755237
185.692,255.672424637
185.707,255.775670365
185.722,255.878494273
185.737,255.980898173
185.752,256.082883844
185.767,256.184453028
185.782,256.285607436
185.797,256.38634875
185.812,256.486678622
185.827,256.586598675
185.842,256.68611051
185.857,256.785215703
185.872,256.883915805
185.887,256.982212349
185.902,257.080106846
185.917,257.17760079
185.932,257.274695657
185.947,257.371392907
185.96,257.454876679
185.962,257.467693985
185.977,257.563600321
185.992,257.659113334
186.007,257.754234429
186.022,257.848965003
186.037,257.943306439
186.052,258.037260113
186.06,258.087210661
186.067,258.130827393
186.082,258.224009638
186.097,258.3168082
186.112,258.409224425
186.127,258.501259653
186.142,258.59291522
186.157,258.684192456
186.172,258.775092686
186.187,258.865617235
186.202,258.955767422
186.217,259.045544563
186.232,259.134949975
186.247,259.22398497
186.262,259.312650859
186.277,259.400948953
186.292,259.488880562
186.307,259.576446994
186.322,259.663649557
186.337,259.75048956
186.352,259.836968312
186.367,259.92308712
186.382,260.008847295
186.397,260.094250146
186.412,260.179296982
186.427,260.263989117
186.442,260.348327861
186.457,260.432314528
186.472,260.515950433
186.487,260.59923689
186.502,260.682175217
186.517,260.764766731
186.532,260.847012752
186.547,260.9289146
186.562,261.010473597
186.577,261.091691067
186.592,261.172568333
186.607,261.253106721
186.622,261.333307557
186.637,261.413172171
186.652,261.49270189
186.667,261.571898045
186.682,261.650761966
186.697,261.729294987
186.71,261.797090307
186.712,261.80749844
186.727,261.885373658
186.742,261.962921976
186.757,262.040144729
186.772,262.117043253
186.787,262.193618883
186.802,262.269872955
186.817,262.345806808
186.832,262.421421776
186.847,262.496719198
186.862,262.571700409
186.877,262.646366747
186.892,262.720719548
186.907,262.794760148
186.922,262.868489882
186.937,262.941910086
186.952,263.015022093
186.967,263.087827238
186.982,263.160326853
186.997,263.232522269
187.012,263.304414818
187.027,263.376005827
187.042,263.447296626
187.057,263.518288541
187.072,263.588982897
187.087,263.659381016
187.102,263.729484222
187.117,263.799293833
187.132,263.868811167
187.147,263.93803754
187.162,264.006974265
187.177,264.075622654
187.192,264.143984015
187.207,264.212059656
187.222,264.27985088
187.237,264.347358988
187.252,264.41458528
187.267,264.48153105
187.282,264.548197592
187.297,264.614586196
187.312,264.680698149
187.327,264.746534733
187.342,264.812097231
187.357,264.877386918
187.372,264.94240507
187.387,265.007152955
187.402,265.071631842
187.417,265.135842993
187.432,265.199787668
187.447,265.263467123
187.46,265.318442419
187.462,265.32688261
187.477,265.390035377
187.492,265.452926669
187.507,265.515557726
187.522,265.577929784
187.537,265.640044076
187.552,265.70190183
187.567,265.76350427
187.582,265.824852615
187.597,265.885948081
187.612,265.946791879
187.627,266.007385217
187.642,266.067729295
187.657,266.127825313
187.672,266.187674464
187.687,266.247277936
187.702,266.306636915
187.717,266.365752579
187.732,266.424626104
187.747,266.483258661
187.762,266.541651415
187.777,266.599805528
187.792,266.657722155
187.807,266.715402448
187.822,266.772847555
187.837,266.830058617
187.852,266.887036772
187.867,266.943783152
187.882,267.000298883
187.897,267.05658509
187.912,267.11264289
187.927,267.168473395
187.942,267.224077713
187.957,267.279456948
187.972,267.334612197
187.987,267.389544554
188.002,267.444255107
188.017,267.498744938
188.032,267.553015126
188.047,267.607066745
188.062,267.660900862
188.077,267.71451854
188.092,267.767920839
188.107,267.821108811
188.122,267.874083504
188.137,267.926845962
188.152,267.979397223
188.167,268.03173832
188.182,268.083870282
188.197,268.135794133
188.21,268.180627251
188.212,268.187510889
188.227,268.239021566
188.242,268.290327171
188.257,268.341428707
188.272,268.392327174
188.287,268.443023565
188.302,268.493518868
188.317,268.543814068
188.332,268.593910142
188.347,268.643808066
188.362,268.693508807
188.377,268.74301333
188.392,268.792322594
188.407,268.841437554
188.422,268.890359159
188.437,268.939088353
188.452,268.987626077
188.467,269.035973265
188.482,269.084130848
188.497,269.13209975
188.512,269.179880894
188.527,269.227475193
188.542,269.27488356
188.557,269.322106901
188.572,269.369146118
188.587,269.416002106
188.602,269.46267576
188.617,269.509167966
188.632,269.555479607
188.647,269.601611561
188.66,269.641447917
188.662,269.647564702
188.677,269.6933399
188.692,269.738938018
188.707,269.784359917
188.722,269.829606452
188.737,269.874678474
188.752,269.919576828
