# 10410 EDZE Essen Observations at 12Z 01 Mar 2019
Frequency [GHz],TB
175.31,267.777512302
175.322,267.786563255
175.337,267.797723164
175.352,267.808711619
175.367,267.819527996
175.382,267.830171676
175.397,267.840642045
175.412,267.850938494
175.427,267.861060415
175.442,267.871007207
175.457,267.880778273
175.472,267.890373021
175.487,267.899790864
175.502,267.909031218
175.517,267.918093504
175.532,267.926977151
175.547,267.93568159
175.562,267.944206257
175.577,267.952550594
175.592,267.960714049
175.607,267.968696075
175.622,267.976496129
175.637,267.984113674
175.652,267.991548179
175.667,267.998799119
175.682,268.005865975
175.697,268.012748231
175.712,268.019445381
175.727,268.025956921
175.742,268.032282355
175.757,268.038421193
175.772,268.044372951
175.787,268.050137151
175.802,268.055713322
175.817,268.061100999
175.832,268.066299723
175.847,268.071309041
175.862,268.076128508
175.877,268.080757686
175.892,268.085196142
175.907,268.08944345
175.922,268.093499194
175.937,268.09736296
175.952,268.101034345
175.967,268.104512951
175.982,268.107798388
175.997,268.110890274
176.012,268.113788233
176.027,268.116491896
176.042,268.119000903
176.057,268.121314901
176.072,268.123433544
176.087,268.125356494
176.102,268.127083421
176.117,268.128614002
176.132,268.129947923
176.147,268.131084877
176.162,268.132024565
176.177,268.132766696
176.192,268.133310987
176.207,268.133657165
176.222,268.133804962
176.237,268.13375412
176.252,268.13350439
176.267,268.13305553
176.282,268.132407306
176.297,268.131559494
176.31,268.130663112
176.312,268.130511878
176.327,268.12926425
176.342,268.12781641
176.357,268.126168169
176.372,268.124319345
176.387,268.122269764
176.402,268.120019262
176.417,268.117567683
176.432,268.11491488
176.447,268.112060716
176.46,268.109424129
176.462,268.109005062
176.477,268.105747797
176.492,268.10228881
176.507,268.098627999
176.522,268.09476527
176.537,268.09070054
176.552,268.086433733
176.567,268.081964783
176.582,268.077293633
176.597,268.072420235
176.612,268.06734455
176.627,268.062066548
176.642,268.056586209
176.657,268.050903521
176.672,268.045018482
176.687,268.038931098
176.702,268.032641386
176.717,268.02614937
176.732,268.019455085
176.747,268.012558573
176.762,268.005459887
176.777,267.998159089
176.792,267.99065625
176.807,267.982951447
176.822,267.975044772
176.837,267.96693632
176.852,267.958626199
176.867,267.950114525
176.882,267.941401422
176.897,267.932487023
176.912,267.923371471
176.927,267.914054917
176.942,267.90453752
176.957,267.894819451
176.972,267.884900886
176.987,267.874782011
177.002,267.864463021
177.017,267.853944119
177.032,267.843225517
177.047,267.832307435
177.062,267.821190101
177.077,267.809873752
177.092,267.798358634
177.107,267.786644998
177.122,267.774733106
177.137,267.762623228
177.152,267.75031564
177.167,267.737810627
177.182,267.725108482
177.197,267.712209505
177.21,267.700871414
177.212,267.699114003
177.227,267.685822292
177.242,267.672334694
177.257,267.658651538
177.272,267.644773162
177.287,267.630699909
177.302,267.616432129
177.31,267.60874323
177.317,267.601970181
177.332,267.587314427
177.347,267.57246524
177.362,267.557422994
177.377,267.542188075
177.392,267.52676087
177.407,267.511141775
177.422,267.495331191
177.437,267.479329524
177.452,267.463137188
177.467,267.446754599
177.482,267.43018218
177.497,267.413420359
177.512,267.39646957
177.527,267.379330249
177.542,267.362002838
177.557,267.344487784
177.572,267.326785538
177.587,267.308896554
177.602,267.290821291
177.617,267.272560211
177.632,267.25411378
177.647,267.235482466
177.66,267.219186143
177.662,267.216666742
177.677,267.197667083
177.692,267.178483966
177.707,267.159117872
177.722,267.139569283
177.737,267.119838683
177.752,267.09992656
177.767,267.0798334
177.782,267.059559693
177.797,267.039105931
177.812,267.018472604
177.827,266.997660205
177.842,266.976669228
177.857,266.955500165
177.872,266.93415351
177.887,266.912629756
177.902,266.890929396
177.917,266.869052921
177.932,266.847000824
177.947,266.824773595
177.96,266.805368711
177.962,266.802371722
177.977,266.779795691
177.992,266.75704599
178.007,266.734123101
178.022,266.711027504
178.037,266.687759678
178.052,266.664320098
178.067,266.640709237
178.082,266.616927562
178.097,266.59297554
178.112,266.568853631
178.127,266.544562291
178.142,266.520101975
178.157,266.495473129
178.172,266.470676196
178.187,266.445711614
178.202,266.420579814
178.217,266.395281223
178.232,266.369816261
178.247,266.344185341
178.262,266.31838887
178.277,266.292427249
178.292,266.266300871
178.307,266.240010121
178.322,266.213555377
178.337,266.186937008
178.352,266.160155377
178.367,266.133210836
178.382,266.10610373
178.397,266.078834393
178.41,266.055069993
178.412,266.051403151
178.427,266.023810321
178.442,265.996056208
178.457,265.968141109
178.472,265.940065308
178.487,265.911829082
178.502,265.883432692
178.517,265.854876393
178.532,265.826160424
178.547,265.797285015
178.562,265.768250383
178.577,265.739056733
178.592,265.709704256
178.607,265.680193133
178.622,265.650523528
178.637,265.620695594
178.652,265.590709472
178.667,265.560565285
178.682,265.530263144
178.697,265.499803146
178.712,265.469185374
178.727,265.438409893
178.742,265.407476755
178.757,265.376385997
178.772,265.345137639
178.787,265.313731686
178.802,265.282168127
178.817,265.250446933
178.832,265.21856806
178.847,265.186531447
178.862,265.154337015
178.877,265.121984669
178.892,265.089474294
178.907,265.056805761
178.922,265.023978919
178.937,264.990993601
178.952,264.957849622
178.967,264.924546777
178.982,264.891084843
178.997,264.857463577
179.012,264.823682717
179.027,264.789741982
179.042,264.755641071
179.057,264.721379664
179.072,264.686957418
179.087,264.652373973
179.102,264.617628947
179.117,264.582721938
179.132,264.547652521
179.147,264.512420252
179.16,264.48175353
179.162,264.477024666
179.177,264.441465274
179.192,264.405741569
179.207,264.369853019
179.222,264.333799072
179.237,264.297579152
179.252,264.261192662
179.267,264.224638983
179.282,264.187917471
179.297,264.151027462
179.312,264.113968267
179.327,264.076739174
179.342,264.039339448
179.357,264.00176833
179.372,263.964025039
179.387,263.926108768
179.402,263.888018686
179.417,263.84975394
179.432,263.81131365
179.447,263.772696914
179.462,263.733902804
179.477,263.694930366
179.492,263.655778624
179.507,263.616446574
179.522,263.576933189
179.537,263.537237414
179.552,263.497358172
179.567,263.457294356
179.582,263.417044837
179.597,263.376608458
179.612,263.335984035
179.627,263.29517036
179.642,263.254166197
179.657,263.212970283
179.672,263.17158133
179.687,263.129998021
179.702,263.088219013
179.717,263.046242936
179.732,263.004068391
179.747,262.961693954
179.762,262.91911817
179.777,262.87633956
179.792,262.833356614
179.807,262.790167794
179.822,262.746771536
179.837,262.703166244
179.852,262.659350297
179.867,262.615322042
179.882,262.5710798
179.897,262.52662186
179.91,262.487915826
179.912,262.481946483
179.927,262.4370519
179.942,262.391936315
179.957,262.346597898
179.972,262.301034791
179.987,262.255245107
180.002,262.209226927
180.017,262.162978303
180.032,262.116497254
180.047,262.06978177
180.062,262.022829811
180.077,261.975639302
180.092,261.928208142
180.107,261.880534194
180.122,261.832615291
180.137,261.784449235
180.152,261.736033795
180.167,261.687366707
180.182,261.638445677
180.197,261.589268376
180.212,261.539832444
180.227,261.490135488
180.242,261.44017508
180.257,261.389948763
180.272,261.339454042
180.287,261.288688391
180.302,261.237649251
180.317,261.186334028
180.332,261.134740093
180.347,261.082864786
180.362,261.03070541
180.377,260.978259235
180.392,260.925523496
180.407,260.872495395
180.422,260.819172096
180.437,260.765550731
180.452,260.711628397
180.467,260.657402154
180.482,260.602869029
180.497,260.548026014
180.512,260.492870063
180.527,260.437398098
180.542,260.381607004
180.557,260.32549363
180.56,260.314232002
180.572,260.269054792
180.587,260.212287269
180.602,260.155187805
180.617,260.097753108
180.632,260.039979852
180.647,259.981864675
180.66,259.931218987
180.662,259.92340418
180.677,259.864594936
180.692,259.805433475
180.707,259.745916296
180.722,259.686039863
180.737,259.625800605
180.752,259.565194918
180.767,259.504219164
180.782,259.442869669
180.797,259.381142729
180.812,259.319034604
180.827,259.256541525
180.842,259.193659686
180.857,259.130385254
180.872,259.066714361
180.887,259.00264311
180.902,258.938167574
180.917,258.873283795
180.932,258.807987788
180.947,258.742275537
180.962,258.676143001
180.977,258.609586111
180.992,258.542600771
181.007,258.475182864
181.022,258.407328244
181.037,258.339032746
181.052,258.270292181
181.067,258.201102339
181.082,258.131458992
181.097,258.061357893
181.112,257.990794779
181.127,257.91976537
181.142,257.848265374
181.157,257.776290487
181.172,257.703836392
181.187,257.630898766
181.202,257.557473278
181.217,257.483555595
181.232,257.409141377
181.247,257.334226286
181.262,257.258805988
181.277,257.18287615
181.292,257.106432449
181.307,257.029470568
181.31,257.014015632
181.322,256.951986208
181.337,256.87397508
181.352,256.795432918
181.367,256.716355475
181.382,256.636738531
181.397,256.556577895
181.412,256.475869408
181.427,256.394608947
181.442,256.31279243
181.457,256.23041582
181.472,256.14747513
181.487,256.063966425
181.502,255.97988583
181.517,255.895229532
181.532,255.809993789
181.547,255.724174931
181.562,255.63776937
181.577,255.550773602
181.592,255.463184215
181.607,255.374997896
181.622,255.286211435
181.637,255.196821734
181.652,255.106825816
181.667,255.016220825
181.682,254.925004043
181.697,254.833172891
181.712,254.74072494
181.727,254.647657918
181.742,254.55396972
181.757,254.459658417
181.772,254.364722265
181.787,254.269159714
181.802,254.172969419
181.817,254.076150248
181.832,253.978701296
181.847,253.880621893
181.862,253.781911618
181.877,253.682570306
181.892,253.582598064
181.907,253.481995282
181.922,253.380762645
181.937,253.278901146
181.952,253.176412097
181.967,253.073297148
181.982,252.969558294
181.997,252.865197894
182.012,252.760218683
182.027,252.654623785
182.042,252.548416732
182.057,252.441601476
182.06,252.420165818
182.072,252.334182404
182.087,252.226164354
182.102,252.117552633
182.117,252.008353027
182.132,251.898571824
182.147,251.788215823
182.162,251.677292355
182.177,251.565809293
182.192,251.453775076
182.207,251.341198716
182.222,251.228089818
182.237,251.114458593
182.252,251.000315874
182.267,250.885673128
182.282,250.77054247
182.297,250.654936676
182.312,250.53886919
182.327,250.422354143
182.342,250.305406351
182.357,250.188041333
182.372,250.070275306
182.387,249.952125196
182.402,249.833608636
182.417,249.714743965
182.432,249.59555022
182.447,249.476047132
182.462,249.356255109
182.477,249.236195223
182.492,249.115889181
182.507,248.995359303
182.522,248.874628481
182.537,248.75372014
182.552,248.63265818
182.567,248.51146692
182.582,248.390171021
182.597,248.268795397
182.612,248.147365122
182.627,248.025905302
182.642,247.904440949
182.657,247.782996815
182.672,247.661597215
182.687,247.540265818
182.702,247.419025403
182.717,247.297897591
182.732,247.176902521
182.747,247.056058495
182.762,246.935381563
182.777,246.81488505
182.792,246.694579018
182.807,246.574469647
182.822,246.454558536
182.837,246.334841894
182.852,246.215309626
182.867,246.095944282
182.882,245.976719869
182.897,245.857600478
182.912,245.73853874
182.927,245.619474055
182.942,245.50033058
182.957,245.38101496
182.972,245.261413758
182.987,245.141390582
183.002,245.02078289
183.017,244.899398504
183.032,244.777011884
183.047,244.653360311
183.062,244.528140239
183.077,244.401004336
183.092,244.271560075
183.107,244.139371444
183.122,244.003966396
183.137,243.864854552
183.152,243.72156273
183.167,243.573700839
183.182,243.421078406
183.197,243.263902809
183.212,243.103102392
183.227,242.940821636
183.242,242.781104644
183.257,242.630660349
183.367,242.650542089
183.382,242.799832096
183.397,242.956468238
183.412,243.114477079
183.427,243.27036278
183.442,243.422341094
183.457,243.569701002
183.472,243.712356934
183.487,243.850561808
183.502,243.984732996
183.517,244.115350967
183.532,244.242902532
183.547,244.367850706
183.562,244.490620091
183.577,244.611591166
183.592,244.73109952
183.607,244.849437731
183.622,244.96685854
183.637,245.083578551
183.652,245.199782031
183.667,245.315624567
183.682,245.431236474
183.697,245.546725895
183.712,245.662181592
183.727,245.777675429
183.742,245.893264572
183.757,246.008993431
183.772,246.124895366
183.787,246.24099419
183.802,246.357305482
183.817,246.473837742
183.832,246.590593405
183.847,246.707569724
183.862,246.824759547
183.877,246.942152
183.892,247.059733077
183.907,247.177486167
183.922,247.295392507
183.937,247.41343158
183.952,247.531581467
183.967,247.649819151
183.982,247.76812078
183.997,247.886461901
184.012,248.004817663
184.027,248.12316299
184.042,248.241472734
184.057,248.359721806
184.072,248.477885289
184.087,248.595938538
184.102,248.713857257
184.117,248.831617577
184.132,248.949196111
184.147,249.066570006
184.162,249.183716984
184.177,249.300615374
184.192,249.417244146
184.207,249.533582923
184.222,249.649612006
184.237,249.765312381
184.252,249.880665728
184.267,249.995654425
184.282,250.110261551
184.297,250.224470883
184.312,250.338266894
184.327,250.451634745
184.342,250.564560279
184.357,250.677030012
184.372,250.789031124
184.387,250.900551444
184.402,251.011579442
184.417,251.122104214
184.432,251.232115467
184.447,251.341603508
184.462,251.450559224
184.477,251.558974075
184.492,251.66684007
184.507,251.774149758
184.522,251.880896211
184.537,251.987073005
184.552,252.092674209
184.56,252.148757597
184.567,252.197694368
184.582,252.302128485
184.597,252.40597201
184.612,252.509220822
184.627,252.611871214
184.642,252.713919882
184.657,252.815363903
184.672,252.916200731
184.687,253.016428172
184.702,253.116044379
184.717,253.215047835
184.732,253.313437338
184.747,253.411211994
184.762,253.508371197
184.777,253.604914624
184.792,253.700842216
184.807,253.796154173
184.822,253.89085094
184.837,253.984933195
184.852,254.078401838
184.867,254.171257984
184.882,254.263502951
184.897,254.355138248
184.912,254.446165571
184.927,254.536586788
184.942,254.626403934
184.957,254.715619202
184.972,254.804234933
184.987,254.89225361
185.002,254.979677849
185.017,255.066510393
185.032,255.152754101
185.047,255.238411948
185.062,255.323487011
185.077,255.407982468
185.092,255.491901588
185.107,255.575247728
185.122,255.658024325
185.137,255.740234893
185.152,255.821883014
185.167,255.902972336
185.182,255.983506568
185.197,256.063489474
185.212,256.142924867
185.227,256.221816611
185.242,256.300168607
185.257,256.3779848
185.272,256.455269165
185.287,256.532025711
185.302,256.608258473
185.31,256.648703178
185.317,256.683971512
185.332,256.759168907
185.347,256.833854758
185.362,256.908033179
185.377,256.981708294
185.392,257.054884241
185.407,257.12756516
185.422,257.1997552
185.437,257.27145851
185.452,257.342679239
185.467,257.413421535
185.482,257.483689541
185.497,257.553487395
185.512,257.622819228
185.527,257.691689158
185.542,257.760101297
185.557,257.828059741
185.572,257.895568573
185.587,257.962631861
185.602,258.029253656
185.617,258.095437992
185.632,258.161188881
185.647,258.226510319
185.662,258.291406277
185.677,258.355880708
185.692,258.419937537
185.707,258.48358067
185.722,258.546813985
185.737,258.609641335
185.752,258.672066549
185.767,258.734093427
185.782,258.795725742
185.797,258.856967239
185.812,258.917821637
185.827,258.978292621
185.842,259.038383852
185.857,259.098098958
185.872,259.157441538
185.887,259.21641516
185.902,259.275023361
185.917,259.333269647
185.932,259.391157494
185.947,259.448690345
185.96,259.498267635
185.962,259.505871612
185.977,259.562704674
185.992,259.61919288
186.007,259.675339545
186.022,259.731147953
186.037,259.786621355
186.052,259.841762968
186.06,259.871037266
186.067,259.896575981
186.082,259.951063546
186.097,260.005228784
186.112,260.059074786
186.127,260.112604606
186.142,260.165821269
186.157,260.218727767
186.172,260.271327058
186.187,260.323622072
186.202,260.375615701
186.217,260.427310809
186.232,260.478710228
186.247,260.529816756
186.262,260.58063316
186.277,260.631162178
186.292,260.681406512
186.307,260.731368838
186.322,260.781051795
186.337,260.830457996
186.352,260.879590021
186.367,260.928450419
186.382,260.977041709
186.397,261.02536638
186.412,261.073426891
186.427,261.12122567
186.442,261.168765116
186.457,261.216047599
186.472,261.263075458
186.487,261.309851004
186.502,261.356376519
186.517,261.402654255
186.532,261.448686438
186.547,261.494475262
186.562,261.540022895
186.577,261.585331478
186.592,261.630403122
186.607,261.675239912
186.622,261.719843904
186.637,261.764217128
186.652,261.808361587
186.667,261.852279257
186.682,261.895972087
186.697,261.939442001
186.71,261.976937078
186.712,261.982690895
186.727,262.02572064
186.742,262.068533081
186.757,262.111130039
186.772,262.153513307
186.787,262.195684655
186.802,262.237645827
186.817,262.279398542
186.832,262.320944495
186.847,262.362285356
186.862,262.403422773
186.877,262.444358367
186.892,262.485093737
186.907,262.525630459
186.922,262.565970083
186.937,262.606114138
186.952,262.64606413
186.967,262.685821542
186.982,262.725387832
186.997,262.76476444
187.012,262.80395278
187.027,262.842954244
187.042,262.881770206
187.057,262.920402013
187.072,262.958850994
187.087,262.997118456
187.102,263.035205684
187.117,263.073113941
187.132,263.110844473
187.147,263.148398502
187.162,263.185777229
187.177,263.222981838
187.192,263.26001349
187.207,263.296873326
187.222,263.333562469
187.237,263.370082021
187.252,263.406433066
187.267,263.442616666
187.282,263.478633866
187.297,263.514485692
187.312,263.550173149
187.327,263.585697227
187.342,263.621058894
187.357,263.656259102
187.372,263.691298783
187.387,263.726178852
187.402,263.760900206
187.417,263.795463726
187.432,263.829870271
187.447,263.864120687
187.46,263.89367873
187.462,263.898215802
187.477,263.932156424
187.492,263.965943347
187.507,263.999577349
187.522,264.033059188
187.537,264.066389608
187.552,264.099569337
187.567,264.132599085
187.582,264.165479548
187.597,264.198211404
187.612,264.230795319
187.627,264.263231939
187.642,264.295521898
187.657,264.327665814
187.672,264.35966429
187.687,264.391517913
187.702,264.423227257
187.717,264.45479288
187.732,264.486215327
187.747,264.517495129
187.762,264.548632801
187.777,264.579628845
187.792,264.610483751
187.807,264.641197993
187.822,264.671772033
187.837,264.702206319
187.852,264.732501288
187.867,264.76265736
187.882,264.792674946
187.897,264.822554444
187.912,264.852296237
187.927,264.881900699
187.942,264.911368189
187.957,264.940699056
187.972,264.969893638
187.987,264.998952258
188.002,265.027875232
188.017,265.05666286
188.032,265.085315435
188.047,265.113833238
188.062,265.142216537
188.077,265.170465592
188.092,265.198580651
188.107,265.226561954
188.122,265.254409728
188.137,265.282124192
188.152,265.309705554
188.167,265.337154013
188.182,265.36446976
188.197,265.391652975
188.21,265.415104689
188.212,265.418703828
188.227,265.445622483
188.242,265.472409093
188.257,265.499063803
188.272,265.52558675
188.287,265.551978063
188.302,265.578237861
188.317,265.604366257
188.332,265.630363357
188.347,265.656229257
188.362,265.681964047
188.377,265.70756781
188.392,265.733040621
188.407,265.75838255
188.422,265.783593657
188.437,265.808673997
188.452,265.833623621
188.467,265.858442571
188.482,265.883130883
188.497,265.907688589
188.512,265.932115712
188.527,265.956412273
188.542,265.980578286
188.557,266.004613758
188.572,266.028518695
188.587,266.052293095
188.602,266.075936951
188.617,266.099450253
188.632,266.122832985
188.647,266.14608513
188.66,266.166131338
188.662,266.169206662
188.677,266.192197555
188.692,266.215057776
188.707,266.237787292
188.722,266.260386063
188.737,266.282854047
188.752,266.3051912
