# 48698 WSSS Singapore Observations at 12Z 01 Mar 2019
Frequency [GHz],TB
175.31,277.616439996
175.322,277.596413059
175.337,277.571321332
175.352,277.54616486
175.367,277.520943521
175.382,277.495657121
175.397,277.470305557
175.412,277.444888594
175.427,277.419406093
175.442,277.393857837
175.457,277.368243695
175.472,277.342563497
175.487,277.31681708
175.502,277.291004215
175.517,277.2651248
175.532,277.239178581
175.547,277.213165438
175.562,277.187085207
175.577,277.160937685
175.592,277.134722689
175.607,277.108440062
175.622,277.082089592
175.637,277.055671147
175.652,277.02918448
175.667,277.002629519
175.682,276.976005995
175.697,276.949313746
175.712,276.922552622
175.727,276.895722404
175.742,276.868822912
175.757,276.84185398
175.772,276.814815431
175.787,276.7877071
175.802,276.760528732
175.817,276.733280192
175.832,276.705961302
175.847,276.678571868
175.862,276.651111708
175.877,276.623580626
175.892,276.595978415
175.907,276.568304922
175.922,276.540559983
175.937,276.512743322
175.952,276.484854843
175.967,276.456894319
175.982,276.428861557
175.997,276.400756376
176.012,276.372578594
176.027,276.344328004
176.042,276.316004403
176.057,276.287607622
176.072,276.259137495
176.087,276.230593805
176.102,276.201976343
176.117,276.173284952
176.132,276.144519441
176.147,276.11567958
176.162,276.086765208
176.177,276.057776129
176.192,276.02871212
176.207,275.999573017
176.222,275.97035866
176.237,275.941068801
176.252,275.911703262
176.267,275.882261855
176.282,275.852744373
176.297,275.823150662
176.31,275.797440922
176.312,275.79348049
176.327,275.763733642
176.342,275.733909996
176.357,275.704009315
176.372,275.674031391
176.387,275.643976054
176.402,275.613843118
176.417,275.583632362
176.432,275.553343613
176.447,275.522976682
176.46,275.496595237
176.462,275.49253134
176.477,275.462007407
176.492,275.431404719
176.507,275.400723056
176.522,275.369962237
176.537,275.339122042
176.552,275.308202342
176.567,275.277202866
176.582,275.246123491
176.597,275.214963974
176.612,275.183724115
176.627,275.152403769
176.642,275.121002719
176.657,275.08952079
176.672,275.057957752
176.687,275.026313456
176.702,274.994587709
176.717,274.962780295
176.732,274.930891043
176.747,274.898919738
176.762,274.866866246
176.777,274.834730305
176.792,274.802511804
176.807,274.770210509
176.822,274.737826244
176.837,274.705358838
176.852,274.672808049
176.867,274.640173752
176.882,274.607455758
176.897,274.574653856
176.912,274.541767878
176.927,274.508797665
176.942,274.475742973
176.957,274.442603664
176.972,274.409379578
176.987,274.376070518
177.002,274.342676248
177.017,274.309196672
177.032,274.275631581
177.047,274.241980809
177.062,274.208244142
177.077,274.174421454
177.092,274.140512528
177.107,274.106517233
177.122,274.072435379
177.137,274.038266835
177.152,274.004011348
177.167,273.969668796
177.182,273.935239023
177.197,273.900721843
177.21,273.870736137
177.212,273.866117109
177.227,273.831424625
177.242,273.796644268
177.257,273.761775869
177.272,273.726819261
177.287,273.691774282
177.302,273.656640732
177.31,273.63786663
177.317,273.621418534
177.332,273.586107521
177.347,273.550707469
177.362,273.515218302
177.377,273.479639832
177.392,273.443971919
177.407,273.408214412
177.422,273.372367161
177.437,273.336430018
177.452,273.300402878
177.467,273.26428554
177.482,273.228077932
177.497,273.191779823
177.512,273.155391173
177.527,273.118911778
177.542,273.082341541
177.557,273.045680332
177.572,273.008927986
177.587,272.972084433
177.602,272.935149479
177.617,272.898123028
177.632,272.861004978
177.647,272.823795193
177.66,272.791472401
177.662,272.786493553
177.677,272.749099922
177.692,272.711614203
177.707,272.674036304
177.722,272.636366054
177.737,272.598603402
177.752,272.560748203
177.767,272.522800418
177.782,272.484759829
177.797,272.446626458
177.812,272.408400094
177.827,272.370080715
177.842,272.3316682
177.857,272.29316246
177.872,272.254563389
177.887,272.215870928
177.902,272.177084988
177.917,272.138205472
177.932,272.099232281
177.947,272.060165356
177.96,272.026231461
177.962,272.0210046
177.977,271.981749954
177.992,271.942401357
178.007,271.902958723
178.022,271.863421982
178.037,271.823791063
178.052,271.784065906
178.067,271.744246452
178.082,271.704332631
178.097,271.664324417
178.112,271.624221724
178.127,271.584024498
178.142,271.543732706
178.157,271.503346282
178.172,271.462865201
178.187,271.422289395
178.202,271.38161884
178.217,271.340853472
178.232,271.299993302
178.247,271.259038251
178.262,271.217988271
178.277,271.17684338
178.292,271.135603545
178.307,271.094268693
178.322,271.052838868
178.337,271.011314
178.352,270.969694068
178.367,270.927979059
178.382,270.886168987
178.397,270.84426379
178.41,270.807869012
178.412,270.8022635
178.427,270.760168066
178.442,270.7179775
178.457,270.675691813
178.472,270.633310994
178.487,270.590835002
178.502,270.548263876
178.517,270.505597604
178.532,270.462836193
178.547,270.419979652
178.562,270.377027961
178.577,270.333981146
178.592,270.290839212
178.607,270.247602181
178.622,270.204270034
178.637,270.160842807
178.652,270.117320513
178.667,270.073703144
178.682,270.029990763
178.697,269.98618333
178.712,269.942280909
178.727,269.898283451
178.742,269.854191054
178.757,269.810003709
178.772,269.76572139
178.787,269.721344177
178.802,269.676872036
178.817,269.63230504
178.832,269.587643197
178.847,269.542886498
178.862,269.498034973
178.877,269.45308864
178.892,269.408047555
178.907,269.362911658
178.922,269.317681035
178.937,269.272355678
178.952,269.226935581
178.967,269.181420791
178.982,269.135811294
178.997,269.0901071
179.012,269.044308245
179.027,268.998414716
179.042,268.952426497
179.057,268.906343619
179.072,268.860166044
179.087,268.813893845
179.102,268.767526944
179.117,268.721065339
179.132,268.674509015
179.147,268.627857989
179.16,268.587350461
179.162,268.581112219
179.177,268.534271663
179.192,268.487336313
179.207,268.440306124
179.222,268.393181053
179.237,268.34596106
179.252,268.298646092
179.267,268.251236118
179.282,268.203731017
179.297,268.156130785
179.312,268.108435299
179.327,268.060644501
179.342,268.012758321
179.357,267.964776605
179.372,267.916699279
179.387,267.868526238
179.402,267.820257362
179.417,267.771892488
179.432,267.723431499
179.447,267.674874267
179.462,267.626220608
179.477,267.57747031
179.492,267.528623251
179.507,267.479679189
179.522,267.430637988
179.537,267.381499355
179.552,267.3322631
179.567,267.282928958
179.582,267.233496686
179.597,267.18396603
179.612,267.134336656
179.627,267.084608302
179.642,267.034780631
179.657,266.9848533
179.672,266.93482601
179.687,266.884698379
179.702,266.834469956
179.717,266.784140391
179.732,266.733709275
179.747,266.683176149
179.762,266.63254055
179.777,266.581801968
179.792,266.530959936
179.807,266.480013936
179.822,266.428963418
179.837,266.377807769
179.852,266.326546425
179.867,266.275178768
179.882,266.223704168
179.897,266.172121899
179.91,266.127329694
179.912,266.12043133
179.927,266.06863169
179.942,266.016722261
179.957,265.964702247
179.972,265.912570833
179.987,265.860327161
180.002,265.807970389
180.017,265.755499595
180.032,265.702913866
180.047,265.650212217
180.062,265.597393634
180.077,265.544457053
180.092,265.491401479
180.107,265.438225739
180.122,265.38492868
180.137,265.331509159
180.152,265.277965907
180.167,265.224297645
180.182,265.170503113
180.197,265.116580914
180.212,265.062529696
180.227,265.008347998
180.242,264.954034304
180.257,264.899587142
180.272,264.845004901
180.287,264.790285948
180.302,264.735428663
180.317,264.68043124
180.332,264.625292
180.347,264.570009073
180.362,264.514580554
180.377,264.459004515
180.392,264.403279016
180.407,264.347401974
180.422,264.291371309
180.437,264.235184857
180.452,264.178840405
180.467,264.122335688
180.482,264.06566832
180.497,264.008835929
180.512,263.951836086
180.527,263.894666216
180.542,263.837323756
180.557,263.779806052
180.56,263.768281231
180.572,263.722110338
180.587,263.664233847
180.602,263.606173744
180.617,263.547927052
180.632,263.48949077
180.647,263.430861824
180.66,263.379891816
180.662,263.372037108
180.677,263.313013319
180.692,263.253787203
180.707,263.194355378
180.722,263.134714418
180.737,263.074860746
180.752,263.014790759
180.767,262.954500769
180.782,262.893987055
180.797,262.833245657
180.812,262.772272731
180.827,262.711064201
180.842,262.649615998
180.857,262.587923923
180.872,262.52598368
180.887,262.463790938
180.902,262.401341217
180.917,262.338630021
180.932,262.275652657
180.947,262.212404501
180.962,262.148880675
180.977,262.085076299
180.992,262.020986384
181.007,261.956605895
181.022,261.891929609
181.037,261.826952279
181.052,261.761668571
181.067,261.696072997
181.082,261.630160087
181.097,261.563924113
181.112,261.497359437
181.127,261.430460166
181.142,261.363220417
181.157,261.295634169
181.172,261.227695349
181.187,261.159397744
181.202,261.090735031
181.217,261.021700854
181.232,260.952288715
181.247,260.882492062
181.262,260.812304234
181.277,260.741718458
181.292,260.670727848
181.307,260.599325514
181.31,260.584994994
181.322,260.527504397
181.337,260.455257369
181.352,260.382577178
181.367,260.309456569
181.382,260.235888092
181.397,260.161864266
181.412,260.087377522
181.427,260.012420235
181.442,259.936984522
181.457,259.861062633
181.472,259.784646598
181.487,259.707728391
181.502,259.630299941
181.517,259.552353008
181.532,259.473879377
181.547,259.394870582
181.562,259.315318255
181.577,259.235213823
181.592,259.154548674
181.607,259.073314116
181.622,258.991501328
181.637,258.909101499
181.652,258.826105591
181.667,258.742504628
181.682,258.658289511
181.697,258.573450946
181.712,258.487979672
181.727,258.40186634
181.742,258.31510144
181.757,258.227675466
181.772,258.139578724
181.787,258.05080152
181.802,257.961333999
181.817,257.871166262
181.832,257.780288324
181.847,257.688690032
181.862,257.596361221
181.877,257.503291583
181.892,257.409470678
181.907,257.314888005
181.922,257.219532995
181.937,257.123394867
181.952,257.026462807
181.967,256.928725845
181.982,256.83017292
181.997,256.730792823
182.012,256.630574276
182.027,256.52950581
182.042,256.42757586
182.057,256.324772712
182.06,256.304106278
182.072,256.221084576
182.087,256.116499471
182.102,256.011005334
182.117,255.904589837
182.132,255.797240742
182.147,255.688945497
182.162,255.579691501
182.177,255.469466011
182.192,255.358256141
182.207,255.24604896
182.222,255.132831409
182.237,255.018590288
182.252,254.903312425
182.267,254.786984448
182.282,254.669593095
182.297,254.551125021
182.312,254.431566904
182.327,254.310905445
182.342,254.189127537
182.357,254.066220062
182.372,253.942170185
182.387,253.816965253
182.402,253.690592998
182.417,253.563041424
182.432,253.434299069
182.447,253.304355
182.462,253.173198981
182.477,253.040821502
182.492,252.907213991
182.507,252.772368959
182.522,252.636279997
182.537,252.498942245
182.552,252.360352357
182.567,252.220508786
182.582,252.079411996
182.597,251.937064821
182.612,251.793472563
182.627,251.648643521
182.642,251.502589173
182.657,251.355324566
182.672,251.206868782
182.687,251.05724522
182.702,250.906482253
182.717,250.754613566
182.732,250.601678739
182.747,250.447723841
182.762,250.292801929
182.777,250.136973848
182.792,249.980308726
182.807,249.822884826
182.822,249.664790117
182.837,249.506123193
182.852,249.346993922
182.867,249.187524343
182.882,249.027849392
182.897,248.868117772
182.912,248.708492629
182.927,248.549152528
182.942,248.390291945
182.957,248.232122183
182.972,248.074871968
182.987,247.918788002
183.002,247.764135728
183.017,247.611199652
183.032,247.460284129
183.047,247.311713969
183.062,247.165835435
183.077,247.023017406
183.092,246.883653298
183.107,246.748164018
183.122,246.617002228
183.137,246.490658766
183.152,246.369671585
183.167,246.254638415
183.182,246.146233282
183.197,246.045226664
183.212,245.952507202
183.227,245.869100058
183.242,245.796171449
183.257,245.735004139
183.367,245.735210276
183.382,245.795823064
183.397,245.867900621
183.412,245.950189361
183.427,246.041561277
183.442,246.14102964
183.457,246.247739751
183.472,246.360949264
183.487,246.480006515
183.502,246.604331192
183.517,246.733398944
183.532,246.866729703
183.547,247.003879474
183.562,247.144434579
183.577,247.288007656
183.592,247.434235195
183.607,247.582775833
183.622,247.733309158
183.637,247.885534866
183.652,248.039172247
183.667,248.193959426
183.682,248.349653045
183.697,248.506027462
183.712,248.662874235
183.727,248.820001492
183.742,248.977233181
183.757,249.134408295
183.772,249.291380184
183.787,249.448015727
183.802,249.604194515
183.817,249.759808035
183.832,249.91475906
183.847,250.068960609
183.862,250.222335409
183.877,250.374815128
183.892,250.526339614
183.907,250.676856381
183.922,250.826319764
183.937,250.974690586
183.952,251.121935386
183.967,251.268026029
183.982,251.412939234
183.997,251.556655967
184.012,251.699161245
184.027,251.840443499
184.042,251.980494472
184.057,252.119308683
184.072,252.256883254
184.087,252.393217506
184.102,252.528312859
184.117,252.662172498
184.132,252.794801124
184.147,252.926204896
184.162,253.056391126
184.177,253.185368197
184.192,253.313145397
184.207,253.439732791
184.222,253.565141084
184.237,253.689381554
184.252,253.812465942
184.267,253.934406327
184.282,254.055215175
184.297,254.174905145
184.312,254.293489025
184.327,254.410979871
184.342,254.527390734
184.357,254.642734683
184.372,254.757024909
184.387,254.870274508
184.402,254.982496578
184.417,255.093704111
184.432,255.203910113
184.447,255.313127406
184.462,255.421368746
184.477,255.528646802
184.492,255.634974071
184.507,255.740362957
184.522,255.844825707
184.537,255.94837446
184.552,256.051021233
184.56,256.105401449
184.567,256.152777841
184.582,256.253655987
184.597,256.353667284
184.612,256.452823148
184.627,256.551134881
184.642,256.648613622
184.657,256.745270464
184.672,256.841116286
184.687,256.936161834
184.702,257.030417838
184.717,257.123894753
184.732,257.216603032
184.747,257.308552999
184.762,257.399754799
184.777,257.49021854
184.792,257.579954168
184.807,257.668971577
184.822,257.757280501
184.837,257.844890601
184.852,257.931811473
184.867,258.018052584
184.882,258.103623268
184.897,258.188532801
184.912,258.272790412
184.927,258.356405199
184.942,258.439386139
184.957,258.521742184
184.972,258.603482149
184.987,258.684614797
185.002,258.765148816
185.017,258.845092721
185.032,258.924455064
185.047,259.003244249
185.062,259.081468619
185.077,259.159136377
185.092,259.236255711
185.107,259.312834746
185.122,259.388881437
185.137,259.464403695
185.152,259.539409388
185.167,259.613906222
185.182,259.687901943
185.197,259.761404066
185.212,259.834420135
185.227,259.906957556
185.242,259.979023648
185.257,260.050625693
185.272,260.121770853
185.287,260.192466209
185.302,260.262718751
185.31,260.300008123
185.317,260.332535414
185.332,260.401923016
185.347,260.470888296
185.362,260.539437926
185.377,260.607578465
185.392,260.675316417
185.407,260.74265815
185.422,260.809610016
185.437,260.876178223
185.452,260.942368907
185.467,261.00818814
185.482,261.073641868
185.497,261.138736002
185.512,261.203476334
185.527,261.267868548
185.542,261.331918278
185.557,261.395631079
185.572,261.459012374
185.587,261.522067566
185.602,261.584801898
185.617,261.647220568
185.632,261.709328698
185.647,261.771131338
185.662,261.832633392
185.677,261.893839742
185.692,261.954755145
185.707,262.015384284
185.722,262.075731815
185.737,262.135802247
185.752,262.19559999
185.767,262.255129442
185.782,262.314394893
185.797,262.373400509
185.812,262.432150491
185.827,262.490648866
185.842,262.54889955
185.857,262.606906483
185.872,262.664673508
185.887,262.722204328
185.902,262.779502625
185.917,262.836572016
185.932,262.893415998
185.947,262.95003805
185.96,262.998933568
185.962,263.006441533
185.977,263.062629761
185.992,263.118605963
186.007,263.174373331
186.022,263.229934997
186.037,263.285293926
186.052,263.340453146
186.06,263.369790755
186.067,263.395415561
186.082,263.450183993
186.097,263.504761256
186.112,263.559150013
186.127,263.613352967
186.142,263.667372676
186.157,263.721211708
186.172,263.774872515
186.187,263.828357544
186.202,263.881669114
186.217,263.934809573
186.232,263.987781152
186.247,264.040586078
186.262,264.093226438
186.277,264.14570438
186.292,264.198021898
186.307,264.250181017
186.322,264.30218366
186.337,264.35403174
186.352,264.405727047
186.367,264.457271433
186.382,264.508666624
186.397,264.559914317
186.412,264.611016194
186.427,264.661973876
186.442,264.712788911
186.457,264.763462856
186.472,264.813997179
186.487,264.864393361
186.502,264.914652798
186.517,264.964776863
186.532,265.014766915
186.547,265.064624204
186.562,265.114350045
186.577,265.16394566
186.592,265.213412195
186.607,265.26275086
186.622,265.311962774
186.637,265.361049011
186.652,265.410010621
186.667,265.458848713
186.682,265.507564209
186.697,265.556158106
186.71,265.598175198
186.712,265.604631351
186.727,265.652984859
186.742,265.701219513
186.757,265.749336194
186.772,265.797335709
186.787,265.845218869
186.802,265.892986472
186.817,265.940639271
186.832,265.988178014
186.847,266.035603393
186.862,266.08291614
186.877,266.130116837
186.892,266.177206251
186.907,266.224184902
186.922,266.271053482
186.937,266.317812494
186.952,266.364462581
186.967,266.411004242
186.982,266.45743802
186.997,266.503764453
187.012,266.549983986
187.027,266.596097148
187.042,266.642104382
187.057,266.688006116
187.072,266.733802821
187.087,266.779494876
187.102,266.825082708
187.117,266.870566701
187.132,266.915947235
187.147,266.961224644
187.162,267.006399306
187.177,267.051471561
187.192,267.096441707
187.207,267.141310065
187.222,267.186076944
187.237,267.230742641
187.252,267.275307451
187.267,267.319771582
187.282,267.364135336
187.297,267.408399004
187.312,267.452562754
187.327,267.496626849
187.342,267.54059152
187.357,267.58445697
187.372,267.628223406
187.387,267.671891051
187.402,267.715460093
187.417,267.758930697
187.432,267.802303058
187.447,267.845577341
187.46,267.883002515
187.462,267.888753706
187.477,267.931832338
187.492,267.974813376
187.507,268.017696957
187.522,268.060483225
187.537,268.10317232
187.552,268.145764422
187.567,268.188259579
187.582,268.230657972
187.597,268.272959689
187.612,268.315164886
187.627,268.357273622
187.642,268.399286038
187.657,268.441202268
187.672,268.483022352
187.687,268.524746396
187.702,268.566374509
187.717,268.607906805
187.732,268.649343352
187.747,268.690684236
187.762,268.731929547
187.777,268.773079362
187.792,268.814133782
187.807,268.855092833
187.822,268.895956646
187.837,268.936725246
187.852,268.977398786
187.867,269.01797724
187.882,269.058460739
187.897,269.098849332
187.912,269.1391431
187.927,269.179342095
187.942,269.219446391
187.957,269.259456067
187.972,269.299371156
187.987,269.339191714
188.002,269.378917888
188.017,269.41854964
188.032,269.458087079
188.047,269.497530292
188.062,269.53687928
188.077,269.576134148
188.092,269.615294947
188.107,269.654361765
188.122,269.693334619
188.137,269.732213586
188.152,269.770998756
188.167,269.809690161
188.182,269.848287868
188.197,269.886791969
188.21,269.920086482
188.212,269.925202495
188.227,269.963519533
188.242,270.001743128
188.257,270.039873381
188.272,270.077910328
188.287,270.115854027
188.302,270.153704609
188.317,270.191462066
188.332,270.229126505
188.347,270.266698003
188.362,270.304176638
188.377,270.341562431
188.392,270.378855517
188.407,270.416055952
188.422,270.453163786
188.437,270.490179139
188.452,270.527102056
188.467,270.563932646
188.482,270.600670953
188.497,270.637317088
188.512,270.6738711
188.527,270.710333131
188.542,270.746703205
188.557,270.782981445
188.572,270.819167933
188.587,270.85526274
188.602,270.891265991
188.617,270.927177737
188.632,270.962998082
188.647,270.998727145
188.66,271.029618559
188.662,271.034365004
188.677,271.069911753
188.692,271.105367502
188.707,271.140732331
188.722,271.176006349
188.737,271.211189668
