# 48698 WSSS Singapore Observations at 12Z 27 Nov 2019
Frequency [GHz],TB
175.31,274.316870247
175.322,274.298282835
175.337,274.275001285
175.352,274.251667058
175.367,274.228279996
175.382,274.204839931
175.397,274.18134671
175.412,274.157800164
175.427,274.134200134
175.442,274.110546455
175.457,274.086838958
175.472,274.063077485
175.487,274.039261862
175.502,274.015391932
175.517,273.991467518
175.532,273.967488449
175.547,273.943454563
175.562,273.919365685
175.577,273.895221647
175.592,273.871022272
175.607,273.846767395
175.622,273.822456829
175.637,273.798090411
175.652,273.773667956
175.667,273.749189297
175.682,273.724654249
175.697,273.700062636
175.712,273.675414276
175.727,273.650708991
175.742,273.625946599
175.757,273.601126922
175.772,273.576249766
175.787,273.55131496
175.802,273.526322309
175.817,273.501271637
175.832,273.476162743
175.847,273.450995451
175.862,273.425769567
175.877,273.400484903
175.892,273.375141269
175.907,273.349738474
175.922,273.324276317
175.937,273.298754612
175.952,273.273173163
175.967,273.247531771
175.982,273.221830241
175.997,273.196068376
176.012,273.170245979
176.027,273.144362843
176.042,273.118418776
176.057,273.092413571
176.072,273.066347024
176.087,273.040218933
176.102,273.014029089
176.117,272.987777289
176.132,272.961463326
176.147,272.935086987
176.162,272.90864807
176.177,272.882146354
176.192,272.855581638
176.207,272.828953705
176.222,272.802262332
176.237,272.775507317
176.252,272.748688437
176.267,272.721805471
176.282,272.694858204
176.297,272.667846419
176.31,272.64438384
176.312,272.640769887
176.327,272.613628393
176.342,272.586421709
176.357,272.559149611
176.372,272.531811875
176.387,272.50440827
176.402,272.476938566
176.417,272.449402539
176.432,272.421799955
176.447,272.39413058
176.46,272.370096249
176.462,272.366394182
176.477,272.338590526
176.492,272.310719376
176.507,272.282780492
176.522,272.254773639
176.537,272.22669857
176.552,272.19855505
176.567,272.170342832
176.582,272.142061674
176.597,272.113711326
176.612,272.085291546
176.627,272.056802081
176.642,272.028242687
176.657,271.999613103
176.672,271.970913083
176.687,271.942142368
176.702,271.91330071
176.717,271.884387844
176.732,271.855403511
176.747,271.826347455
176.762,271.797219411
176.777,271.768019117
176.792,271.738746305
176.807,271.709400715
176.822,271.679982075
176.837,271.650490111
176.852,271.620924551
176.867,271.591285129
176.882,271.56157157
176.897,271.531783592
176.912,271.501920921
176.927,271.471983273
176.942,271.441970371
176.957,271.411881927
176.972,271.381717662
176.987,271.351477285
177.002,271.321160509
177.017,271.290767041
177.032,271.260296592
177.047,271.229748869
177.062,271.199123571
177.077,271.168420402
177.092,271.137639065
177.107,271.106779262
177.122,271.075840677
177.137,271.044823014
177.152,271.013725958
177.167,270.982549214
177.182,270.951292456
177.197,270.919955381
177.21,270.892731363
177.212,270.888537662
177.227,270.857038991
177.242,270.82545904
177.257,270.793797492
177.272,270.762054025
177.287,270.73022831
177.302,270.698320015
177.31,270.681268383
177.317,270.666328815
177.332,270.63425437
177.347,270.602096356
177.362,270.569854423
177.377,270.537528235
177.392,270.505117449
177.407,270.472621727
177.422,270.440040715
177.437,270.40737406
177.452,270.374621416
177.467,270.341782424
177.482,270.308856733
177.497,270.275843976
177.512,270.242743793
177.527,270.209555816
177.542,270.17627968
177.557,270.142915015
177.572,270.109461445
177.587,270.075918592
177.602,270.042286082
177.617,270.008563529
177.632,269.974750549
177.647,269.940846754
177.66,269.911389702
177.662,269.90685175
177.677,269.872765146
177.692,269.838586541
177.707,269.804315546
177.722,269.769951746
177.737,269.735494735
177.752,269.700944108
177.767,269.66629945
177.782,269.63156034
177.797,269.596726361
177.812,269.561797092
177.827,269.526772101
177.842,269.491650964
177.857,269.456433243
177.872,269.421118493
177.887,269.385706287
177.902,269.350196162
177.917,269.314587682
177.932,269.278880394
177.947,269.243073834
177.96,269.211960829
177.962,269.20716754
177.977,269.171161056
177.992,269.135053905
178.007,269.098845612
178.022,269.062535709
178.037,269.026123698
178.052,268.98960911
178.067,268.952991441
178.082,268.916270203
178.097,268.879444892
178.112,268.842515003
178.127,268.805480028
178.142,268.768339453
178.157,268.731092758
178.172,268.693739422
178.187,268.656278902
178.202,268.618710679
178.217,268.58103421
178.232,268.543248942
178.247,268.505354336
178.262,268.46734983
178.277,268.429234853
178.292,268.391008861
178.307,268.352671258
178.322,268.314221481
178.337,268.275658932
178.352,268.236983033
178.367,268.198193176
178.382,268.159288764
178.397,268.120269188
178.41,268.086358586
178.412,268.081133825
178.427,268.041882063
178.442,268.002513266
178.457,267.963026796
178.472,267.923422013
178.487,267.883698268
178.502,267.843854902
178.517,267.80389125
178.532,267.763806642
178.547,267.723600396
178.562,267.683271828
178.577,267.642820238
178.592,267.602244932
178.607,267.561545189
178.622,267.520720296
178.637,267.479769524
178.652,267.438692134
178.667,267.397487388
178.682,267.356154528
178.697,267.314692796
178.712,267.273101418
178.727,267.231379611
178.742,267.189526592
178.757,267.147541552
178.772,267.105423692
178.787,267.063172189
178.802,267.020786214
178.817,266.97826492
178.832,266.935607469
178.847,266.892812993
178.862,266.849880629
178.877,266.806809486
178.892,266.763598674
178.907,266.720247292
178.922,266.676754418
178.937,266.633119131
178.952,266.589340483
178.967,266.545417535
178.982,266.501349308
178.997,266.45713483
179.012,266.412773117
179.027,266.368263161
179.042,266.323603946
179.057,266.278794446
179.072,266.233833616
179.087,266.188720398
179.102,266.143453725
179.117,266.098032508
179.132,266.052455645
179.147,266.006722026
179.16,265.966958548
179.162,265.960830517
179.177,265.914779977
179.192,265.868569234
179.207,265.822197122
179.222,265.775662443
179.237,265.728963985
179.252,265.682100526
179.267,265.635070821
179.282,265.587873604
179.297,265.540507601
179.312,265.492971511
179.327,265.445264025
179.342,265.397383799
179.357,265.349329492
179.372,265.301099727
179.387,265.252693111
179.402,265.204108238
179.417,265.155343673
179.432,265.106397966
179.447,265.057269642
179.462,265.007957209
179.477,264.958459154
179.492,264.908773937
179.507,264.858899998
179.522,264.808835759
179.537,264.758579616
179.552,264.708129934
179.567,264.657485066
179.582,264.606643339
179.597,264.555603049
179.612,264.504362471
179.627,264.452919853
179.642,264.401273423
179.657,264.349421376
179.672,264.297361885
179.687,264.245093096
179.702,264.192613124
179.717,264.139920058
179.732,264.087011962
179.747,264.033886866
179.762,263.980542777
179.777,263.926977666
179.792,263.87318948
179.807,263.819176132
179.822,263.764935507
179.837,263.710465456
179.852,263.655763798
179.867,263.600828321
179.882,263.54565678
179.897,263.490246901
179.91,263.442030427
179.912,263.434596365
179.927,263.378702834
179.942,263.322563922
179.957,263.266177213
179.972,263.20954026
179.987,263.152650568
180.002,263.09550562
180.017,263.038102853
180.032,262.980439659
180.047,262.922513412
180.062,262.864321421
180.077,262.805860986
180.092,262.747129339
180.107,262.688123683
180.122,262.628841185
180.137,262.569278961
180.152,262.509434091
180.167,262.449303613
180.182,262.388884511
180.197,262.328173731
180.212,262.267168191
180.227,262.205864732
180.242,262.144260174
180.257,262.082351285
180.272,262.020134775
180.287,261.95760732
180.302,261.89476554
180.317,261.831606006
180.332,261.768125253
180.347,261.70431974
180.362,261.640185898
180.377,261.575720097
180.392,261.51091866
180.407,261.445777846
180.422,261.380293866
180.437,261.314462895
180.452,261.248281015
180.467,261.181744289
180.482,261.114848702
180.497,261.047590197
180.512,260.979964644
180.527,260.911967866
180.542,260.843595621
180.557,260.774843615
180.56,260.761047261
180.572,260.705707482
180.587,260.636182808
180.602,260.566265107
180.617,260.49594983
180.632,260.425232375
180.647,260.354108064
180.66,260.292134239
180.662,260.282572168
180.677,260.210619873
180.692,260.138246321
180.707,260.065446572
180.722,259.992215623
180.737,259.918548397
180.752,259.844439757
180.767,259.769884494
180.782,259.694877323
180.797,259.619412889
180.812,259.543485766
180.827,259.467090457
180.842,259.390221389
180.857,259.312872906
180.872,259.235039296
180.887,259.156714751
180.902,259.077893403
180.917,258.998569288
180.932,258.918736379
180.947,258.838388558
180.962,258.757519635
180.977,258.676123334
180.992,258.594193307
181.007,258.511723104
181.022,258.428706213
181.037,258.345136019
181.052,258.261005839
181.067,258.176308892
181.082,258.091038314
181.097,258.005187155
181.112,257.918748379
181.127,257.831714857
181.142,257.744079368
181.157,257.655834611
181.172,257.566973184
181.187,257.477487592
181.202,257.387370262
181.217,257.296613513
181.232,257.205209576
181.247,257.113150586
181.262,257.020428583
181.277,256.927035514
181.292,256.832963228
181.307,256.738203478
181.31,256.719168297
181.322,256.642747912
181.337,256.54658809
181.352,256.449715471
181.367,256.352121415
181.382,256.25379718
181.397,256.154733926
181.412,256.054922714
181.427,255.954354507
181.442,255.853020161
181.457,255.75091044
181.472,255.648016
181.487,255.5443274
181.502,255.439835099
181.517,255.334529456
181.532,255.228400732
181.547,255.121439075
181.562,255.013634557
181.577,254.904977131
181.592,254.795456664
181.607,254.685062917
181.622,254.573785564
181.637,254.461614176
181.652,254.348538238
181.667,254.234547133
181.682,254.119630162
181.697,254.003776531
181.712,253.886975365
181.727,253.7692157
181.742,253.65048649
181.757,253.530776607
181.772,253.410074856
181.787,253.288369959
181.802,253.165650573
181.817,253.041905289
181.832,252.917122641
181.847,252.791291099
181.862,252.664399086
181.877,252.536434987
181.892,252.407387135
181.907,252.277243841
181.922,252.145993382
181.937,252.01362403
181.952,251.880124038
181.967,251.745481674
181.982,251.609685202
181.997,251.472722915
182.012,251.334583143
182.027,251.195254266
182.042,251.054724717
182.057,250.912983015
182.06,250.88448821
182.072,250.770017765
182.087,250.625817689
182.102,250.48037164
182.117,250.333668617
182.132,250.185697801
182.147,250.036448567
182.162,249.885910517
182.177,249.734073511
182.192,249.580927688
182.207,249.426463512
182.222,249.2706718
182.237,249.113543769
182.252,248.955071062
182.267,248.795245822
182.282,248.634060726
182.297,248.471509018
182.312,248.307584615
182.327,248.14228214
182.342,247.975596977
182.357,247.807525396
182.372,247.638064564
182.387,247.467212699
182.402,247.294969118
182.417,247.121334355
182.432,246.946310272
182.447,246.769900164
182.462,246.592108898
182.477,246.412943049
182.492,246.232411029
182.507,246.050523267
182.522,245.867292357
182.537,245.682733248
182.552,245.49686344
182.567,245.309703178
182.582,245.121275674
182.597,244.931607345
182.612,244.74072805
182.627,244.548671353
182.642,244.355474796
182.657,244.16118019
182.672,243.965833894
182.687,243.769487161
182.702,243.572196426
182.717,243.374023636
182.732,243.17503662
182.747,242.975309385
182.762,242.77492248
182.777,242.573963299
182.792,242.372526424
182.807,242.170713902
182.822,241.968635514
182.837,241.766409
182.852,241.564160222
182.867,241.362023235
182.882,241.160140341
182.897,240.958661913
182.912,240.757746172
182.927,240.557558697
182.942,240.358271799
182.957,240.160063542
182.972,239.963116453
182.987,239.767615802
183.002,239.573747373
183.017,239.381694585
183.032,239.191634797
183.047,239.003734659
183.062,238.818144213
183.077,238.634989489
183.092,238.454363303
183.107,238.276313946
183.122,238.100831634
183.137,237.927833118
183.152,237.757145911
183.167,237.588496688
183.182,237.421514322
183.197,237.255771439
183.212,237.09091531
183.227,236.926990012
183.242,236.765133593
183.257,236.608907301
183.367,236.631403473
183.382,236.785448498
183.397,236.943937458
183.412,237.104088486
183.427,237.265134453
183.442,237.427177378
183.457,237.590608486
183.472,237.755847961
183.487,237.923243606
183.502,238.09304234
183.517,238.265392391
183.532,238.440356596
183.547,238.617928288
183.562,238.798046352
183.577,238.980608149
183.592,239.16548032
183.607,239.35250748
183.622,239.541519216
183.637,239.732335653
183.652,239.924771846
183.667,240.118641274
183.682,240.313758489
183.697,240.509941282
183.712,240.707012249
183.727,240.904799994
183.742,241.103140038
183.757,241.301875397
183.772,241.500857008
183.787,241.699943958
183.802,241.899003549
183.817,242.097911293
183.832,242.296550814
183.847,242.494813629
183.862,242.692598959
183.877,242.88981343
183.892,243.086370784
183.907,243.282191562
183.922,243.477202763
183.937,243.671337522
183.952,243.864534764
183.967,244.056738874
183.982,244.247899364
183.997,244.437970569
184.012,244.62691132
184.027,244.814684667
184.042,245.001257582
184.057,245.186600689
184.072,245.370688014
184.087,245.553496744
184.102,245.735006992
184.117,245.915201585
184.132,246.094065859
184.147,246.271587464
184.162,246.447756208
184.177,246.622563859
184.192,246.796004029
184.207,246.96807199
184.222,247.138764557
184.237,247.308079985
184.252,247.476017817
184.267,247.642578793
184.282,247.807764761
184.297,247.971578559
184.312,248.134023952
184.327,248.295105554
184.342,248.454828724
184.357,248.613199539
184.372,248.770224703
184.387,248.925911507
184.402,249.080267753
184.417,249.233301729
184.432,249.385022154
184.447,249.535438124
184.462,249.684559096
184.477,249.832394824
184.492,249.978955357
184.507,250.124250982
184.522,250.268292213
184.537,250.411089745
184.552,250.552654453
184.56,250.627655346
184.567,250.69299736
184.582,250.832129607
184.597,250.970062446
184.612,251.106807214
184.627,251.242375335
184.642,251.376778275
184.657,251.510027553
184.672,251.64213472
184.687,251.773111333
184.702,251.902968973
184.717,252.031719225
184.732,252.159373643
184.747,252.285943769
184.762,252.41144113
184.777,252.535877204
184.792,252.659263434
184.807,252.78161122
184.822,252.902931901
184.837,253.023236766
184.852,253.142537036
184.867,253.26084387
184.882,253.378168348
184.897,253.494521491
184.912,253.609914226
184.927,253.724357413
184.942,253.837861817
184.957,253.950438123
184.972,254.06209694
184.987,254.172848766
185.002,254.282704021
185.017,254.39167303
185.032,254.499766024
185.047,254.606993135
185.062,254.713364404
185.077,254.818889776
185.092,254.923579087
185.107,255.027442088
185.122,255.130488425
185.137,255.232727643
185.152,255.334169188
185.167,255.434822411
185.182,255.53469655
185.197,255.633800765
185.212,255.73214409
185.227,255.829735481
185.242,255.926583779
185.257,256.022697744
185.272,256.118086015
185.287,256.212757143
185.302,256.306719581
185.31,256.356545995
185.317,256.399981689
185.332,256.492551711
185.347,256.584437824
185.362,256.675648077
185.377,256.766190444
185.392,256.856072799
185.407,256.945302915
185.422,257.033888482
185.437,257.121837091
185.452,257.209156236
185.467,257.295853328
185.482,257.38193568
185.497,257.467410526
185.512,257.552284991
185.527,257.636566131
185.542,257.720260902
185.557,257.803376179
185.572,257.885918749
185.587,257.967895307
185.602,258.049312473
185.617,258.13017678
185.632,258.210494674
185.647,258.290272525
185.662,258.369516619
185.677,258.448233154
185.692,258.526428263
185.707,258.604107983
185.722,258.681278289
185.737,258.757945066
185.752,258.834114132
185.767,258.909791218
185.782,258.984981994
185.797,259.059692045
185.812,259.133926891
185.827,259.207691969
185.842,259.280992652
185.857,259.353834237
185.872,259.426221962
185.887,259.498160982
185.902,259.56965639
185.917,259.64071321
185.932,259.711336402
185.947,259.781530857
185.96,259.842022981
185.962,259.851301396
185.977,259.920652789
185.992,259.989589723
186.007,260.058116837
186.022,260.126238705
186.037,260.193959832
186.052,260.26128467
186.06,260.297030729
186.067,260.328217607
186.082,260.39476297
186.097,260.460925031
186.112,260.526708
186.127,260.592116035
186.142,260.657153238
186.157,260.72182364
186.172,260.786131236
186.187,260.850079956
186.202,260.913673681
186.217,260.976916227
186.232,261.039811376
186.247,261.102362844
186.262,261.164574305
186.277,261.226449371
186.292,261.287991614
186.307,261.349204552
186.322,261.410091655
186.337,261.470656347
186.352,261.530902003
186.367,261.590831952
186.382,261.650449468
186.397,261.709757801
186.412,261.768760129
186.427,261.827459606
186.442,261.885859328
186.457,261.943962364
186.472,262.001771721
186.487,262.059290379
186.502,262.11652127
186.517,262.173467286
186.532,262.230131279
186.547,262.286516058
186.562,262.3426244
186.577,262.398459031
186.592,262.454022651
186.607,262.50931791
186.622,262.564347444
186.637,262.619113821
186.652,262.673619591
186.667,262.727867269
186.682,262.781859327
186.697,262.835598204
186.71,262.881968972
186.712,262.889086317
186.727,262.942326029
186.742,262.995319679
186.757,263.048069581
186.772,263.100578007
186.787,263.152847196
186.802,263.204879361
186.817,263.256676686
186.832,263.308241311
186.847,263.359575365
186.862,263.410680932
186.877,263.461560079
186.892,263.512214829
186.907,263.562647191
186.922,263.61285914
186.937,263.662852622
186.952,263.712629556
186.967,263.762191837
186.982,263.811541337
186.997,263.860679888
187.012,263.909609317
187.027,263.958331401
187.042,264.006847922
187.057,264.055160606
187.072,264.103271181
187.087,264.151181337
187.102,264.198892741
187.117,264.246407045
187.132,264.293725869
187.147,264.34085082
187.162,264.387783476
187.177,264.434525393
187.192,264.481078114
187.207,264.527443147
187.222,264.573621996
187.237,264.619616132
187.252,264.665427011
187.267,264.711056071
187.282,264.756504726
187.297,264.801774372
187.312,264.846866386
187.327,264.891782132
187.342,264.936522949
187.357,264.981090161
187.372,265.025485077
187.387,265.069708981
187.402,265.113763148
187.417,265.15764883
187.432,265.201367264
187.447,265.244919676
187.46,265.282531736
187.462,265.288307271
187.477,265.331531235
187.492,265.374592752
187.507,265.417492964
187.522,265.460233032
187.537,265.502814083
187.552,265.545237224
187.567,265.587503559
187.582,265.629614175
187.597,265.671570145
187.612,265.713372523
187.627,265.755022363
187.642,265.796520694
187.657,265.837868531
187.672,265.879066882
187.687,265.920116741
187.702,265.961019092
187.717,266.001774901
187.732,266.042385127
187.747,266.082850713
187.762,266.123172598
187.777,266.1633517
187.792,266.203388927
187.807,266.243285188
187.822,266.283041363
187.837,266.322658336
187.852,266.362136974
187.867,266.401478131
187.882,266.440682661
187.897,266.479751394
187.912,266.518685165
187.927,266.557484786
187.942,266.596151064
187.957,266.634684802
187.972,266.673086788
187.987,266.711357802
188.002,266.749498619
188.017,266.787509995
188.032,266.825392689
188.047,266.863147446
188.062,266.900774998
188.077,266.938276082
188.092,266.975651413
188.107,267.012901703
188.122,267.050027663
188.137,267.087029982
188.152,267.123909354
188.167,267.160666459
188.182,267.197301974
188.197,267.233816567
188.21,267.265365242
188.212,267.270210895
188.227,267.30648561
188.242,267.342641361
188.257,267.378678789
188.272,267.414598524
188.287,267.45040119
188.302,267.486087411
188.317,267.521657799
188.332,267.557112956
188.347,267.592453491
188.362,267.627679991
188.377,267.66279305
188.392,267.697793246
188.407,267.732681158
188.422,267.767457363
188.437,267.802122411
188.452,267.836676877
188.467,267.87112131
188.482,267.905456256
188.497,267.939682267
188.512,267.973799871
188.527,268.007809608
188.542,268.041712005
188.557,268.075507585
188.572,268.109196866
188.587,268.142780359
188.602,268.176258579
188.617,268.209632029
188.632,268.242901201
188.647,268.276066597
188.66,268.304726376
188.662,268.309128703
188.677,268.342088011
188.692,268.374944996
188.707,268.40770014
188.722,268.440353914
188.737,268.47290679
